1042.414189	681.2000122
1042.980685	682.5999756
1043.547124	680.5999756
1044.113505	683.4000244
1044.679828	682.0
1045.246093	679.2000122
1045.8123	682.7999878
1046.378449	678.2000122
1046.94454	682.0
1047.510573	675.7999878
1048.076548	679.7999878
1048.642465	678.5999756
1049.208325	677.0
1049.774126	680.0
1050.339869	679.7999878
1050.905555	680.7999878
1051.471183	676.2000122
1052.036752	676.5999756
1052.602264	673.4000244
1053.167718	676.4000244
1053.733114	679.4000244
1054.298452	678.2000122
1054.863733	677.0
1055.428955	676.2000122
1055.994119	676.0
1056.559226	674.0
1057.124275	674.0
1057.689266	676.2000122
1058.254199	678.5999756
1058.819074	677.0
1059.383891	675.5999756
1059.94865	679.0
1060.513352	674.4000244
1061.077996	673.7999878
1061.642582	676.2000122
1062.20711	674.4000244
1062.77158	675.7999878
1063.335992	672.2000122
1063.900347	677.7999878
1064.464643	674.7999878
1065.028882	675.7999878
1065.593063	677.5999756
1066.157187	673.2000122
1066.721252	673.7999878
1067.28526	675.0
1067.84921	675.7999878
1068.413102	676.2000122
1068.976936	675.0
1069.540713	675.0
1070.104431	684.5999756
1070.668092	674.5999756
1071.231696	673.2000122
1071.795241	676.0
1072.358729	677.0
1072.922159	679.4000244
1073.485531	675.5999756
1074.048845	677.4000244
1074.612102	676.7999878
1075.175301	674.5999756
1075.738442	679.2000122
1076.301525	678.2000122
1076.864551	679.7999878
1077.427519	678.0
1077.990429	677.2000122
1078.553281	677.2000122
1079.116076	675.2000122
1079.678813	680.2000122
1080.241492	677.2000122
1080.804114	679.0
1081.366678	680.0
1081.929184	680.0
1082.491633	679.7999878
1083.054024	679.4000244
1083.616357	681.5999756
1084.178632	679.2000122
1084.74085	680.7999878
1085.30301	679.0
1085.865113	682.5999756
1086.427158	678.4000244
1086.989145	680.0
1087.551074	680.4000244
1088.112946	682.2000122
1088.67476	679.4000244
1089.236517	684.2000122
1089.798216	683.0
1090.359857	684.2000122
1090.92144	686.2000122
1091.482966	685.2000122
1092.044435	685.0
1092.605845	683.7999878
1093.167199	686.7999878
1093.728494	685.0
1094.289732	688.5999756
1094.850912	687.2000122
1095.412035	695.2000122
1095.9731	682.2000122
1096.534107	684.0
1097.095057	689.5999756
1097.65595	679.5999756
1098.216784	683.7999878
1098.777561	681.4000244
1099.338281	681.0
1099.898943	681.2000122
1100.459547	676.0
1101.020094	677.5999756
1101.580584	678.0
1102.141015	677.7999878
1102.701389	676.4000244
1103.261706	675.7999878
1103.821965	675.4000244
1104.382167	677.0
1104.942311	678.2000122
1105.502397	679.2000122
1106.062426	677.0
1106.622398	678.4000244
1107.182312	674.2000122
1107.742168	675.2000122
1108.301967	675.2000122
1108.861708	672.7999878
1109.421392	679.2000122
1109.981019	674.7999878
1110.540587	672.5999756
1111.100099	674.0
1111.659553	675.7999878
1112.218949	674.0
1112.778288	673.5999756
1113.33757	674.5999756
1113.896794	673.0
1114.45596	672.5999756
1115.015069	673.7999878
1115.574121	673.2000122
1116.133115	676.0
1116.692052	674.7999878
1117.250931	673.2000122
1117.809753	672.0
1118.368517	673.0
1118.927224	673.5999756
1119.485873	675.0
1120.044465	673.4000244
1120.603	672.5999756
1121.161477	672.2000122
1121.719897	676.4000244
1122.278259	671.7999878
1122.836564	670.5999756
1123.394812	673.0
1123.953002	672.5999756
1124.511135	672.5999756
1125.06921	671.5999756
1125.627228	674.2000122
1126.185189	673.7999878
1126.743092	673.0
1127.300938	671.4000244
1127.858726	672.5999756
1128.416457	669.5999756
1128.974131	672.0
1129.531748	673.0
1130.089307	673.4000244
1130.646808	673.2000122
1131.204252	670.7999878
1131.761639	672.5999756
1132.318969	672.2000122
1132.876241	675.0
1133.433456	674.0
1133.990614	672.5999756
1134.547714	675.0
1135.104757	672.4000244
1135.661743	670.5999756
1136.218671	675.5999756
1136.775542	672.2000122
1137.332356	674.2000122
1137.889112	673.5999756
1138.445811	674.4000244
1139.002453	674.4000244
1139.559037	672.7999878
1140.115565	673.4000244
1140.672035	672.5999756
1141.228447	672.2000122
1141.784803	676.4000244
1142.341101	675.2000122
1142.897342	676.0
1143.453525	672.2000122
1144.009651	674.2000122
1144.565721	674.0
1145.121732	672.4000244
1145.677687	674.2000122
1146.233584	671.5999756
1146.789424	674.4000244
1147.345207	675.2000122
1147.900933	673.0
1148.456601	676.7999878
1149.012212	673.4000244
1149.567766	670.5999756
1150.123263	671.2000122
1150.678702	675.2000122
1151.234085	676.2000122
1151.78941	671.2000122
1152.344678	675.0
1152.899888	672.7999878
1153.455042	675.0
1154.010138	674.5999756
1154.565177	674.0
1155.120159	673.2000122
1155.675084	674.4000244
1156.229951	672.2000122
1156.784762	673.5999756
1157.339515	673.4000244
1157.894211	672.2000122
1158.44885	672.5999756
1159.003432	674.7999878
1159.557956	673.7999878
1160.112424	673.4000244
1160.666834	673.0
1161.221187	674.2000122
1161.775483	675.2000122
1162.329722	672.4000244
1162.883904	673.0
1163.438029	672.7999878
1163.992096	673.2000122
1164.546107	673.2000122
1165.10006	672.7999878
1165.653956	678.0
1166.207795	672.7999878
1166.761577	674.0
1167.315302	676.5999756
1167.86897	672.7999878
1168.422581	671.4000244
1168.976134	677.4000244
1169.529631	672.4000244
1170.08307	675.5999756
1170.636453	671.5999756
1171.189778	673.2000122
1171.743046	671.2000122
1172.296257	675.2000122
1172.849412	673.5999756
1173.402509	672.0
1173.955549	674.4000244
1174.508532	673.4000244
1175.061458	675.0
1175.614327	673.5999756
1176.167138	672.7999878
1176.719893	671.7999878
1177.272591	672.5999756
1177.825232	670.0
1178.377816	675.4000244
1178.930342	674.0
1179.482812	676.4000244
1180.035225	672.2000122
1180.587581	675.5999756
1181.139879	673.7999878
1181.692121	670.5999756
1182.244306	672.4000244
1182.796434	674.2000122
1183.348504	672.7999878
1183.900518	672.7999878
1184.452475	672.4000244
1185.004375	674.2000122
1185.556218	673.0
1186.108004	672.4000244
1186.659733	674.2000122
1187.211405	671.7999878
1187.76302	673.4000244
1188.314578	673.7999878
1188.866079	674.2000122
1189.417523	676.0
1189.96891	674.4000244
1190.520241	674.7999878
1191.071514	673.7999878
1191.622731	673.5999756
1192.17389	674.4000244
1192.724993	674.5999756
1193.276039	695.0
1193.827027	671.4000244
1194.377959	675.0
1194.928834	673.4000244
1195.479653	672.7999878
1196.030414	674.2000122
1196.581118	673.2000122
1197.131766	670.4000244
1197.682356	674.2000122
1198.23289	673.7999878
1198.783367	672.5999756
1199.333786	674.0
1199.88415	675.5999756
1200.434456	673.2000122
1200.984705	675.2000122
1201.534898	674.5999756
1202.085033	670.7999878
1202.635112	671.4000244
1203.185134	671.0
1203.735099	670.4000244
1204.285007	674.0
1204.834859	672.2000122
1205.384653	674.4000244
1205.934391	673.0
1206.484072	675.2000122
1207.033696	672.7999878
1207.583263	675.2000122
1208.132774	674.2000122
1208.682228	671.4000244
1209.231624	674.2000122
1209.780965	672.0
1210.330248	674.2000122
1210.879474	672.4000244
1211.428644	675.0
1211.977757	671.5999756
1212.526813	673.2000122
1213.075813	676.7999878
1213.624755	672.5999756
1214.173641	672.4000244
1214.72247	674.7999878
1215.271242	671.4000244
1215.819958	673.4000244
1216.368617	672.7999878
1216.917219	674.5999756
1217.465764	670.7999878
1218.014253	673.4000244
1218.562685	673.4000244
1219.11106	674.0
1219.659378	674.5999756
1220.20764	675.2000122
1220.755845	672.4000244
1221.303993	673.4000244
1221.852085	676.2000122
1222.400119	672.0
1222.948097	675.5999756
1223.496019	674.2000122
1224.043883	673.4000244
1224.591691	673.2000122
1225.139443	674.4000244
1225.687137	675.4000244
1226.234775	673.2000122
1226.782357	674.4000244
1227.329881	672.4000244
1227.877349	672.5999756
1228.42476	672.2000122
1228.972115	674.4000244
1229.519413	675.7999878
1230.066654	672.2000122
1230.613839	674.2000122
1231.160967	673.7999878
1231.708038	675.4000244
1232.255053	673.4000244
1232.802011	670.7999878
1233.348912	675.2000122
1233.895757	670.2000122
1234.442545	672.4000244
1234.989277	672.5999756
1235.535951	672.5999756
1236.08257	675.4000244
1236.629131	674.0
1237.175636	674.7999878
1237.722085	672.2000122
1238.268477	673.2000122
1238.814812	671.4000244
1239.361091	673.5999756
1239.907313	672.7999878
1240.453478	675.7999878
1240.999587	672.7999878
1241.54564	671.2000122
1242.091636	671.0
1242.637575	673.5999756
1243.183457	674.7999878
1243.729284	674.0
1244.275053	672.2000122
1244.820766	674.5999756
1245.366423	672.0
1245.912022	673.7999878
1246.457566	672.2000122
1247.003053	668.2000122
1247.548483	673.4000244
1248.093857	674.2000122
1248.639174	673.5999756
1249.184435	671.0
1249.729639	671.0
1250.274787	674.0
1250.819878	670.5999756
1251.364912	673.0
1251.909891	675.7999878
1252.454812	674.2000122
1252.999677	671.4000244
1253.544486	671.5999756
1254.089238	673.0
1254.633934	672.0
1255.178573	671.5999756
1255.723156	671.2000122
1256.267682	673.2000122
1256.812152	675.5999756
1257.356565	672.4000244
1257.900922	672.2000122
1258.445223	674.0
1258.989467	672.4000244
1259.533654	676.5999756
1260.077785	685.5999756
1260.62186	672.2000122
1261.165878	672.7999878
1261.70984	674.0
1262.253745	670.7999878
1262.797594	674.7999878
1263.341386	674.7999878
1263.885123	675.0
1264.428802	672.4000244
1264.972425	675.0
1265.515992	676.5999756
1266.059503	673.7999878
1266.602957	672.5999756
1267.146354	672.2000122
1267.689696	675.4000244
1268.23298	672.4000244
1268.776209	675.2000122
1269.319381	675.4000244
1269.862497	674.0
1270.405556	674.0
1270.948559	672.7999878
1271.491506	675.7999878
1272.034396	671.4000244
1272.57723	672.5999756
1273.120007	675.0
1273.662728	673.7999878
1274.205393	669.7999878
1274.748002	672.5999756
1275.290554	674.0
1275.83305	672.2000122
1276.375489	669.4000244
1276.917872	674.7999878
1277.460199	674.7999878
1278.00247	673.2000122
1278.544684	672.7999878
1279.086842	672.0
1279.628943	675.4000244
1280.170989	674.0
1280.712978	676.5999756
1281.25491	674.2000122
1281.796787	674.5999756
1282.338607	677.2000122
1282.880371	684.2000122
1283.422078	681.5999756
1283.963729	687.5999756
1284.505324	683.7999878
1285.046863	680.7999878
1285.588345	681.5999756
1286.129772	677.7999878
1286.671142	676.2000122
1287.212455	677.2000122
1287.753713	673.5999756
1288.294914	673.0
1288.836059	673.2000122
1289.377147	676.5999756
1289.91818	671.4000244
1290.459156	673.2000122
1291.000076	672.5999756
1291.54094	674.2000122
1292.081747	671.4000244
1292.622499	672.5999756
1293.163194	674.5999756
1293.703833	671.4000244
1294.244415	672.2000122
1294.784942	672.5999756
1295.325412	673.5999756
1295.865826	673.4000244
1296.406184	669.5999756
1296.946486	673.7999878
1297.486731	673.7999878
1298.026921	674.5999756
1298.567054	671.5999756
1299.107131	670.4000244
1299.647152	672.7999878
1300.187116	669.7999878
1300.727025	674.4000244
1301.266877	673.5999756
1301.806673	671.2000122
1302.346413	673.5999756
1302.886097	673.4000244
1303.425725	672.5999756
1303.965297	669.5999756
1304.504812	673.4000244
1305.044272	673.7999878
1305.583675	672.4000244
1306.123022	671.7999878
1306.662313	672.5999756
1307.201548	673.2000122
1307.740727	673.0
1308.279849	673.5999756
1308.818916	674.2000122
1309.357926	673.2000122
1309.896881	674.2000122
1310.435779	672.2000122
1310.974621	672.7999878
1311.513407	670.2000122
1312.052137	672.4000244
1312.590811	674.5999756
1313.129429	671.4000244
1313.667991	672.2000122
1314.206497	671.0
1314.744946	671.5999756
1315.28334	674.7999878
1315.821678	673.4000244
1316.359959	673.4000244
1316.898184	673.0
1317.436354	674.0
1317.974467	674.2000122
1318.512525	672.5999756
1319.050526	673.0
1319.588471	674.2000122
1320.12636	671.5999756
1320.664194	671.0
1321.201971	671.7999878
1321.739692	672.5999756
1322.277357	674.2000122
1322.814967	671.7999878
1323.35252	671.4000244
1323.890017	678.2000122
1324.427458	672.4000244
1324.964843	671.0
1325.502173	675.0
1326.039446	676.4000244
1326.576663	673.4000244
1327.113824	676.4000244
1327.65093	671.5999756
1328.187979	674.4000244
1328.724972	670.5999756
1329.26191	673.2000122
1329.798791	674.2000122
1330.335617	673.0
1330.872386	671.2000122
1331.4091	674.0
1331.945758	671.4000244
1332.48236	674.2000122
1333.018905	670.2000122
1333.555395	673.4000244
1334.091829	672.2000122
1334.628207	672.2000122
1335.164529	674.4000244
1335.700796	672.2000122
1336.237006	673.4000244
1336.77316	673.2000122
1337.309259	673.7999878
1337.845301	674.0
1338.381288	673.5999756
1338.917219	668.7999878
1339.453094	672.0
1339.988913	675.4000244
1340.524676	670.7999878
1341.060383	672.5999756
1341.596034	674.0
1342.13163	671.0
1342.66717	673.0
1343.202653	672.4000244
1343.738081	673.0
1344.273453	673.4000244
1344.80877	672.7999878
1345.34403	673.4000244
1345.879235	674.4000244
1346.414383	673.5999756
1346.949476	671.2000122
1347.484513	673.5999756
1348.019494	673.7999878
1348.55442	672.5999756
1349.089289	672.5999756
1349.624103	670.7999878
1350.158861	674.2000122
1350.693563	670.7999878
1351.228209	670.7999878
1351.7628	675.0
1352.297334	672.7999878
1352.831813	668.7999878
1353.366236	672.2000122
1353.900604	672.4000244
1354.434915	672.0
1354.969171	673.0
1355.503371	671.5999756
1356.037515	669.7999878
1356.571604	671.4000244
1357.105636	672.2000122
1357.639613	672.0
1358.173535	668.7999878
1358.7074	671.5999756
1359.24121	673.7999878
1359.774964	670.0
1360.308662	674.5999756
1360.842304	671.2000122
1361.375891	670.5999756
1361.909422	671.4000244
1362.442897	672.0
1362.976317	672.7999878
1363.50968	672.2000122
1364.042989	674.2000122
1364.576241	671.0
1365.109438	674.0
1365.642579	671.5999756
1366.175664	672.7999878
1366.708693	673.5999756
1367.241667	671.0
1367.774585	672.2000122
1368.307448	672.0
1368.840255	674.0
1369.373006	676.2000122
1369.905701	671.5999756
1370.438341	671.2000122
1370.970925	673.0
1371.503454	671.7999878
1372.035926	671.0
1372.568344	670.2000122
1373.100705	672.0
1373.633011	670.0
1374.165261	674.4000244
1374.697456	674.0
1375.229595	670.7999878
1375.761678	675.4000244
1376.293705	672.7999878
1376.825677	673.2000122
1377.357594	672.4000244
1377.889455	672.0
1378.42126	673.5999756
1378.953009	672.7999878
1379.484703	670.0
1380.016342	673.0
1380.547924	673.2000122
1381.079452	674.5999756
1381.610923	674.7999878
1382.142339	674.2000122
1382.673699	677.0
1383.205004	675.4000244
1383.736253	678.2000122
1384.267447	674.2000122
1384.798585	676.4000244
1385.329668	675.7999878
1385.860695	678.2000122
1386.391666	678.0
1386.922582	679.4000244
1387.453442	692.2000122
1387.984247	699.7999878
1388.514996	700.4000244
1389.04569	695.0
1389.576328	679.5999756
1390.10691	676.0
1390.637437	676.5999756
1391.167909	674.0
1391.698325	673.2000122
1392.228685	673.7999878
1392.75899	674.0
1393.28924	672.5999756
1393.819434	675.7999878
1394.349572	672.0
1394.879655	673.2000122
1395.409683	672.7999878
1395.939655	673.0
1396.469571	669.7999878
1396.999432	672.2000122
1397.529237	671.2000122
1398.058987	673.2000122
1398.588682	673.7999878
1399.118321	671.4000244
1399.647905	671.5999756
1400.177433	671.7999878
1400.706906	671.2000122
1401.236323	673.2000122
1401.765685	673.2000122
1402.294991	673.0
1402.824242	672.5999756
1403.353437	673.2000122
1403.882577	674.4000244
1404.411662	670.4000244
1404.940691	674.7999878
1405.469665	674.5999756
1405.998583	674.2000122
1406.527446	674.2000122
1407.056253	673.0
1407.585005	675.5999756
1408.113702	673.2000122
1408.642343	673.4000244
1409.170929	674.4000244
1409.69946	673.2000122
1410.227935	673.4000244
1410.756354	673.5999756
1411.284719	674.5999756
1411.813028	675.4000244
1412.341281	675.0
1412.869479	673.2000122
1413.397622	669.0
1413.92571	674.4000244
1414.453742	668.4000244
1414.981718	670.2000122
1415.50964	684.5999756
1416.037506	673.4000244
1416.565316	671.2000122
1417.093072	671.4000244
1417.620772	673.2000122
1418.148416	674.0
1418.676005	671.7999878
1419.203539	668.5999756
1419.731018	671.7999878
1420.258441	672.5999756
1420.785809	671.0
1421.313122	672.7999878
1421.840379	671.2000122
1422.367582	670.2000122
1422.894728	671.2000122
1423.42182	672.7999878
1423.948856	670.7999878
1424.475837	673.5999756
1425.002762	672.5999756
1425.529633	671.5999756
1426.056448	669.5999756
1426.583207	671.5999756
1427.109912	673.5999756
1427.636561	672.4000244
1428.163155	673.2000122
1428.689694	669.2000122
1429.216177	674.0
1429.742605	671.7999878
1430.268978	674.4000244
1430.795296	673.7999878
1431.321558	671.5999756
1431.847765	673.7999878
1432.373917	671.7999878
1432.900014	673.0
1433.426056	673.7999878
1433.952042	675.5999756
1434.477973	673.4000244
1435.003849	674.5999756
1435.529669	673.0
1436.055435	672.0
1436.581145	671.2000122
1437.1068	672.0
1437.632399	675.0
1438.157944	669.4000244
1438.683433	670.5999756
1439.208868	673.5999756
1439.734247	671.5999756
1440.25957	670.0
1440.784839	672.4000244
1441.310053	671.7999878
1441.835211	671.2000122
1442.360314	674.7999878
1442.885362	669.7999878
1443.410355	673.0
1443.935292	672.4000244
1444.460175	669.5999756
1444.985002	671.2000122
1445.509774	670.7999878
1446.034491	671.0
1446.559153	673.5999756
1447.08376	672.2000122
1447.608312	672.7999878
1448.132808	671.5999756
1448.65725	673.7999878
1449.181636	669.7999878
1449.705967	673.4000244
1450.230243	672.0
1450.754464	672.7999878
1451.27863	670.7999878
1451.802741	672.5999756
1452.326797	669.4000244
1452.850797	674.5999756
1453.374743	670.0
1453.898633	671.2000122
1454.422468	673.7999878
1454.946249	672.0
1455.469974	672.2000122
1455.993644	668.7999878
1456.517259	671.0
1457.040819	672.0
1457.564324	671.0
1458.087773	671.5999756
1458.611168	673.2000122
1459.134508	673.7999878
1459.657793	673.4000244
1460.181022	672.0
1460.704197	673.7999878
1461.227316	672.0
1461.750381	672.7999878
1462.27339	672.7999878
1462.796345	670.4000244
1463.319244	671.7999878
1463.842089	670.4000244
1464.364878	668.7999878
1464.887613	670.4000244
1465.410292	672.4000244
1465.932916	673.4000244
1466.455486	671.0
1466.978	670.2000122
1467.50046	668.0
1468.022864	673.2000122
1469.589748	799.2000122
1470.111932	674.5999756
1470.634062	671.7999878
1471.156136	671.2000122
1471.678156	669.5999756
1472.20012	674.5999756
1472.72203	672.7999878
1473.243885	673.2000122
1473.765685	668.2000122
1474.28743	669.4000244
1474.80912	673.0
1475.330755	670.0
1475.852335	669.4000244
1476.37386	671.0
1476.89533	671.4000244
1477.416745	672.0
1477.938106	671.2000122
1478.459411	671.7999878
1478.980662	673.0
1479.501857	672.4000244
1480.022998	670.0
1480.544084	671.0
1481.065115	673.0
1481.586091	670.2000122
1482.107012	673.4000244
1482.627878	673.4000244
1483.14869	671.2000122
1483.669446	669.0
1484.190148	669.4000244
1484.710794	672.2000122
1485.231386	671.5999756
1485.751923	670.0
1486.272406	673.5999756
1486.792833	668.4000244
1487.313205	674.0
1487.833523	672.5999756
1488.353786	671.7999878
1488.873994	671.2000122
1489.394147	669.2000122
1489.914245	671.4000244
1490.434288	672.4000244
1490.954277	671.5999756
1491.474211	669.4000244
1491.99409	671.7999878
1492.513914	672.7999878
1493.033683	670.5999756
1493.553398	669.2000122
1494.073057	674.7999878
1494.592662	671.5999756
1495.112212	669.5999756
1495.631708	671.7999878
1496.151148	670.0
1496.670534	671.0
1497.189865	669.7999878
1497.709141	670.2000122
1498.228362	672.4000244
1498.747529	671.7999878
1499.266641	671.7999878
1499.785698	675.5999756
1500.3047	672.4000244
1500.823648	669.7999878
1501.34254	669.0
1501.861379	672.5999756
1502.380162	670.7999878
1502.89889	672.2000122
1503.417564	673.0
1503.936183	672.5999756
1504.454748	673.2000122
1504.973257	669.2000122
1505.491712	669.5999756
1506.010112	671.2000122
1506.528458	669.7999878
1507.046748	671.0
1507.564984	673.0
1508.083166	671.2000122
1508.601292	669.7999878
1509.119364	671.2000122
1509.637381	672.2000122
1510.155344	667.7999878
1510.673252	680.4000244
1511.191105	670.2000122
1511.708903	668.0
1512.226647	672.0
1512.744336	670.0
1513.261971	671.2000122
1513.77955	673.2000122
1514.297076	670.2000122
1514.814546	670.2000122
1515.331962	672.4000244
1515.849323	672.4000244
1516.366629	669.0
1516.883881	671.2000122
1517.401078	671.0
1517.918221	670.5999756
1518.435309	669.5999756
1518.952342	668.7999878
1519.469321	668.7999878
1519.986245	670.0
1520.503114	668.5999756
1521.019929	671.0
1521.536689	671.7999878
1522.053395	672.0
1522.570046	671.2000122
1523.086642	671.0
1523.603184	670.2000122
1524.119671	671.5999756
1524.636103	668.7999878
1525.152481	671.4000244
1525.668805	669.4000244
1526.185073	669.4000244
1526.701288	670.2000122
1527.217447	670.4000244
1527.733552	670.0
1528.249603	670.0
1528.765599	672.7999878
1529.28154	667.4000244
1529.797427	671.0
1530.313259	669.7999878
1530.829037	669.5999756
1531.34476	670.0
1531.860429	669.2000122
1532.376043	669.5999756
1532.891602	671.5999756
1533.407107	669.2000122
1533.922558	669.2000122
1534.437954	670.7999878
1534.953295	668.2000122
1535.468582	669.4000244
1535.983815	671.2000122
1536.498993	669.5999756
1537.014116	670.0
1537.529185	672.0
1538.044199	670.0
1538.559159	672.7999878
1539.074064	673.7999878
1539.588915	671.2000122
1540.103712	671.0
1540.618454	671.5999756
1541.133141	670.2000122
1541.647774	669.0
1542.162353	667.7999878
1542.676877	670.2000122
1543.191346	670.4000244
1543.705761	669.7999878
1544.220122	670.4000244
1544.734428	669.2000122
1545.24868	669.2000122
1545.762877	667.4000244
1546.27702	668.4000244
1546.791109	667.5999756
1547.305143	670.2000122
1547.819122	669.0
1548.333047	670.0
1548.846918	671.0
1549.360734	669.4000244
1549.874496	669.4000244
1550.388204	669.0
1550.901857	669.4000244
1551.415455	670.0
1551.929	672.2000122
1552.442489	672.0
1552.955925	671.2000122
1553.469306	669.4000244
1553.982632	671.2000122
1554.495905	673.2000122
1555.009123	672.4000244
1555.522286	668.5999756
1556.035395	670.2000122
1556.54845	669.2000122
1557.06145	669.2000122
1557.574396	670.5999756
1558.087288	669.2000122
1558.600125	671.4000244
1559.112908	669.4000244
1559.625637	667.4000244
1560.138311	671.5999756
1560.650931	669.0
1561.163497	669.7999878
1561.676008	671.0
1562.188465	668.2000122
1562.700867	672.4000244
1563.213216	671.5999756
1563.725509	670.7999878
1564.237749	671.5999756
1564.749934	672.5999756
1565.262065	669.0
1565.774142	669.7999878
1566.286164	670.0
1566.798132	672.7999878
1567.310046	672.2000122
1567.821906	668.2000122
1568.333711	672.5999756
1568.845462	669.4000244
1569.357158	666.4000244
1569.868801	670.4000244
1570.380389	669.2000122
1570.891922	671.0
1571.403402	669.2000122
1571.914827	671.0
1572.426198	669.5999756
1572.937515	679.0
1573.959985	672.5999756
1574.471139	670.0
1574.982239	672.4000244
1575.493285	671.7999878
1576.004276	668.2000122
1576.515213	668.4000244
1577.026096	670.0
1577.536924	667.7999878
1578.047698	670.2000122
1578.558419	671.4000244
1579.069084	670.4000244
1579.579696	670.2000122
1580.090254	672.0
1580.600757	667.4000244
1581.111206	671.2000122
1581.621601	669.5999756
1582.131941	670.4000244
1582.642228	669.7999878
1583.15246	672.0
1583.662638	670.4000244
1584.172762	669.2000122
1584.682832	668.7999878
1585.192847	668.5999756
1585.702809	667.2000122
1586.212716	669.7999878
1586.722569	668.0
1587.232368	666.5999756
1587.742113	669.0
1588.251803	670.7999878
1588.76144	672.2000122
1589.271022	669.7999878
1589.78055	669.7999878
1590.290024	671.2000122
1590.799444	669.2000122
1591.30881	669.2000122
1591.818121	667.2000122
1592.327379	668.2000122
