1042.414189	691.25
1042.980685	690.25
1043.547124	687.75
1044.113505	690.75
1044.679828	688.75
1045.246093	686.5
1045.8123	685.75
1046.378449	685.0
1046.94454	685.5
1047.510573	685.25
1048.076548	684.5
1048.642465	685.5
1049.208325	683.0
1049.774126	684.25
1050.339869	685.0
1050.905555	686.0
1051.471183	684.75
1052.036752	682.75
1052.602264	684.75
1053.167718	681.5
1053.733114	682.5
1054.298452	680.5
1054.863733	680.0
1055.428955	681.25
1055.994119	682.0
1056.559226	681.75
1057.124275	676.75
1057.689266	681.0
1058.254199	676.75
1058.819074	683.25
1059.383891	680.25
1059.94865	677.25
1060.513352	679.75
1061.077996	681.25
1061.642582	679.5
1062.20711	682.25
1062.77158	678.75
1063.335992	677.5
1063.900347	683.25
1064.464643	679.5
1065.028882	677.25
1065.593063	677.5
1066.157187	678.5
1066.721252	678.0
1067.28526	678.75
1067.84921	677.5
1068.413102	676.75
1068.976936	678.75
1069.540713	680.5
1070.104431	686.75
1070.668092	677.75
1071.231696	681.5
1071.795241	676.75
1072.358729	677.75
1072.922159	678.25
1073.485531	676.25
1074.048845	678.5
1074.612102	676.5
1075.175301	676.0
1075.738442	682.25
1076.301525	680.25
1076.864551	676.75
1077.427519	676.25
1077.990429	679.0
1078.553281	678.75
1079.116076	676.75
1079.678813	678.0
1080.241492	678.0
1080.804114	677.5
1081.366678	677.5
1081.929184	679.0
1082.491633	678.25
1083.054024	676.0
1083.616357	675.75
1084.178632	678.0
1084.74085	675.75
1085.30301	677.5
1085.865113	677.75
1086.427158	677.25
1086.989145	678.5
1087.551074	675.5
1088.112946	675.5
1088.67476	675.0
1089.236517	677.0
1089.798216	677.75
1090.359857	679.5
1090.92144	675.5
1091.482966	674.25
1092.044435	679.75
1092.605845	673.5
1093.167199	671.0
1093.728494	678.0
1094.289732	674.0
1094.850912	675.0
1095.412035	689.5
1095.9731	678.0
1096.534107	677.25
1097.095057	682.0
1097.65595	677.0
1098.216784	676.5
1098.777561	673.75
1099.338281	674.75
1099.898943	680.0
1100.459547	675.25
1101.020094	679.5
1101.580584	678.25
1102.141015	671.25
1102.701389	675.25
1103.261706	675.0
1103.821965	677.25
1104.382167	678.0
1104.942311	676.5
1105.502397	671.5
1106.062426	675.25
1106.622398	677.0
1107.182312	672.5
1107.742168	676.0
1108.301967	673.5
1108.861708	675.75
1109.421392	678.75
1109.981019	675.5
1110.540587	677.5
1111.100099	672.0
1111.659553	673.5
1112.218949	675.75
1112.778288	672.75
1113.33757	672.0
1113.896794	673.75
1114.45596	675.25
1115.015069	674.0
1115.574121	673.0
1116.133115	672.25
1116.692052	676.0
1117.250931	678.75
1117.809753	672.0
1118.368517	672.75
1118.927224	674.75
1119.485873	674.25
1120.044465	673.5
1120.603	672.75
1121.161477	672.0
1121.719897	672.25
1122.278259	674.0
1122.836564	671.5
1123.394812	673.0
1123.953002	674.5
1124.511135	674.5
1125.06921	674.0
1125.627228	675.75
1126.185189	677.0
1126.743092	672.5
1127.300938	674.25
1127.858726	673.25
1128.416457	672.5
1128.974131	672.75
1129.531748	675.25
1130.089307	674.0
1130.646808	673.5
1131.204252	673.5
1131.761639	674.25
1132.318969	671.25
1132.876241	672.75
1133.433456	675.5
1133.990614	673.25
1134.547714	674.5
1135.104757	671.0
1135.661743	674.75
1136.218671	675.0
1136.775542	674.25
1137.332356	678.0
1137.889112	675.0
1138.445811	673.5
1139.002453	671.0
1139.559037	671.75
1140.115565	671.0
1140.672035	674.0
1141.228447	675.25
1141.784803	673.75
1142.341101	675.25
1142.897342	674.0
1143.453525	676.25
1144.009651	673.25
1144.565721	672.0
1145.121732	674.25
1145.677687	676.25
1146.233584	676.0
1146.789424	673.0
1147.345207	672.0
1147.900933	673.75
1148.456601	675.25
1149.012212	673.75
1149.567766	674.5
1150.123263	673.5
1150.678702	675.75
1151.234085	673.5
1151.78941	676.5
1152.344678	671.5
1152.899888	675.5
1153.455042	672.25
1154.010138	673.25
1154.565177	673.25
1155.120159	671.5
1155.675084	671.25
1156.229951	670.75
1156.784762	674.25
1157.339515	671.5
1157.894211	674.5
1158.44885	671.75
1159.003432	675.0
1159.557956	674.25
1160.112424	673.25
1160.666834	672.0
1161.221187	672.75
1161.775483	673.0
1162.329722	675.25
1162.883904	671.75
1163.438029	673.5
1163.992096	674.25
1164.546107	673.25
1165.10006	672.75
1165.653956	673.75
1166.207795	673.75
1166.761577	674.5
1167.315302	673.25
1167.86897	672.75
1168.422581	671.75
1168.976134	673.75
1169.529631	673.5
1170.08307	674.5
1170.636453	673.5
1171.189778	671.0
1171.743046	675.0
1172.296257	674.25
1172.849412	674.25
1173.402509	673.5
1173.955549	674.25
1174.508532	675.0
1175.061458	671.25
1175.614327	668.5
1176.167138	674.0
1176.719893	675.0
1177.272591	676.0
1177.825232	673.0
1178.377816	669.25
1178.930342	672.5
1179.482812	669.0
1180.035225	672.75
1180.587581	672.75
1181.139879	672.5
1181.692121	669.75
1182.244306	673.0
1182.796434	672.5
1183.348504	673.5
1183.900518	674.25
1184.452475	670.75
1185.004375	673.5
1185.556218	672.75
1186.108004	667.5
1186.659733	669.5
1187.211405	671.25
1187.76302	674.25
1188.314578	673.25
1188.866079	671.5
1189.417523	671.0
1189.96891	675.25
1190.520241	670.0
1191.071514	671.25
1191.622731	674.0
1192.17389	670.25
1192.724993	670.0
1193.276039	694.5
1193.827027	669.25
1194.377959	670.25
1194.928834	676.5
1195.479653	675.25
1196.030414	672.75
1196.581118	672.75
1197.131766	674.25
1197.682356	674.75
1198.23289	670.75
1198.783367	672.5
1199.333786	671.75
1199.88415	670.75
1200.434456	670.75
1200.984705	671.0
1201.534898	674.0
1202.085033	667.75
1202.635112	670.75
1203.185134	672.0
1203.735099	670.0
1204.285007	671.5
1204.834859	672.75
1205.384653	672.75
1205.934391	675.25
1206.484072	668.75
1207.033696	672.75
1207.583263	673.0
1208.132774	673.5
1208.682228	670.75
1209.231624	672.5
1209.780965	670.5
1210.330248	673.25
1210.879474	671.0
1211.428644	672.0
1213.075813	679.0
1213.624755	672.25
1214.173641	673.25
1214.72247	673.75
1215.271242	671.5
1215.819958	673.75
1216.368617	672.0
1216.917219	669.75
1217.465764	673.75
1218.014253	671.75
1218.562685	672.75
1219.11106	672.0
1219.659378	672.5
1220.20764	672.25
1220.755845	672.5
1221.303993	674.25
1221.852085	672.5
1222.400119	675.0
1222.948097	672.25
1223.496019	671.25
1224.043883	676.0
1224.591691	671.75
1225.139443	673.5
1225.687137	674.5
1226.234775	674.0
1226.782357	671.25
1227.329881	673.5
1227.877349	671.25
1228.42476	671.25
1228.972115	672.75
1229.519413	673.75
1230.066654	673.75
1230.613839	674.5
1231.160967	669.0
1231.708038	674.5
1232.255053	672.0
1232.802011	670.25
1233.348912	671.5
1233.895757	672.0
1234.442545	669.75
1234.989277	672.5
1235.535951	672.25
1236.08257	675.0
1236.629131	671.5
1237.175636	670.5
1237.722085	673.5
1238.268477	674.5
1238.814812	675.5
1239.361091	671.5
1239.907313	674.5
1240.453478	669.0
1240.999587	676.5
1241.54564	673.25
1242.091636	670.0
1242.637575	674.5
1243.183457	672.75
1243.729284	675.5
1244.275053	675.25
1244.820766	673.25
1245.366423	671.75
1245.912022	671.25
1246.457566	670.75
1247.003053	673.25
1247.548483	673.25
1248.093857	674.0
1248.639174	673.75
1249.184435	676.5
1249.729639	674.0
1250.274787	670.5
1250.819878	677.0
1251.364912	673.75
1251.909891	670.5
1252.454812	673.5
1252.999677	674.5
1253.544486	676.25
1254.089238	672.5
1254.633934	674.5
1255.178573	670.75
1255.723156	672.5
1256.267682	672.75
1256.812152	676.0
1257.356565	672.5
1257.900922	672.25
1258.445223	673.75
1258.989467	676.25
1259.533654	678.25
1260.077785	687.5
1260.62186	672.75
1261.165878	673.5
1261.70984	677.25
1262.253745	676.25
1262.797594	671.5
1263.341386	675.5
1263.885123	674.25
1264.428802	679.5
1264.972425	685.5
1265.515992	696.25
1266.059503	689.75
1266.602957	680.75
1267.146354	678.0
1267.689696	675.75
1268.23298	679.0
1268.776209	674.75
1269.319381	672.5
1269.862497	674.25
1270.405556	671.25
1270.948559	673.0
1271.491506	672.25
1272.034396	675.75
1272.57723	670.5
1273.120007	673.0
1273.662728	675.5
1274.205393	674.0
1274.748002	673.25
1275.290554	672.25
1275.83305	676.5
1276.375489	674.5
1276.917872	672.0
1277.460199	674.75
1278.00247	676.5
1278.544684	672.25
1279.086842	674.75
1279.628943	675.25
1280.170989	678.25
1280.712978	671.75
1281.25491	676.75
1281.796787	673.75
1282.338607	678.75
1282.880371	677.75
1283.422078	684.75
1283.963729	690.25
1284.505324	719.75
1285.046863	785.25
1285.588345	926.75
1286.129772	919.0
1286.671142	771.5
1287.212455	703.75
1287.753713	683.5
1288.294914	683.25
1288.836059	682.5
1289.377147	675.25
1289.91818	677.75
1290.459156	676.75
1291.000076	677.5
1291.54094	675.25
1292.081747	678.75
1292.622499	671.5
1293.163194	672.5
1293.703833	673.75
1294.244415	672.75
1294.784942	677.25
1295.325412	675.25
1295.865826	672.0
1296.406184	670.5
1296.946486	674.75
1297.486731	675.75
1298.026921	675.5
1298.567054	670.5
1299.107131	673.5
1299.647152	671.5
1300.187116	675.25
1300.727025	675.0
1301.266877	674.5
1301.806673	671.0
1302.346413	672.5
1302.886097	672.5
1303.425725	673.5
1303.965297	674.0
1304.504812	675.0
1305.044272	673.0
1305.583675	672.5
1306.123022	671.0
1306.662313	675.25
1307.201548	674.5
1307.740727	671.0
1308.279849	675.75
1308.818916	674.5
1309.357926	674.25
1309.896881	672.25
1310.435779	674.5
1310.974621	674.0
1311.513407	671.0
1312.052137	674.5
1312.590811	671.0
1313.129429	674.5
1313.667991	670.25
1314.206497	670.5
1314.744946	668.5
1315.28334	672.25
1315.821678	673.25
1316.359959	671.75
1316.898184	672.75
1317.436354	670.5
1317.974467	670.75
1318.512525	672.5
1319.050526	675.5
1319.588471	671.75
1320.12636	671.0
1320.664194	670.5
1321.201971	673.25
1321.739692	673.25
1322.277357	674.25
1322.814967	671.0
1323.35252	671.75
1323.890017	678.0
1324.427458	671.5
1324.964843	672.0
1325.502173	672.5
1326.039446	677.0
1326.576663	675.75
1327.113824	667.75
1327.65093	673.25
1328.187979	671.0
1328.724972	669.5
1329.26191	671.25
1329.798791	669.75
1330.335617	673.75
1330.872386	674.0
1331.4091	671.75
1331.945758	673.5
1332.48236	672.75
1333.018905	671.25
1333.555395	672.75
1334.091829	670.75
1334.628207	672.75
1335.164529	670.75
1335.700796	672.5
1336.237006	675.0
1336.77316	675.5
1337.309259	675.5
1337.845301	670.5
1338.381288	671.75
1338.917219	667.75
1339.453094	670.0
1339.988913	672.5
1340.524676	672.75
1341.060383	672.75
1341.596034	668.75
1342.13163	672.5
1342.66717	671.0
1343.202653	672.75
1343.738081	671.5
1344.273453	674.25
1344.80877	670.5
1345.34403	674.5
1345.879235	668.75
1346.414383	674.0
1346.949476	670.75
1347.484513	670.75
1348.019494	672.75
1348.55442	670.25
1349.089289	673.25
1349.624103	672.25
1350.158861	672.5
1350.693563	670.25
1351.228209	672.75
1351.7628	673.25
1352.297334	671.75
1352.831813	672.25
1353.366236	673.0
1353.900604	674.5
1354.434915	669.0
1354.969171	673.75
1355.503371	674.0
1356.037515	669.0
1356.571604	673.5
1357.105636	673.25
1357.639613	671.5
1358.173535	674.0
1358.7074	672.75
1359.24121	674.5
1359.774964	674.0
1360.308662	672.0
1360.842304	671.5
1361.375891	671.25
1361.909422	675.25
1362.442897	675.75
1362.976317	671.75
1363.50968	667.25
1364.042989	673.25
1364.576241	672.25
1365.109438	671.0
1365.642579	672.0
1366.175664	670.75
1366.708693	673.5
1367.241667	676.75
1367.774585	673.75
1368.307448	675.5
1368.840255	673.5
1369.373006	674.0
1369.905701	676.0
1370.438341	673.5
1370.970925	683.5
1371.503454	677.0
1372.035926	672.25
1372.568344	670.0
1373.100705	672.5
1373.633011	674.75
1374.165261	672.25
1374.697456	673.0
1375.229595	676.75
1375.761678	674.5
1376.293705	675.25
1376.825677	674.5
1377.357594	671.0
1377.889455	674.0
1378.42126	677.75
1378.953009	672.25
1379.484703	676.0
1380.016342	675.0
1380.547924	674.75
1381.079452	671.75
1381.610923	674.5
1382.142339	676.5
1382.673699	675.25
1383.205004	673.75
1383.736253	675.75
1384.267447	675.5
1384.798585	677.5
1385.329668	677.25
1385.860695	683.5
1386.391666	681.0
1386.922582	688.0
1387.453442	700.75
1387.984247	728.0
1388.514996	869.5
1389.04569	1168.0
1389.576328	1036.0
1390.10691	774.25
1390.637437	702.75
1391.167909	686.25
1391.698325	681.0
1392.228685	680.25
1392.75899	676.75
1393.28924	675.75
1393.819434	679.0
1394.349572	676.5
1394.879655	671.5
1395.409683	679.5
1395.939655	672.75
1396.469571	675.25
1396.999432	669.5
1397.529237	674.25
1398.058987	670.5
1398.588682	675.5
1399.118321	673.0
1399.647905	670.25
1400.177433	670.75
1400.706906	672.25
1401.236323	669.5
1401.765685	673.0
1402.294991	676.75
1402.824242	674.0
1403.353437	672.25
1404.411662	678.0
1404.940691	676.25
1405.469665	674.25
1405.998583	676.25
1406.527446	674.5
1407.056253	676.0
1407.585005	674.75
1408.113702	674.75
1408.642343	678.0
1409.170929	679.25
1409.69946	684.0
1410.227935	698.5
1410.756354	705.75
1411.284719	686.25
1411.813028	681.75
1412.341281	673.5
1412.869479	673.75
1413.397622	670.5
1413.92571	674.0
1414.453742	670.25
1414.981718	671.25
1415.50964	681.75
1416.037506	672.5
1416.565316	669.0
1417.093072	673.5
1417.620772	673.25
1418.148416	673.25
1418.676005	669.75
1419.203539	673.75
1419.731018	671.25
1420.258441	671.5
1420.785809	672.75
1421.313122	673.0
1421.840379	670.5
1422.367582	671.25
1422.894728	672.0
1423.42182	671.0
1423.948856	675.0
1424.475837	673.75
1425.002762	671.0
1425.529633	672.75
1426.056448	671.25
1426.583207	672.0
1427.109912	675.75
1428.689694	671.5
1429.216177	672.5
1429.742605	671.5
1430.268978	675.0
1430.795296	670.0
1431.321558	671.0
1431.847765	671.25
1432.373917	668.75
1432.900014	671.25
1433.426056	668.0
1433.952042	671.5
1434.477973	671.5
1435.003849	675.75
1435.529669	669.5
1436.055435	673.0
1436.581145	669.75
1437.1068	670.25
1437.632399	673.25
1438.157944	667.0
1438.683433	671.0
1439.208868	672.5
1439.734247	669.25
1440.25957	668.25
1440.784839	670.75
1441.310053	670.25
1441.835211	671.0
1442.360314	668.25
1442.885362	669.25
1443.410355	669.75
1443.935292	669.25
1444.460175	671.75
1444.985002	668.5
1445.509774	669.5
1446.034491	672.5
1446.559153	670.75
1447.08376	671.75
1447.608312	669.0
1448.132808	671.5
1448.65725	670.75
1449.181636	670.0
1449.705967	667.75
1450.230243	672.5
1450.754464	668.5
1451.27863	669.5
1451.802741	671.5
1452.326797	669.25
1452.850797	666.75
1453.374743	668.75
1453.898633	670.0
1454.422468	670.75
1454.946249	667.25
1455.469974	667.75
1455.993644	670.25
1456.517259	668.0
1457.040819	671.25
1457.564324	671.0
1458.087773	673.5
1458.611168	669.75
1459.134508	671.5
1459.657793	670.75
1460.181022	670.25
1460.704197	666.0
1461.227316	673.0
1461.750381	673.0
1462.27339	667.25
1462.796345	671.0
1463.319244	668.0
1463.842089	667.5
1464.364878	671.25
1464.887613	665.75
1465.410292	669.0
1465.932916	667.75
1466.455486	669.0
1466.978	668.0
1467.50046	668.25
1468.022864	669.75
1468.545214	667.5
1469.067508	669.0
1469.589748	671.5
1470.111932	670.25
1470.634062	669.75
1471.156136	671.25
1471.678156	667.0
1472.20012	668.25
1472.72203	670.75
1473.243885	666.25
1473.765685	668.0
1474.28743	668.0
1474.80912	668.75
1475.330755	670.5
1475.852335	667.75
1476.37386	668.25
1476.89533	669.5
1477.416745	667.5
1477.938106	667.25
1478.459411	671.75
1478.980662	668.5
1479.501857	668.5
1480.022998	670.0
1480.544084	668.0
1481.065115	668.0
1481.586091	669.0
1482.107012	666.75
1482.627878	668.0
1483.14869	669.75
1483.669446	666.75
1484.190148	670.0
1484.710794	671.75
1485.231386	670.5
1485.751923	669.0
1486.272406	672.25
1486.792833	666.5
1487.313205	669.75
1487.833523	669.75
1488.353786	668.5
1488.873994	668.75
1489.394147	666.75
1489.914245	668.0
1490.434288	669.5
1490.954277	671.75
1491.474211	669.75
1491.99409	670.5
1492.513914	668.25
1493.033683	669.75
1493.553398	670.25
1494.073057	673.0
1494.592662	671.0
1495.112212	669.0
1495.631708	666.5
1496.151148	667.75
1496.670534	666.5
1497.189865	667.5
1497.709141	668.5
1498.228362	669.5
1498.747529	668.5
1499.266641	666.0
1499.785698	679.5
1500.3047	666.75
1500.823648	669.0
1501.34254	667.75
1501.861379	667.0
1502.380162	669.75
1502.89889	670.5
1503.417564	670.0
1503.936183	670.0
1504.454748	667.25
1504.973257	667.75
1505.491712	668.0
1506.010112	669.0
1506.528458	671.0
1507.046748	667.75
1507.564984	671.75
1508.083166	669.0
1508.601292	667.5
1509.119364	668.5
1509.637381	668.75
1510.155344	667.5
1510.673252	676.25
1511.191105	669.75
1511.708903	668.0
1512.226647	667.75
1512.744336	670.5
1513.261971	668.75
1513.77955	665.75
1514.297076	668.5
1514.814546	670.0
1515.331962	665.0
1515.849323	670.0
1516.366629	667.75
1516.883881	668.75
1517.401078	668.0
1517.918221	668.0
1518.435309	669.75
1518.952342	667.0
1519.469321	670.0
1519.986245	668.5
1520.503114	670.75
1521.019929	668.25
1521.536689	668.5
1522.053395	670.0
1522.570046	668.0
1523.086642	670.0
1523.603184	668.0
1524.119671	666.25
1524.636103	667.5
1525.152481	668.0
1525.668805	669.75
1526.185073	667.25
1526.701288	670.0
1527.217447	669.5
1527.733552	668.25
1528.249603	670.25
1528.765599	667.75
1529.28154	668.25
1529.797427	670.25
1530.313259	667.75
1530.829037	672.0
1531.34476	670.5
1531.860429	669.75
1532.376043	666.0
1532.891602	668.75
1533.407107	666.25
1533.922558	668.0
1534.437954	666.5
1534.953295	670.25
1535.468582	670.25
1535.983815	668.25
1536.498993	667.0
1537.014116	667.25
1537.529185	667.0
1538.044199	667.75
1538.559159	668.0
1539.074064	667.25
1539.588915	671.5
1540.103712	665.75
1540.618454	669.75
1541.133141	667.25
1541.647774	668.25
1542.162353	667.0
1542.676877	668.25
1543.191346	669.5
1543.705761	671.0
1544.220122	667.5
1544.734428	669.0
1545.24868	670.5
1545.762877	669.25
1546.27702	669.0
1546.791109	669.25
1547.305143	669.0
1547.819122	666.25
1548.333047	667.0
1548.846918	669.5
1549.360734	668.25
1549.874496	666.25
1550.388204	666.5
1550.901857	668.5
1551.415455	667.0
1551.929	668.0
1552.442489	669.0
1552.955925	667.5
1553.469306	666.0
1553.982632	669.25
1554.495905	670.0
1555.009123	666.5
1555.522286	667.25
1556.035395	665.5
1556.54845	665.0
1557.06145	669.0
1557.574396	669.25
1558.087288	668.25
1558.600125	668.25
1559.112908	670.75
1559.625637	667.0
1560.138311	668.25
1560.650931	663.5
1561.163497	669.5
1561.676008	670.75
1562.188465	670.0
1562.700867	667.0
1563.213216	668.0
1563.725509	671.0
1564.237749	669.5
1564.749934	668.25
1565.262065	670.75
1565.774142	668.25
1566.286164	667.25
1566.798132	669.25
1567.310046	671.75
1567.821906	668.0
1568.333711	670.5
1568.845462	666.75
1569.357158	667.0
1569.868801	668.25
1570.380389	668.25
1570.891922	666.25
1571.403402	667.75
1571.914827	672.5
1572.426198	669.25
1572.937515	667.0
1573.448777	667.75
1573.959985	666.25
1574.471139	666.0
1574.982239	668.0
1575.493285	667.5
1576.004276	670.25
1576.515213	667.0
1577.026096	667.75
1577.536924	669.25
1578.047698	668.75
1578.558419	667.0
1579.069084	670.0
1579.579696	671.5
1580.090254	670.5
1580.600757	668.0
1581.111206	668.0
1581.621601	667.5
1582.131941	669.0
1582.642228	670.5
1583.15246	667.75
1583.662638	672.75
1584.172762	667.75
1584.682832	669.5
1585.192847	668.25
1585.702809	668.5
1586.212716	666.5
1586.722569	666.0
1587.232368	665.5
1587.742113	668.0
1588.251803	671.25
1588.76144	670.0
1589.271022	666.5
1589.78055	671.0
1590.290024	667.75
1590.799444	668.0
1591.30881	669.5
1591.818121	668.25
1592.327379	667.25
