1042.414189	4543.5
1042.980685	4545.0
1043.547124	4500.5
1044.113505	4519.75
1044.679828	4531.0
1045.246093	4500.5
1045.8123	4513.25
1046.378449	4513.25
1046.94454	4522.5
1047.510573	4489.0
1048.076548	4493.25
1048.642465	4525.0
1049.208325	4467.25
1049.774126	4485.25
1050.339869	4520.75
1050.905555	4494.25
1051.471183	4483.25
1052.036752	4483.75
1052.602264	4477.75
1053.167718	4477.75
1053.733114	4459.0
1054.298452	4499.25
1054.863733	4483.0
1055.428955	4461.75
1055.994119	4488.0
1056.559226	4446.25
1057.124275	4439.25
1057.689266	4481.5
1058.254199	4464.75
1058.819074	4452.0
1059.383891	4475.75
1059.94865	4459.75
1060.513352	4439.5
1061.077996	4467.5
1061.642582	4481.0
1062.20711	4441.25
1062.77158	4448.25
1063.335992	4434.5
1063.900347	4418.0
1064.464643	4419.0
1065.028882	4412.0
1065.593063	4443.0
1066.157187	4369.5
1066.721252	4371.0
1067.28526	4359.5
1067.84921	4432.75
1068.413102	4416.5
1068.976936	4400.5
1069.540713	4394.75
1070.104431	4423.5
1070.668092	4386.75
1071.231696	4382.75
1071.795241	4381.75
1072.358729	4360.0
1072.922159	4357.25
1073.485531	4344.75
1074.048845	4352.0
1074.612102	4406.75
1075.175301	4336.25
1075.738442	4368.25
1076.301525	4370.75
1076.864551	4359.0
1077.427519	4318.75
1077.990429	4339.75
1078.553281	4368.0
1079.116076	4366.75
1079.678813	4325.0
1080.241492	4361.0
1080.804114	4290.0
1081.366678	4314.25
1081.929184	4325.0
1082.491633	4307.0
1083.054024	4281.25
1083.616357	4317.0
1084.178632	4293.0
1084.74085	4306.5
1085.30301	4248.75
1085.865113	4277.25
1086.427158	4277.25
1086.989145	4311.0
1087.551074	4289.25
1088.112946	4296.75
1088.67476	4232.25
1089.236517	4279.75
1089.798216	4255.75
1090.359857	4260.25
1090.92144	4202.0
1091.482966	4282.5
1092.044435	4245.0
1092.605845	4206.0
1093.167199	4215.75
1093.728494	4251.75
1094.289732	4233.0
1094.850912	4237.0
1095.412035	4240.25
1095.9731	4249.25
1096.534107	4167.5
1097.095057	4241.75
1097.65595	4178.0
1098.216784	4212.75
1098.777561	4210.75
1099.338281	4205.25
1099.898943	4201.5
1100.459547	4174.75
1101.020094	4192.25
1101.580584	4174.0
1102.141015	4101.5
1102.701389	4126.25
1103.261706	4137.75
1103.821965	4159.0
1104.382167	4101.25
1104.942311	4179.25
1105.502397	4114.75
1106.062426	4146.0
1106.622398	4142.25
1107.182312	4127.0
1107.742168	4103.25
1108.301967	4139.0
1108.861708	4088.0
1109.421392	4117.25
1109.981019	4106.5
1110.540587	4162.5
1111.100099	4114.0
1111.659553	4090.0
1112.218949	4090.5
1112.778288	4086.25
1113.33757	4085.75
1113.896794	4079.25
1114.45596	4113.5
1115.015069	4098.0
1115.574121	4114.25
1116.133115	4092.0
1116.692052	4059.75
1117.250931	4066.75
1117.809753	4047.25
1118.368517	4071.5
1118.927224	4079.25
1119.485873	4050.75
1120.044465	4036.0
1120.603	4045.75
1121.161477	4054.5
1121.719897	4014.5
1122.278259	4036.5
1122.836564	4060.25
1123.394812	4034.0
1123.953002	4055.25
1124.511135	4027.0
1125.06921	4051.75
1125.627228	4016.75
1126.185189	4026.75
1126.743092	4044.5
1127.300938	4032.75
1127.858726	4006.0
1128.416457	4045.75
1128.974131	4032.0
1129.531748	4025.5
1130.089307	3995.0
1130.646808	4009.0
1131.204252	4003.75
1131.761639	4016.0
1132.318969	3977.0
1132.876241	3993.5
1133.433456	4015.5
1133.990614	3994.25
1134.547714	4000.0
1135.104757	3979.0
1135.661743	3999.75
1136.218671	4000.75
1136.775542	3981.75
1137.332356	4014.75
1137.889112	3987.0
1138.445811	3984.75
1139.002453	3982.0
1139.559037	3926.25
1140.115565	4001.5
1140.672035	3983.0
1141.228447	3984.0
1141.784803	3968.25
1142.341101	3993.5
1142.897342	3998.25
1143.453525	3946.75
1144.009651	4005.25
1144.565721	3972.5
1145.121732	3953.75
1145.677687	3950.75
1146.233584	4003.75
1146.789424	3947.25
1147.345207	3938.5
1147.900933	3948.0
1148.456601	3974.75
1149.012212	3941.25
1149.567766	3961.5
1150.123263	3975.75
1150.678702	3998.75
1151.234085	4002.75
1151.78941	3995.25
1152.344678	3954.75
1152.899888	4013.25
1153.455042	3945.5
1154.010138	3963.0
1154.565177	3962.0
1155.120159	3956.0
1155.675084	3946.5
1156.229951	3940.25
1156.784762	3967.25
1157.339515	3969.5
1157.894211	3935.25
1158.44885	3949.5
1159.003432	3972.0
1159.557956	3947.25
1160.112424	3904.5
1160.666834	3923.75
1161.221187	3936.75
1161.775483	3941.25
1162.329722	3933.5
1162.883904	3934.5
1163.438029	3927.5
1163.992096	3887.0
1164.546107	3953.75
1165.10006	3907.5
1165.653956	3962.25
1166.207795	3923.75
1166.761577	3934.5
1167.315302	3942.0
1167.86897	3911.25
1168.422581	3925.25
1168.976134	3927.75
1169.529631	3932.5
1170.08307	3946.25
1170.636453	3897.25
1171.189778	3906.25
1171.743046	3883.5
1172.296257	3902.5
1172.849412	3891.25
1173.402509	3916.0
1173.955549	3899.25
1174.508532	3885.5
1175.061458	3880.25
1175.614327	3896.25
1176.167138	3890.0
1176.719893	3860.25
1177.272591	3913.0
1177.825232	3911.5
1178.377816	3909.75
1178.930342	3887.0
1179.482812	3885.75
1180.035225	3846.5
1180.587581	3837.25
1181.139879	3851.0
1181.692121	3859.25
1182.244306	3878.5
1182.796434	3893.5
1183.348504	3825.75
1183.900518	3881.25
1184.452475	3873.0
1185.004375	3875.0
1185.556218	3877.25
1186.108004	3848.5
1186.659733	3837.0
1187.211405	3831.75
1187.76302	3830.0
1188.314578	3841.0
1188.866079	3818.25
1189.417523	3832.5
1189.96891	3833.75
1190.520241	3836.5
1191.071514	3801.25
1191.622731	3829.5
1192.17389	3851.25
1192.724993	3824.5
1193.276039	3834.75
1193.827027	3801.0
1194.377959	3833.5
1194.928834	3834.25
1195.479653	3829.5
1196.030414	3799.25
1196.581118	3824.5
1197.131766	3793.0
1197.682356	3828.75
1198.23289	3797.0
1198.783367	3803.25
1199.333786	3783.5
1199.88415	3794.75
1200.434456	3799.5
1200.984705	3803.5
1201.534898	3775.25
1202.085033	3810.75
1202.635112	3743.25
1203.185134	3813.25
1203.735099	3781.75
1204.285007	3795.25
1204.834859	3741.25
1205.384653	3770.75
1205.934391	3763.75
1206.484072	3745.25
1207.033696	3749.0
1207.583263	3737.25
1208.132774	3776.5
1208.682228	3770.75
1209.231624	3731.75
1209.780965	3749.25
1210.330248	3735.75
1210.879474	3767.5
1211.428644	3710.75
1211.977757	3729.25
1212.526813	3733.5
1213.075813	3725.75
1213.624755	3737.75
1214.173641	3722.0
1214.72247	3716.5
1215.271242	3684.75
1215.819958	3741.5
1216.368617	3747.0
1216.917219	3732.5
1217.465764	3683.0
1218.014253	3706.25
1218.562685	3689.25
1219.11106	3717.75
1219.659378	3683.25
1220.20764	3720.0
1220.755845	3663.75
1221.303993	3682.0
1221.852085	3649.75
1222.400119	3688.75
1222.948097	3646.0
1223.496019	3712.25
1224.043883	3698.25
1224.591691	3688.25
1225.139443	3646.0
1225.687137	3660.25
1226.234775	3649.75
1226.782357	3644.25
1227.329881	3677.75
1227.877349	3682.0
1228.42476	3681.75
1228.972115	3680.5
1229.519413	3647.0
1230.066654	3638.0
1230.613839	3674.5
1231.160967	3667.75
1231.708038	3634.75
1232.255053	3678.0
1232.802011	3669.5
1233.348912	3635.75
1233.895757	3664.25
1234.442545	3641.75
1234.989277	3657.75
1235.535951	3614.75
1236.08257	3641.25
1236.629131	3613.0
1237.175636	3622.75
1237.722085	3621.75
1238.268477	3640.75
1238.814812	3636.0
1239.361091	3670.25
1239.907313	3630.25
1240.453478	3596.0
1240.999587	3616.75
1241.54564	3650.0
1242.091636	3610.75
1242.637575	3614.0
1243.183457	3612.25
1243.729284	3601.0
1244.275053	3609.5
1244.820766	3597.75
1245.366423	3611.5
1245.912022	3607.75
1246.457566	3592.75
1247.003053	3620.5
1247.548483	3567.0
1248.093857	3590.25
1248.639174	3629.0
1249.184435	3576.75
1249.729639	3573.5
1250.274787	3591.25
1250.819878	3598.25
1251.364912	3579.5
1251.909891	3622.25
1252.454812	3588.0
1252.999677	3593.0
1253.544486	3545.75
1254.089238	3570.75
1254.633934	3559.75
1255.178573	3562.0
1255.723156	3562.25
1256.267682	3565.25
1256.812152	3584.0
1257.356565	3573.75
1257.900922	3567.75
1258.445223	3552.75
1258.989467	3582.25
1259.533654	3595.25
1260.077785	3571.5
1260.62186	3548.25
1261.165878	3546.25
1261.70984	3557.0
1262.253745	3571.5
1262.797594	3553.0
1263.341386	3532.75
1263.885123	3562.25
1264.428802	3556.75
1264.972425	3548.5
1265.515992	3619.25
1266.059503	3514.0
1266.602957	3548.5
1267.146354	3560.25
1267.689696	3547.75
1268.23298	3520.25
1268.776209	3540.5
1269.319381	3540.25
1269.862497	3512.75
1270.405556	3484.25
1270.948559	3563.75
1271.491506	3519.75
1272.034396	3523.75
1272.57723	3496.5
1273.120007	3494.0
1273.662728	3507.25
1274.205393	3487.0
1274.748002	3507.25
1275.290554	3534.25
1275.83305	3493.5
1276.375489	3510.25
1276.917872	3512.25
1277.460199	3497.5
1278.00247	3510.25
1278.544684	3501.75
1279.086842	3494.25
1279.628943	3495.75
1280.170989	3461.5
1280.712978	3466.0
1281.25491	3465.5
1281.796787	3449.0
1282.338607	3513.0
1282.880371	3525.25
1283.422078	3509.75
1283.963729	3496.5
1284.505324	3652.25
1285.046863	3827.0
1285.588345	4095.25
1286.129772	3825.25
1286.671142	3622.75
1287.212455	3523.0
1287.753713	3529.25
1288.294914	3466.0
1288.836059	3460.5
1289.377147	3472.25
1289.91818	3450.5
1290.459156	3449.0
1291.000076	3480.25
1291.54094	3406.75
1292.081747	3473.5
1292.622499	3451.75
1293.163194	3455.0
1293.703833	3454.5
1294.244415	3441.25
1294.784942	3439.5
1295.325412	3398.25
1295.865826	3412.5
1296.406184	3425.5
1296.946486	3436.5
1297.486731	3405.0
1298.026921	3417.5
1298.567054	3395.0
1299.107131	3390.75
1299.647152	3417.25
1300.187116	3438.25
1300.727025	3410.75
1301.266877	3384.75
1301.806673	3366.0
1302.346413	3404.75
1302.886097	3399.5
1303.425725	3396.0
1303.965297	3396.25
1304.504812	3409.5
1305.044272	3391.25
1305.583675	3390.25
1306.123022	3394.75
1306.662313	3375.75
1307.201548	3379.0
1307.740727	3359.25
1308.279849	3385.75
1308.818916	3366.5
1309.357926	3380.25
1309.896881	3371.75
1310.435779	3390.0
1310.974621	3402.25
1311.513407	3379.25
1312.052137	3347.0
1312.590811	3377.5
1313.129429	3363.0
1313.667991	3369.0
1314.206497	3345.25
1314.744946	3337.0
1315.28334	3341.75
1315.821678	3338.0
1316.359959	3343.75
1316.898184	3338.5
1317.436354	3323.5
1317.974467	3335.25
1318.512525	3361.75
1319.050526	3323.0
1319.588471	3364.5
1320.12636	3313.5
1320.664194	3348.75
1321.201971	3308.75
1321.739692	3347.0
1322.277357	3323.0
1322.814967	3347.75
1323.35252	3323.5
1323.890017	3338.5
1324.427458	3286.75
1324.964843	3312.0
1325.502173	3323.75
1326.039446	3312.25
1326.576663	3333.5
1327.113824	3319.25
1327.65093	3307.75
1328.187979	3319.25
1328.724972	3310.5
1329.26191	3315.0
1329.798791	3309.25
1330.335617	3330.75
1330.872386	3284.0
1331.4091	3260.75
1331.945758	3296.75
1332.48236	3299.75
1333.018905	3302.75
1333.555395	3268.25
1334.091829	3284.25
1334.628207	3270.5
1335.164529	3302.0
1335.700796	3280.0
1336.237006	3285.75
1336.77316	3277.25
1337.309259	3299.25
1337.845301	3297.75
1338.381288	3290.75
1338.917219	3274.0
1339.453094	3242.25
1339.988913	3286.5
1340.524676	3262.25
1341.060383	3265.5
1341.596034	3288.5
1342.13163	3262.25
1342.66717	3237.5
1343.202653	3258.75
1343.738081	3231.5
1344.273453	3276.5
1344.80877	3241.25
1345.34403	3265.75
1345.879235	3274.5
1346.414383	3267.0
1346.949476	3265.0
1347.484513	3247.25
1348.019494	3218.75
1348.55442	3251.0
1349.089289	3249.75
1349.624103	3228.0
1350.158861	3248.5
1350.693563	3265.5
1351.228209	3238.75
1351.7628	3212.25
1352.297334	3211.75
1352.831813	3220.25
1353.366236	3227.5
1353.900604	3212.0
1354.434915	3225.5
1354.969171	3243.25
1355.503371	3222.75
1356.037515	3215.0
1356.571604	3206.5
1357.105636	3187.0
1357.639613	3212.75
1358.173535	3225.75
1358.7074	3238.25
1359.24121	3212.5
1359.774964	3197.5
1360.308662	3224.25
1360.842304	3227.0
1361.375891	3211.25
1361.909422	3197.75
1362.442897	3217.75
1362.976317	3183.75
1363.50968	3244.75
1364.042989	3197.25
1364.576241	3191.75
1365.109438	3172.5
1365.642579	3188.25
1366.175664	3187.25
1366.708693	3170.25
1367.241667	3180.0
1367.774585	3187.25
1368.307448	3160.0
1368.840255	3170.5
1369.373006	3166.25
1369.905701	3180.75
1370.438341	3200.0
1370.970925	3189.5
1371.503454	3182.0
1372.035926	3188.0
1372.568344	3160.25
1373.100705	3170.0
1373.633011	3167.0
1374.165261	3148.5
1374.697456	3177.0
1375.229595	3169.25
1376.825677	3177.0
1377.357594	3131.25
1377.889455	3165.0
1378.42126	3118.25
1378.953009	3145.5
1379.484703	3153.0
1380.016342	3134.25
1380.547924	3132.25
1381.079452	3123.75
1381.610923	3170.5
1382.142339	3110.5
1382.673699	3154.75
1383.205004	3136.0
1383.736253	3143.5
1384.267447	3132.0
1384.798585	3131.25
1385.329668	3133.5
1385.860695	3168.0
1386.391666	3137.25
1386.922582	3180.5
1387.453442	3205.25
1387.984247	3340.75
1388.514996	3763.25
1389.04569	4261.75
1389.576328	3765.25
1390.10691	3272.75
1390.637437	3183.75
1391.167909	3116.25
1391.698325	3129.75
1392.228685	3118.75
1392.75899	3156.75
1393.28924	3124.25
1393.819434	3102.5
1394.349572	3138.5
1394.879655	3104.75
1395.409683	3116.25
1395.939655	3123.25
1396.469571	3073.25
1396.999432	3101.75
1397.529237	3120.75
1398.058987	3071.75
1398.588682	3131.25
1399.118321	3082.75
1399.647905	3095.5
1400.177433	3078.75
1400.706906	3098.25
1401.236323	3074.5
1401.765685	3090.0
1402.294991	3065.75
1402.824242	3120.25
1403.353437	3081.0
1403.882577	3083.5
1404.411662	3095.75
1404.940691	3083.0
1405.469665	3078.5
1405.998583	3074.5
1406.527446	3069.5
1407.056253	3087.5
1407.585005	3078.25
1408.113702	3064.75
1408.642343	3071.25
1409.170929	3099.0
1409.69946	3120.25
1410.227935	3133.0
1410.756354	3150.75
1411.284719	3055.0
1411.813028	3081.0
1412.341281	3074.0
1412.869479	3064.5
1413.397622	3065.5
1413.92571	3029.75
1414.453742	3098.0
1414.981718	3062.25
1415.50964	3074.5
1416.037506	3059.5
1416.565316	3037.0
1417.093072	3065.0
1417.620772	3063.0
1418.148416	3056.25
1418.676005	3095.5
1419.203539	3038.5
1419.731018	3056.0
1420.258441	3043.75
1420.785809	3045.25
1421.313122	3025.0
1421.840379	3034.75
1422.367582	3046.5
1422.894728	3037.0
1423.42182	3025.0
1423.948856	3022.75
1424.475837	3030.75
1425.002762	3035.25
1425.529633	3036.25
1426.056448	3019.25
1426.583207	3033.25
1427.109912	3067.75
1427.636561	3008.75
1428.163155	3003.5
1428.689694	3028.5
1429.216177	3016.5
1429.742605	3008.0
1430.268978	3033.25
1430.795296	2999.25
1431.321558	3010.0
1431.847765	3025.25
1432.373917	3008.5
1432.900014	3026.75
1433.426056	3017.75
1433.952042	3023.75
1434.477973	3033.0
1435.003849	3018.0
1435.529669	2986.0
1436.055435	3004.75
1436.581145	2995.25
1437.1068	2989.75
1437.632399	2990.0
1438.157944	2983.0
1438.683433	3000.5
1439.208868	2991.75
1439.734247	2976.75
1440.25957	2949.0
1440.784839	2984.25
1441.310053	2989.25
1441.835211	3008.5
1442.360314	2975.5
1442.885362	2999.0
1443.410355	2961.25
1443.935292	2984.0
1444.460175	3003.25
1444.985002	2961.75
1445.509774	2997.5
1446.034491	2964.25
1446.559153	2962.25
1447.08376	2956.0
1447.608312	2954.0
1448.132808	2979.75
1448.65725	2989.25
1449.181636	2935.75
1449.705967	2962.0
1450.230243	2987.0
1450.754464	2942.5
1451.27863	2969.75
1451.802741	2960.5
1452.326797	2951.0
1452.850797	2939.25
1453.374743	2913.25
1453.898633	2963.25
1454.422468	2929.0
1454.946249	2941.25
1455.469974	2953.0
1455.993644	2931.5
1456.517259	2920.25
1457.040819	2927.5
1457.564324	2949.75
1458.087773	2941.5
1458.611168	2909.25
1459.134508	2915.0
1459.657793	2907.0
1460.181022	2938.75
1460.704197	2919.75
1461.227316	2936.5
1461.750381	2917.5
1462.27339	2937.25
1462.796345	2906.5
1463.319244	2897.5
1463.842089	2900.75
1464.364878	2921.5
1464.887613	2884.0
1465.410292	2891.0
1465.932916	2900.0
1466.455486	2913.5
1466.978	2902.25
1467.50046	2872.25
1468.022864	2907.75
1468.545214	2882.25
1469.067508	2889.25
1469.589748	2873.75
1470.111932	2899.0
1470.634062	2894.25
1471.156136	2894.25
1471.678156	2899.0
1472.20012	2889.0
1472.72203	2861.75
1473.243885	2877.0
1473.765685	2898.25
1474.28743	2874.0
1474.80912	2879.0
1475.330755	2884.0
1475.852335	2883.5
1476.37386	2884.0
1476.89533	2863.75
1477.416745	2891.5
1477.938106	2888.75
1478.459411	2881.0
1478.980662	2851.75
1479.501857	2858.0
1480.022998	2853.75
1480.544084	2858.75
1481.065115	2871.5
1481.586091	2845.75
1482.107012	2872.5
1482.627878	2852.75
1483.14869	2860.25
1483.669446	2849.5
1484.190148	2873.25
1484.710794	2838.5
1485.231386	2841.75
1485.751923	2826.25
1486.272406	2850.5
1486.792833	2848.25
1487.313205	2827.0
1487.833523	2830.5
1488.353786	2835.75
1488.873994	2848.25
1489.394147	2843.25
1489.914245	2804.25
1490.434288	2800.75
1490.954277	2854.75
1491.474211	2808.0
1491.99409	2828.75
1492.513914	2849.25
1493.033683	2807.5
1493.553398	2815.0
1494.073057	2794.25
1494.592662	2803.5
1495.112212	2792.0
1495.631708	2813.5
1496.151148	2776.25
1496.670534	2825.0
1497.189865	2790.5
1497.709141	2824.25
1498.228362	2811.75
1498.747529	2794.0
1499.266641	2824.25
1499.785698	2797.25
1500.3047	2794.25
1500.823648	2768.25
1501.34254	2805.5
1501.861379	2783.5
1502.380162	2788.0
1502.89889	2795.0
1503.417564	2830.0
1503.936183	2777.75
1504.454748	2785.25
1504.973257	2787.75
1505.491712	2795.25
1506.010112	2789.5
1506.528458	2804.5
1507.046748	2803.25
1507.564984	2775.5
1508.083166	2764.0
1508.601292	2781.5
1509.119364	2768.5
1509.637381	2764.0
1510.155344	2802.0
1510.673252	2787.25
1511.191105	2758.25
1511.708903	2780.75
1512.226647	2731.25
1512.744336	2762.0
1513.261971	2767.25
1513.77955	2753.5
1514.297076	2757.75
1514.814546	2739.0
1515.331962	2759.0
1515.849323	2757.0
1516.366629	2735.0
1516.883881	2765.75
1517.401078	2773.25
1517.918221	2778.75
1518.435309	2725.5
1518.952342	2749.5
1519.469321	2753.0
1519.986245	2729.75
1520.503114	2758.5
1521.019929	2727.75
1521.536689	2745.5
1522.053395	2744.75
1522.570046	2754.75
1523.086642	2752.25
1523.603184	2738.75
1524.119671	2754.0
1524.636103	2712.5
1525.152481	2774.0
1525.668805	2728.0
1526.185073	2750.25
1526.701288	2707.5
1527.217447	2750.5
1527.733552	2743.0
1528.249603	2749.5
1528.765599	2740.75
1529.28154	2733.0
1529.797427	2733.75
1530.313259	2725.0
1530.829037	2722.75
1531.34476	2716.5
1531.860429	2725.25
1532.376043	2722.0
1532.891602	2732.5
1533.407107	2728.75
1533.922558	2717.5
1534.437954	2739.25
1534.953295	2706.5
1535.468582	2711.0
1535.983815	2751.75
1536.498993	2716.5
1537.014116	2673.75
1537.529185	2714.5
1538.044199	2728.0
1538.559159	2729.0
1539.074064	2705.75
1539.588915	2713.25
1540.103712	2698.5
1540.618454	2742.25
1541.133141	2705.0
1541.647774	2701.5
1542.162353	2724.5
1542.676877	2698.75
1543.191346	2723.0
1543.705761	2702.0
1544.220122	2723.0
1544.734428	2700.0
1545.24868	2715.5
1545.762877	2705.75
1546.27702	2699.25
1546.791109	2712.5
1547.305143	2705.0
1547.819122	2695.75
1548.333047	2694.75
1548.846918	2693.25
1549.360734	2677.5
1549.874496	2715.25
1550.388204	2689.75
1550.901857	2689.25
1551.415455	2666.5
1551.929	2677.5
1552.442489	2702.25
1552.955925	2684.25
1553.469306	2673.25
1553.982632	2683.5
1554.495905	2678.5
1555.009123	2676.25
1555.522286	2676.75
1556.035395	2675.5
1556.54845	2685.0
1557.06145	2681.5
1557.574396	2675.25
1558.087288	2656.25
1558.600125	2652.5
1559.112908	2706.0
1559.625637	2663.0
1560.138311	2699.75
1560.650931	2675.0
1561.163497	2703.5
1561.676008	2672.5
1562.188465	2672.0
1562.700867	2709.0
1563.213216	2648.75
1563.725509	2690.25
1564.237749	2641.75
1564.749934	2686.25
1565.262065	2644.75
1565.774142	2674.75
1566.286164	2643.0
1566.798132	2664.75
1567.310046	2655.0
1567.821906	2670.0
1568.333711	2683.0
1568.845462	2627.75
1569.357158	2658.5
1569.868801	2630.25
1570.380389	2660.0
1570.891922	2628.5
1571.403402	2690.75
1571.914827	2641.5
1572.426198	2617.75
1572.937515	2660.5
1573.448777	2629.5
1573.959985	2631.75
1574.471139	2624.25
1574.982239	2644.75
1575.493285	2664.75
1576.004276	2656.75
1576.515213	2647.25
1577.026096	2667.0
1577.536924	2648.25
1578.047698	2638.5
1578.558419	2644.0
1579.069084	2627.0
1579.579696	2648.0
1580.090254	2623.25
1580.600757	2630.75
1581.111206	2614.0
1581.621601	2627.5
1582.131941	2622.25
1582.642228	2634.5
1583.15246	2627.5
1583.662638	2618.75
1584.172762	2636.0
1584.682832	2584.5
1585.192847	2639.0
1585.702809	2615.0
1586.212716	2639.0
1586.722569	2619.25
1587.232368	2624.75
1587.742113	2592.25
1588.251803	2591.75
1588.76144	2609.25
1589.271022	2596.25
1589.78055	2618.75
1590.290024	2618.5
1590.799444	2635.75
1591.30881	2589.5
1591.818121	2625.0
