1042.980685	8708.25
1043.547124	8786.5
1044.113505	8754.25
1044.679828	8770.0
1045.246093	8682.25
1045.8123	8700.0
1046.378449	8711.25
1046.94454	8668.25
1047.510573	8709.5
1048.076548	8711.0
1048.642465	8717.0
1049.208325	8675.5
1049.774126	8668.0
1050.339869	8643.75
1050.905555	8688.25
1051.471183	8645.5
1052.036752	8603.0
1052.602264	8619.5
1053.167718	8616.25
1053.733114	8636.0
1054.298452	8640.0
1054.863733	8613.75
1055.428955	8614.25
1055.994119	8600.75
1056.559226	8641.75
1057.124275	8610.0
1057.689266	8645.0
1058.254199	8601.0
1058.819074	8585.5
1059.383891	8534.0
1059.94865	8577.25
1060.513352	8551.0
1061.077996	8589.5
1061.642582	8617.75
1062.20711	8578.0
1062.77158	8500.75
1063.335992	8591.75
1063.900347	8514.5
1064.464643	8488.5
1065.028882	8514.5
1065.593063	8550.0
1066.157187	8549.5
1066.721252	8586.75
1067.28526	8502.0
1067.84921	8550.5
1068.413102	8455.5
1068.976936	8423.0
1069.540713	8424.0
1070.104431	8515.25
1070.668092	8407.75
1071.231696	8437.25
1071.795241	8419.5
1072.358729	8425.5
1072.922159	8390.75
1073.485531	8421.0
1074.048845	8333.5
1074.612102	8383.0
1075.175301	8389.0
1075.738442	8374.5
1076.301525	8336.25
1076.864551	8377.75
1077.427519	8361.25
1077.990429	8365.0
1078.553281	8331.25
1079.116076	8380.5
1079.678813	8271.0
1080.241492	8373.0
1080.804114	8280.25
1081.366678	8296.5
1081.929184	8226.0
1082.491633	8341.25
1083.054024	8198.5
1083.616357	8263.5
1084.178632	8222.0
1084.74085	8241.75
1085.30301	8207.75
1085.865113	8257.25
1086.427158	8162.5
1086.989145	8254.0
1087.551074	8173.75
1088.112946	8221.75
1088.67476	8168.25
1089.236517	8114.0
1089.798216	8145.75
1090.359857	8178.5
1090.92144	8143.0
1091.482966	8128.0
1092.044435	8065.0
1092.605845	8184.25
1093.167199	8101.75
1093.728494	8106.75
1094.289732	8075.25
1094.850912	8106.0
1095.412035	8008.0
1095.9731	8057.5
1096.534107	8004.5
1097.095057	8077.5
1097.65595	8003.75
1098.216784	8048.75
1098.777561	8009.25
1099.338281	7991.75
1099.898943	8005.75
1100.459547	8001.5
1101.020094	7910.75
1101.580584	7949.25
1102.141015	7930.0
1102.701389	7962.5
1103.261706	7961.25
1103.821965	7958.25
1104.382167	7936.0
1104.942311	7951.0
1105.502397	7862.0
1106.062426	7880.75
1106.622398	7861.0
1107.182312	7856.0
1107.742168	7854.75
1108.301967	7849.75
1108.861708	7767.5
1109.421392	7819.25
1109.981019	7795.75
1110.540587	7880.5
1111.100099	7825.5
1111.659553	7812.75
1112.218949	7748.25
1112.778288	7797.5
1113.33757	7765.25
1113.896794	7736.0
1114.45596	7759.5
1115.015069	7801.25
1115.574121	7746.0
1116.133115	7737.0
1116.692052	7707.5
1117.250931	7701.25
1117.809753	7674.0
1118.368517	7697.0
1118.927224	7692.5
1119.485873	7751.25
1120.044465	7672.25
1120.603	7681.0
1121.161477	7714.75
1121.719897	7703.5
1122.278259	7662.5
1122.836564	7644.75
1123.394812	7603.0
1123.953002	7646.25
1124.511135	7658.75
1125.06921	7666.75
1125.627228	7634.75
1126.185189	7615.5
1126.743092	7660.5
1127.300938	7629.0
1127.858726	7638.0
1128.416457	7642.25
1128.974131	7593.25
1129.531748	7643.75
1130.089307	7563.25
1130.646808	7568.5
1131.204252	7549.0
1131.761639	7605.5
1132.318969	7575.5
1132.876241	7580.5
1133.433456	7553.5
1133.990614	7595.75
1134.547714	7535.75
1135.104757	7584.0
1135.661743	7535.5
1136.218671	7564.75
1136.775542	7542.0
1137.332356	7615.0
1137.889112	7606.0
1138.445811	7597.0
1139.002453	7549.5
1139.559037	7568.5
1140.115565	7558.5
1140.672035	7561.5
1141.228447	7564.75
1141.784803	7550.5
1142.341101	7509.25
1142.897342	7554.75
1143.453525	7503.25
1144.009651	7549.25
1144.565721	7536.0
1145.121732	7521.25
1145.677687	7510.0
1146.233584	7517.0
1146.789424	7479.0
1147.345207	7473.5
1147.900933	7496.5
1148.456601	7471.75
1149.012212	7501.75
1149.567766	7538.0
1150.123263	7510.75
1150.678702	7504.5
1151.234085	7554.25
1151.78941	7504.25
1152.344678	7488.0
1152.899888	7478.25
1153.455042	7460.0
1154.010138	7492.0
1154.565177	7455.25
1155.120159	7480.0
1155.675084	7429.5
1156.229951	7475.25
1156.784762	7456.0
1157.339515	7468.0
1157.894211	7496.0
1158.44885	7470.75
1159.003432	7413.75
1159.557956	7463.5
1160.112424	7435.75
1160.666834	7404.75
1161.221187	7402.25
1161.775483	7454.5
1162.329722	7461.25
1162.883904	7421.5
1163.438029	7413.75
1163.992096	7367.0
1164.546107	7406.0
1165.10006	7421.25
1165.653956	7388.5
1166.207795	7423.25
1166.761577	7390.25
1167.315302	7401.0
1167.86897	7384.0
1168.422581	7389.75
1168.976134	7400.75
1169.529631	7358.5
1170.08307	7420.5
1170.636453	7354.0
1171.189778	7362.75
1171.743046	7288.25
1172.296257	7358.0
1172.849412	7337.75
1173.402509	7403.5
1173.955549	7347.25
1174.508532	7318.75
1175.061458	7305.0
1175.614327	7364.0
1176.167138	7303.25
1176.719893	7317.5
1177.272591	7329.5
1177.825232	7347.5
1178.377816	7324.25
1178.930342	7269.5
1179.482812	7275.75
1180.035225	7289.75
1180.587581	7274.5
1181.139879	7279.75
1181.692121	7270.0
1182.244306	7264.0
1182.796434	7223.0
1183.348504	7207.25
1183.900518	7308.75
1184.452475	7237.5
1185.004375	7212.25
1185.556218	7182.25
1186.108004	7184.5
1186.659733	7244.0
1187.211405	7240.25
1187.76302	7175.75
1188.314578	7241.0
1188.866079	7155.5
1189.417523	7215.5
1189.96891	7171.0
1190.520241	7161.25
1191.071514	7157.75
1191.622731	7205.5
1192.17389	7182.25
1192.724993	7193.25
1193.276039	7172.0
1193.827027	7145.25
1194.377959	7123.5
1194.928834	7152.25
1195.479653	7093.0
1196.030414	7111.25
1196.581118	7139.0
1197.131766	7117.25
1197.682356	7124.0
1198.23289	7134.25
1198.783367	7071.5
1199.333786	7098.5
1199.88415	7086.25
1200.434456	7059.75
1200.984705	7012.25
1201.534898	7057.75
1202.085033	7079.0
1202.635112	7062.0
1203.185134	7035.25
1203.735099	7080.0
1204.285007	7025.0
1204.834859	7036.0
1205.384653	7067.75
1205.934391	7014.0
1206.484072	7064.75
1207.033696	7017.0
1207.583263	7025.0
1208.132774	6956.75
1208.682228	6954.0
1209.231624	6980.75
1209.780965	6963.5
1210.330248	6953.75
1210.879474	6959.0
1211.428644	6926.25
1211.977757	6976.0
1212.526813	6942.0
1213.075813	6917.25
1213.624755	6950.5
1214.173641	6914.75
1214.72247	6948.75
1215.271242	6924.75
1215.819958	6962.5
1216.368617	6884.0
1216.917219	6915.0
1217.465764	6860.25
1218.014253	6890.75
1218.562685	6899.0
1219.11106	6913.75
1219.659378	6881.5
1220.20764	6910.5
1220.755845	6820.25
1221.303993	6872.5
1221.852085	6840.5
1222.400119	6862.0
1222.948097	6809.0
1223.496019	6872.0
1224.043883	6786.25
1224.591691	6892.25
1225.139443	6818.0
1225.687137	6780.75
1226.234775	6780.75
1226.782357	6803.5
1227.329881	6783.25
1227.877349	6798.5
1228.42476	6787.25
1228.972115	6782.25
1229.519413	6791.5
1230.066654	6764.0
1230.613839	6851.25
1231.160967	6773.0
1231.708038	6784.25
1232.255053	6753.25
1232.802011	6743.25
1233.348912	6751.75
1233.895757	6782.75
1234.442545	6743.5
1234.989277	6729.25
1235.535951	6695.5
1236.08257	6768.75
1236.629131	6701.5
1237.175636	6746.0
1237.722085	6717.5
1238.268477	6746.75
1238.814812	6690.5
1239.361091	6741.75
1239.907313	6692.25
1240.453478	6722.75
1240.999587	6713.25
1241.54564	6702.75
1242.091636	6697.75
1242.637575	6681.5
1243.183457	6654.5
1243.729284	6715.0
1244.275053	6658.0
1244.820766	6692.0
1245.366423	6662.75
1245.912022	6672.5
1246.457566	6680.5
1247.003053	6681.0
1247.548483	6628.0
1248.093857	6593.5
1248.639174	6650.25
1249.184435	6637.25
1249.729639	6664.5
1250.274787	6629.75
1250.819878	6664.0
1251.364912	6613.25
1251.909891	6668.25
1252.454812	6614.0
1252.999677	6640.5
1253.544486	6597.75
1254.089238	6609.0
1254.633934	6568.25
1255.178573	6585.25
1255.723156	6522.0
1256.267682	6598.75
1256.812152	6544.5
1257.356565	6563.0
1257.900922	6546.75
1258.445223	6565.75
1258.989467	6534.75
1259.533654	6538.0
1260.077785	6587.5
1260.62186	6576.0
1261.165878	6554.75
1261.70984	6538.75
1262.253745	6514.5
1262.797594	6516.25
1263.341386	6523.75
1263.885123	6490.5
1264.428802	6581.25
1264.972425	6568.0
1265.515992	6521.5
1266.059503	6496.25
1266.602957	6520.75
1267.146354	6501.75
1267.689696	6541.5
1268.23298	6492.25
1268.776209	6495.0
1269.319381	6483.75
1269.862497	6509.25
1270.405556	6467.75
1270.948559	6477.5
1271.491506	6421.25
1272.034396	6438.25
1272.57723	6445.0
1273.120007	6475.75
1273.662728	6475.75
1274.205393	6404.75
1274.748002	6432.75
1275.290554	6414.75
1275.83305	6464.5
1276.375489	6436.5
1276.917872	6425.75
1277.460199	6422.25
1278.00247	6404.0
1278.544684	6404.25
1279.086842	6440.25
1279.628943	6383.25
1280.170989	6403.25
1280.712978	6395.75
1281.25491	6439.75
1281.796787	6384.0
1282.338607	6323.5
1282.880371	6349.25
1283.422078	6414.5
1283.963729	6386.0
1284.505324	6504.5
1285.046863	6611.5
1285.588345	6832.25
1286.129772	6622.5
1286.671142	6431.5
1287.212455	6351.25
1287.753713	6377.25
1288.294914	6377.25
1288.836059	6351.75
1289.377147	6328.25
1289.91818	6331.75
1290.459156	6279.75
1291.000076	6312.75
1291.54094	6321.75
1292.081747	6286.25
1292.622499	6265.75
1293.163194	6278.5
1293.703833	6315.75
1294.244415	6215.75
1294.784942	6308.0
1295.325412	6262.0
1295.865826	6284.25
1296.406184	6218.25
1296.946486	6261.25
1297.486731	6232.0
1298.026921	6258.75
1298.567054	6235.5
1299.107131	6240.5
1299.647152	6249.0
1300.187116	6290.25
1300.727025	6201.25
1301.266877	6226.5
1301.806673	6208.75
1302.346413	6207.0
1302.886097	6181.75
1303.425725	6234.25
1303.965297	6164.25
1304.504812	6183.0
1305.044272	6173.0
1305.583675	6217.25
1306.123022	6256.25
1306.662313	6173.0
1307.201548	6131.0
1307.740727	6135.5
1308.279849	6187.25
1308.818916	6150.5
1309.357926	6201.0
1309.896881	6193.25
1310.435779	6210.75
1310.974621	6079.0
1311.513407	6113.75
1312.052137	6118.5
1312.590811	6147.5
1313.129429	6110.5
1313.667991	6156.75
1314.206497	6084.75
1314.744946	6154.5
1315.28334	6123.5
1315.821678	6116.0
1316.359959	6094.0
1316.898184	6117.0
1317.436354	6096.25
1317.974467	6063.25
1318.512525	6070.0
1319.050526	6069.5
1319.588471	6071.25
1320.12636	6062.75
1320.664194	6058.75
1321.201971	6030.25
1321.739692	6117.0
1322.277357	6047.0
1322.814967	6041.5
1323.35252	6036.25
1323.890017	6071.75
1324.427458	6006.75
1324.964843	6074.75
1325.502173	6051.0
1326.039446	6000.5
1326.576663	6022.75
1327.113824	5991.5
1327.65093	6011.75
1328.187979	5993.75
1328.724972	6020.0
1329.26191	5947.5
1329.798791	6002.75
1330.335617	5975.25
1330.872386	5988.0
1331.4091	5993.5
1331.945758	6002.25
1332.48236	5974.5
1333.018905	5968.25
1333.555395	5955.25
1334.091829	5998.5
1334.628207	5948.5
1335.164529	5947.25
1335.700796	5911.5
1336.237006	5976.5
1336.77316	5900.5
1337.309259	5983.25
1337.845301	5961.0
1338.381288	5941.0
1338.917219	5937.5
1339.453094	5930.75
1339.988913	5905.75
1340.524676	5929.75
1341.060383	5914.75
1341.596034	5918.0
1342.13163	5899.0
1342.66717	5903.5
1343.202653	5945.75
1343.738081	5899.25
1344.273453	5932.75
1344.80877	5849.25
1345.34403	5889.5
1345.879235	5830.75
1346.414383	5897.25
1346.949476	5866.5
1347.484513	5872.75
1348.019494	5884.25
1348.55442	5861.5
1349.089289	5851.25
1349.624103	5851.5
1350.158861	5891.0
1350.693563	5885.5
1351.228209	5855.25
1351.7628	5837.0
1352.297334	5855.25
1352.831813	5855.5
1353.366236	5851.5
1353.900604	5790.25
1354.434915	5830.75
1354.969171	5801.75
1355.503371	5822.0
1356.037515	5807.25
1356.571604	5822.0
1357.105636	5794.75
1357.639613	5812.5
1358.173535	5762.0
1358.7074	5822.25
1359.24121	5771.5
1359.774964	5772.5
1360.308662	5789.25
1360.842304	5758.5
1361.375891	5802.5
1361.909422	5702.5
1362.442897	5754.0
1362.976317	5790.25
1363.50968	5753.0
1364.042989	5766.75
1364.576241	5779.75
1365.109438	5765.5
1365.642579	5783.75
1366.175664	5738.75
1366.708693	5794.0
1367.241667	5722.75
1367.774585	5745.25
1368.307448	5751.0
1368.840255	5694.5
1369.373006	5682.0
1369.905701	5708.25
1370.438341	5708.5
1370.970925	5704.5
1371.503454	5718.25
1372.035926	5702.75
1372.568344	5707.75
1373.100705	5673.25
1373.633011	5679.0
1374.165261	5656.25
1374.697456	5706.25
1375.229595	5662.5
1375.761678	5667.75
1376.293705	5670.25
1376.825677	5693.0
1377.357594	5652.25
1377.889455	5691.5
1378.42126	5638.0
1378.953009	5646.0
1379.484703	5676.0
1380.016342	5629.25
1380.547924	5645.0
1381.079452	5646.5
1381.610923	5681.0
1382.142339	5601.5
1382.673699	5657.25
1383.205004	5639.5
1383.736253	5665.5
1384.267447	5612.25
1384.798585	5613.75
1385.329668	5590.5
1385.860695	5621.5
1386.391666	5611.5
1386.922582	5649.5
1387.453442	5651.0
1387.984247	5777.25
1388.514996	6013.75
1389.04569	6394.0
1389.576328	6050.25
1390.10691	5732.0
1390.637437	5665.25
1391.167909	5594.75
1391.698325	5606.0
1392.228685	5569.25
1392.75899	5600.75
1393.28924	5530.5
1393.819434	5568.0
1394.349572	5525.75
1394.879655	5612.0
1395.409683	5588.25
1395.939655	5587.25
1396.469571	5542.0
1396.999432	5545.5
1397.529237	5534.5
1398.058987	5527.25
1398.588682	5570.75
1399.118321	5501.75
1399.647905	5558.5
1400.177433	5551.0
1400.706906	5543.75
1401.236323	5500.25
1401.765685	5528.5
1402.294991	5535.0
1402.824242	5535.75
1403.353437	5512.5
1403.882577	5540.5
1404.411662	5530.5
1404.940691	5526.75
1405.469665	5527.5
1405.998583	5503.75
1406.527446	5471.75
1407.056253	5488.25
1407.585005	5549.25
1408.113702	5522.75
1408.642343	5543.25
1409.170929	5514.0
1409.69946	5527.75
1410.227935	5518.0
1410.756354	5537.75
1411.284719	5509.0
1411.813028	5529.75
1412.341281	5466.25
1412.869479	5439.75
1413.397622	5482.75
1413.92571	5512.0
1414.453742	5484.0
1414.981718	5493.25
1415.50964	5439.75
1416.037506	5432.5
1416.565316	5484.25
1417.093072	5466.0
1417.620772	5461.5
1418.148416	5421.75
1418.676005	5474.25
1419.203539	5404.0
1419.731018	5471.5
1420.258441	5443.0
1420.785809	5476.5
1421.313122	5468.25
1421.840379	5440.0
1422.367582	5440.25
1422.894728	5443.75
1423.42182	5383.0
1423.948856	5434.0
1424.475837	5439.25
1425.002762	5446.75
1425.529633	5411.25
1426.056448	5423.75
1426.583207	5417.5
1427.109912	5401.0
1427.636561	5424.25
1428.163155	5430.0
1428.689694	5368.25
1429.216177	5366.75
1429.742605	5395.75
1430.268978	5381.75
1430.795296	5367.0
1431.321558	5361.5
1431.847765	5394.75
1432.373917	5353.25
1432.900014	5366.75
1433.426056	5346.0
1433.952042	5342.5
1434.477973	5351.5
1435.003849	5342.5
1435.529669	5381.5
1436.055435	5332.25
1436.581145	5346.0
1437.1068	5335.25
1437.632399	5305.25
1438.157944	5345.0
1438.683433	5331.5
1439.208868	5312.25
1439.734247	5312.75
1440.25957	5327.75
1440.784839	5358.0
1441.310053	5344.5
1441.835211	5339.0
1442.360314	5306.0
1442.885362	5325.5
1443.410355	5324.25
1443.935292	5317.5
1444.460175	5302.5
1444.985002	5322.0
1445.509774	5277.75
1446.034491	5282.0
1446.559153	5283.75
1447.08376	5261.25
1447.608312	5274.25
1448.132808	5267.25
1448.65725	5302.25
1449.181636	5247.75
1449.705967	5266.0
1450.230243	5262.25
1450.754464	5214.75
1451.27863	5333.5
1451.802741	5291.5
1452.326797	5260.5
1452.850797	5242.25
1453.374743	5220.75
1453.898633	5259.5
1454.422468	5256.0
1454.946249	5249.25
1455.469974	5231.5
1455.993644	5257.0
1456.517259	5234.75
1457.040819	5236.0
1457.564324	5252.25
1458.087773	5256.0
1458.611168	5226.25
1459.134508	5198.5
1459.657793	5240.5
1460.181022	5237.75
1460.704197	5224.25
1461.227316	5211.5
1461.750381	5208.75
1462.27339	5187.25
1462.796345	5195.75
1463.319244	5184.75
1463.842089	5188.5
1464.364878	5192.0
1464.887613	5192.75
1465.410292	5197.0
1465.932916	5170.25
1466.455486	5160.5
1466.978	5160.25
1467.50046	5159.0
1468.022864	5193.75
1468.545214	5179.25
1469.067508	5132.5
1469.589748	5149.0
1470.111932	5158.0
1470.634062	5153.75
1471.156136	5113.5
1471.678156	5150.5
1472.20012	5124.25
1472.72203	5117.5
1473.243885	5142.75
1473.765685	5119.25
1474.28743	5110.0
1474.80912	5120.0
1475.330755	5096.5
1475.852335	5131.5
1476.37386	5098.5
1476.89533	5115.25
1477.416745	5109.5
1477.938106	5106.75
1478.459411	5071.75
1478.980662	5067.0
1479.501857	5096.0
1480.022998	5060.0
1480.544084	5093.5
1481.065115	5061.0
1481.586091	5032.25
1482.107012	5031.75
1482.627878	5055.25
1483.14869	5064.5
1483.669446	5042.75
1484.190148	5067.25
1484.710794	5029.0
1485.231386	5045.25
1485.751923	5023.5
1486.272406	5026.5
1486.792833	5026.5
1487.313205	5037.5
1487.833523	5012.25
1488.353786	4985.0
1488.873994	5009.75
1489.394147	5016.5
1489.914245	5029.75
1490.434288	4968.25
1490.954277	5048.0
1491.474211	5025.5
1491.99409	4996.75
1492.513914	4987.75
1493.033683	5021.75
1493.553398	4974.75
1494.073057	4984.75
1494.592662	4986.25
1495.112212	4946.75
1495.631708	4991.5
1496.151148	4991.0
1496.670534	4976.0
1497.189865	4997.75
1497.709141	4972.5
1498.228362	4964.25
1498.747529	5003.25
1499.266641	4990.0
1499.785698	4985.75
1500.3047	4985.25
1500.823648	4911.5
1501.34254	4946.75
1501.861379	4956.0
1502.380162	4956.0
1502.89889	4954.75
1503.417564	4933.25
1503.936183	4929.5
1504.454748	4926.75
1504.973257	4984.0
1505.491712	4943.75
1506.010112	4918.75
1506.528458	4914.0
1507.046748	4935.25
1507.564984	4878.75
1508.083166	4948.75
1508.601292	4927.25
1509.119364	4892.0
1509.637381	4900.75
1510.155344	4902.0
1510.673252	4875.0
1511.191105	4891.5
1511.708903	4907.0
1512.226647	4891.0
1512.744336	4904.75
1513.261971	4889.5
1513.77955	4922.0
1514.297076	4881.25
1514.814546	4891.5
1515.331962	4907.25
1515.849323	4895.25
1516.366629	4875.75
1516.883881	4867.75
1517.401078	4871.25
1517.918221	4896.0
1518.435309	4867.25
1518.952342	4854.75
1519.469321	4883.75
1519.986245	4840.0
1520.503114	4888.25
1521.019929	4861.5
1521.536689	4842.25
1522.053395	4829.0
1522.570046	4805.0
1523.086642	4866.25
1523.603184	4859.75
1524.119671	4883.5
1524.636103	4859.75
1525.152481	4877.5
1525.668805	4813.5
1526.185073	4871.5
1526.701288	4842.75
1527.217447	4873.5
1527.733552	4846.5
1528.249603	4861.5
1528.765599	4870.25
1529.28154	4842.75
1529.797427	4817.5
1530.313259	4847.75
1530.829037	4894.5
1531.34476	4834.0
1531.860429	4854.25
1532.376043	4815.25
1532.891602	4885.5
1533.407107	4821.25
1533.922558	4812.5
1534.437954	4851.75
1534.953295	4810.75
1535.468582	4782.0
1535.983815	4819.25
1536.498993	4822.5
1537.014116	4811.5
1537.529185	4832.75
1538.044199	4810.5
1538.559159	4838.0
1539.074064	4790.25
1539.588915	4783.25
1540.103712	4778.75
1540.618454	4775.75
1541.133141	4826.75
1541.647774	4800.5
1542.162353	4825.25
1542.676877	4781.5
1543.191346	4823.0
1543.705761	4777.5
1544.220122	4807.25
1544.734428	4767.25
1545.24868	4776.5
1545.762877	4715.5
1546.27702	4773.5
1546.791109	4780.75
1547.305143	4766.0
1547.819122	4761.0
1548.333047	4749.25
1548.846918	4773.5
1549.360734	4738.25
1549.874496	4772.0
1550.388204	4745.5
1550.901857	4792.25
1551.415455	4752.25
1551.929	4752.5
1552.442489	4770.5
1552.955925	4709.25
1553.469306	4748.75
1553.982632	4726.5
1554.495905	4775.5
1555.009123	4742.5
1555.522286	4763.5
1556.035395	4772.0
1556.54845	4765.5
1557.06145	4785.0
1557.574396	4758.75
1558.087288	4774.5
1558.600125	4744.75
1559.112908	4781.0
1559.625637	4705.25
1560.138311	4760.0
1560.650931	4751.5
1561.163497	4756.5
1561.676008	4707.75
1562.188465	4730.0
1562.700867	4744.75
1563.213216	4722.0
1563.725509	4752.75
1564.237749	4702.0
1564.749934	4737.25
1565.262065	4673.75
1565.774142	4723.0
1566.286164	4677.0
1566.798132	4720.0
1567.310046	4704.5
1567.821906	4706.75
1568.333711	4699.25
1568.845462	4672.0
1569.357158	4707.5
1569.868801	4684.5
1570.380389	4727.0
1570.891922	4721.75
1571.403402	4756.0
1571.914827	4674.25
1572.426198	4691.0
1572.937515	4711.75
1573.448777	4672.25
1573.959985	4727.75
1574.471139	4657.75
1574.982239	4699.25
1575.493285	4650.5
1576.004276	4702.25
1576.515213	4656.0
1577.026096	4682.5
1577.536924	4673.25
1578.047698	4669.5
1578.558419	4674.0
1579.069084	4631.0
1579.579696	4710.75
1580.090254	4612.75
1580.600757	4670.25
1581.111206	4577.75
1581.621601	4679.0
1582.131941	4620.0
1582.642228	4658.25
1583.15246	4625.5
1583.662638	4626.75
1584.172762	4634.0
1584.682832	4617.5
1585.192847	4639.5
1585.702809	4621.75
1586.212716	4643.25
1586.722569	4605.25
1587.232368	4675.25
1587.742113	4634.5
1588.251803	4630.5
1588.76144	4653.25
1589.271022	4627.75
1589.78055	4623.25
1590.290024	4607.5
1590.799444	4655.5
1591.30881	4585.0
1591.818121	4648.25
