1042.414189	4292.25
1042.980685	4291.25
1043.547124	4293.0
1044.113505	4315.75
1044.679828	4288.25
1045.246093	4293.5
1045.8123	4282.0
1046.378449	4286.75
1046.94454	4253.5
1047.510573	4247.25
1048.076548	4288.5
1048.642465	4270.25
1049.208325	4278.75
1049.774126	4286.0
1050.339869	4295.75
1050.905555	4254.75
1051.471183	4246.25
1052.036752	4254.5
1052.602264	4249.25
1053.167718	4256.0
1053.733114	4238.0
1054.298452	4251.75
1054.863733	4245.75
1055.428955	4193.25
1055.994119	4235.5
1056.559226	4239.5
1057.124275	4202.5
1057.689266	4276.0
1058.254199	4228.75
1058.819074	4231.0
1059.383891	4232.0
1059.94865	4227.25
1060.513352	4174.0
1061.077996	4242.0
1061.642582	4186.5
1062.20711	4234.5
1062.77158	4190.0
1063.335992	4210.75
1063.900347	4163.0
1064.464643	4185.25
1065.028882	4186.25
1065.593063	4202.25
1066.157187	4176.75
1066.721252	4174.25
1067.28526	4190.25
1067.84921	4169.75
1068.413102	4171.0
1068.976936	4179.25
1069.540713	4177.0
1070.104431	4201.0
1070.668092	4135.75
1071.231696	4179.25
1071.795241	4177.25
1072.358729	4175.0
1072.922159	4128.5
1073.485531	4156.5
1074.048845	4096.5
1074.612102	4152.25
1075.175301	4113.5
1075.738442	4109.75
1076.301525	4108.75
1076.864551	4099.75
1077.427519	4115.0
1077.990429	4145.5
1078.553281	4092.5
1079.116076	4099.25
1079.678813	4087.75
1080.241492	4133.25
1080.804114	4078.0
1081.366678	4068.0
1081.929184	4077.0
1082.491633	4045.75
1083.054024	4077.5
1083.616357	4081.5
1084.178632	4049.75
1084.74085	4075.25
1085.30301	4038.0
1085.865113	4070.0
1086.427158	4022.75
1086.989145	4051.5
1087.551074	4038.75
1088.112946	4074.0
1088.67476	4021.75
1089.236517	4018.0
1089.798216	3992.75
1090.359857	3994.0
1090.92144	4002.5
1091.482966	4021.25
1092.044435	4011.75
1092.605845	3991.5
1093.167199	3984.5
1093.728494	4035.25
1094.289732	3997.75
1094.850912	4028.0
1095.412035	3973.75
1095.9731	3962.0
1096.534107	3929.75
1097.095057	4003.75
1097.65595	4001.5
1098.216784	3951.25
1098.777561	3950.25
1099.338281	3974.75
1099.898943	3944.5
1100.459547	3947.25
1101.020094	3953.0
1101.580584	3943.5
1102.141015	3942.0
1102.701389	3918.0
1103.261706	3933.0
1103.821965	3925.75
1104.382167	3925.0
1104.942311	3950.75
1105.502397	3920.25
1106.062426	3894.25
1106.622398	3920.5
1107.182312	3931.75
1107.742168	3883.5
1108.301967	3882.5
1108.861708	3856.75
1109.421392	3875.75
1109.981019	3878.5
1110.540587	3864.5
1111.100099	3894.0
1111.659553	3872.5
1112.218949	3881.0
1112.778288	3864.75
1113.33757	3834.5
1113.896794	3850.25
1114.45596	3854.0
1115.015069	3851.0
1115.574121	3862.0
1116.133115	3859.5
1116.692052	3842.75
1117.250931	3856.25
1117.809753	3845.75
1118.368517	3821.75
1118.927224	3829.5
1119.485873	3826.75
1120.044465	3828.5
1120.603	3810.5
1121.161477	3827.75
1121.719897	3817.25
1122.278259	3783.75
1122.836564	3788.75
1123.394812	3815.25
1123.953002	3841.0
1124.511135	3788.25
1125.06921	3832.0
1125.627228	3766.0
1126.185189	3812.75
1126.743092	3801.25
1127.300938	3772.25
1127.858726	3793.25
1128.416457	3787.75
1128.974131	3805.25
1129.531748	3801.5
1130.089307	3787.75
1130.646808	3786.0
1131.204252	3801.25
1131.761639	3783.25
1132.318969	3768.75
1132.876241	3770.25
1133.433456	3747.0
1133.990614	3801.0
1134.547714	3793.25
1135.104757	3771.0
1135.661743	3810.75
1136.218671	3775.75
1136.775542	3753.75
1137.332356	3779.0
1137.889112	3775.5
1138.445811	3753.5
1139.002453	3784.25
1139.559037	3765.5
1140.115565	3801.75
1140.672035	3743.75
1141.228447	3751.25
1141.784803	3765.0
1142.341101	3773.0
1142.897342	3737.0
1143.453525	3709.5
1144.009651	3745.5
1144.565721	3737.5
1145.121732	3758.75
1145.677687	3733.5
1146.233584	3739.5
1146.789424	3768.75
1147.345207	3754.5
1147.900933	3733.75
1148.456601	3711.75
1149.012212	3695.0
1149.567766	3762.75
1150.123263	3735.75
1150.678702	3744.0
1151.234085	3782.0
1151.78941	3753.5
1152.344678	3744.5
1152.899888	3766.75
1153.455042	3736.75
1154.010138	3735.25
1154.565177	3710.75
1155.120159	3734.25
1155.675084	3717.75
1156.229951	3746.75
1156.784762	3748.75
1157.339515	3731.25
1157.894211	3720.0
1158.44885	3709.5
1159.003432	3727.75
1159.557956	3718.25
1160.112424	3741.0
1160.666834	3693.0
1161.221187	3701.75
1161.775483	3738.25
1162.329722	3719.25
1162.883904	3720.75
1163.438029	3709.5
1163.992096	3695.0
1164.546107	3709.5
1165.10006	3692.75
1165.653956	3705.5
1166.207795	3710.25
1166.761577	3686.25
1167.315302	3699.75
1167.86897	3707.75
1168.422581	3704.0
1168.976134	3693.0
1169.529631	3685.75
1170.08307	3676.25
1170.636453	3691.25
1171.189778	3674.75
1171.743046	3671.0
1172.296257	3707.25
1172.849412	3686.75
1173.402509	3660.5
1173.955549	3677.25
1174.508532	3657.25
1175.061458	3652.75
1175.614327	3693.75
1176.167138	3665.25
1176.719893	3641.75
1177.272591	3692.25
1177.825232	3672.0
1178.377816	3658.5
1178.930342	3654.25
1179.482812	3662.5
1180.035225	3660.75
1180.587581	3653.25
1181.139879	3630.25
1181.692121	3626.0
1182.244306	3650.25
1182.796434	3635.0
1183.348504	3650.0
1183.900518	3637.5
1184.452475	3614.25
1185.004375	3628.75
1185.556218	3620.75
1186.108004	3611.0
1186.659733	3600.25
1187.211405	3625.25
1187.76302	3599.75
1188.314578	3594.75
1188.866079	3612.75
1189.417523	3609.25
1189.96891	3639.25
1190.520241	3585.5
1191.071514	3620.5
1191.622731	3597.25
1192.17389	3607.0
1192.724993	3595.0
1193.276039	3621.5
1193.827027	3609.75
1194.377959	3564.5
1194.928834	3583.5
1195.479653	3566.25
1196.030414	3564.75
1196.581118	3577.75
1197.131766	3588.0
1197.682356	3575.0
1198.23289	3561.5
1198.783367	3560.5
1199.333786	3541.0
1199.88415	3583.25
1200.434456	3563.25
1200.984705	3556.25
1201.534898	3533.5
1202.085033	3568.5
1202.635112	3536.75
1203.185134	3552.0
1203.735099	3559.5
1204.285007	3549.0
1204.834859	3541.5
1205.384653	3528.25
1205.934391	3544.25
1206.484072	3544.25
1207.033696	3521.5
1207.583263	3555.5
1208.132774	3503.75
1208.682228	3518.0
1209.231624	3513.75
1209.780965	3512.75
1210.330248	3525.0
1210.879474	3525.0
1211.428644	3505.25
1211.977757	3522.5
1212.526813	3537.5
1213.075813	3506.5
1213.624755	3501.75
1214.173641	3505.0
1214.72247	3498.25
1215.271242	3504.25
1215.819958	3516.75
1216.368617	3506.25
1216.917219	3496.0
1217.465764	3450.0
1218.014253	3488.0
1218.562685	3443.25
1219.11106	3459.75
1219.659378	3453.0
1220.20764	3472.5
1220.755845	3447.0
1221.303993	3459.25
1221.852085	3456.5
1222.400119	3492.5
1222.948097	3474.0
1223.496019	3475.0
1224.043883	3460.75
1224.591691	3455.5
1225.139443	3475.5
1225.687137	3406.75
1226.234775	3429.25
1226.782357	3438.25
1227.329881	3471.25
1227.877349	3440.25
1228.42476	3441.75
1228.972115	3445.25
1229.519413	3442.25
1230.066654	3408.75
1230.613839	3464.0
1231.160967	3439.0
1231.708038	3400.25
1232.255053	3409.25
1232.802011	3433.0
1233.348912	3416.0
1233.895757	3448.75
1234.442545	3412.75
1234.989277	3421.0
1235.535951	3410.5
1236.08257	3445.75
1236.629131	3408.75
1237.175636	3431.25
1237.722085	3389.25
1238.268477	3436.5
1238.814812	3393.5
1239.361091	3410.5
1239.907313	3400.25
1240.453478	3428.0
1240.999587	3404.0
1241.54564	3402.75
1242.091636	3400.75
1242.637575	3400.5
1243.183457	3379.5
1243.729284	3381.25
1244.275053	3389.0
1244.820766	3364.0
1245.366423	3392.5
1245.912022	3371.5
1246.457566	3373.75
1247.003053	3378.0
1247.548483	3373.25
1248.093857	3369.75
1248.639174	3367.0
1249.184435	3356.75
1249.729639	3366.75
1250.274787	3376.5
1250.819878	3379.5
1251.364912	3333.25
1251.909891	3387.25
1252.454812	3352.5
1252.999677	3387.5
1253.544486	3384.0
1254.089238	3344.75
1254.633934	3322.75
1255.178573	3340.5
1255.723156	3363.5
1256.267682	3335.75
1256.812152	3357.0
1257.356565	3358.25
1257.900922	3375.25
1258.445223	3366.5
1258.989467	3336.25
1259.533654	3320.25
1260.077785	3343.0
1260.62186	3335.0
1261.165878	3352.75
1261.70984	3338.75
1262.253745	3324.25
1262.797594	3314.0
1263.341386	3342.0
1263.885123	3300.0
1264.428802	3327.5
1264.972425	3342.25
1265.515992	3331.0
1266.059503	3333.5
1266.602957	3305.5
1267.146354	3315.75
1267.689696	3330.5
1268.23298	3341.0
1268.776209	3320.0
1269.319381	3325.0
1269.862497	3289.0
1270.405556	3303.0
1270.948559	3293.75
1271.491506	3295.25
1272.034396	3306.5
1272.57723	3301.25
1273.120007	3290.75
1273.662728	3282.25
1274.205393	3323.25
1274.748002	3291.5
1275.290554	3246.25
1275.83305	3284.0
1276.375489	3300.0
1276.917872	3288.75
1277.460199	3294.5
1278.00247	3260.75
1278.544684	3304.0
1279.086842	3296.5
1279.628943	3274.0
1280.170989	3258.75
1280.712978	3239.5
1281.25491	3303.0
1281.796787	3248.5
1282.338607	3273.75
1282.880371	3265.5
1283.422078	3301.0
1283.963729	3313.0
1284.505324	3405.75
1285.046863	3519.5
1285.588345	3674.75
1286.129772	3525.25
1286.671142	3372.0
1287.212455	3275.5
1287.753713	3273.25
1288.294914	3249.5
1288.836059	3235.5
1289.377147	3269.0
1289.91818	3254.5
1290.459156	3270.0
1291.000076	3234.0
1291.54094	3233.0
1292.081747	3234.75
1292.622499	3194.5
1293.163194	3211.0
1293.703833	3203.25
1294.244415	3219.5
1294.784942	3239.25
1295.325412	3222.25
1295.865826	3222.0
1296.406184	3226.25
1296.946486	3212.5
1297.486731	3188.75
1298.026921	3212.0
1298.567054	3156.75
1299.107131	3216.75
1299.647152	3173.5
1300.187116	3175.0
1300.727025	3197.5
1301.266877	3202.75
1301.806673	3174.75
1302.346413	3178.75
1302.886097	3193.0
1303.425725	3198.5
1303.965297	3161.5
1304.504812	3183.25
1305.044272	3189.5
1305.583675	3204.25
1306.123022	3159.25
1306.662313	3152.5
1307.201548	3176.75
1307.740727	3150.5
1308.279849	3145.25
1308.818916	3176.25
1309.357926	3184.0
1309.896881	3162.75
1310.435779	3142.75
1310.974621	3152.5
1311.513407	3144.5
1312.052137	3135.25
1312.590811	3167.25
1313.129429	3166.0
1313.667991	3180.25
1314.206497	3173.25
1314.744946	3147.5
1315.28334	3143.75
1315.821678	3144.0
1316.359959	3128.5
1316.898184	3137.75
1317.436354	3134.0
1317.974467	3146.75
1318.512525	3115.25
1319.050526	3144.25
1319.588471	3126.0
1320.12636	3114.5
1320.664194	3135.75
1321.201971	3125.0
1321.739692	3130.0
1322.277357	3104.5
1322.814967	3126.25
1323.35252	3107.0
1323.890017	3103.5
1324.427458	3119.5
1324.964843	3108.0
1325.502173	3050.0
1326.039446	3117.5
1326.576663	3112.75
1327.113824	3118.75
1327.65093	3098.5
1328.187979	3121.5
1328.724972	3111.25
1329.26191	3081.5
1329.798791	3100.25
1330.335617	3093.0
1330.872386	3090.0
1331.4091	3084.5
1331.945758	3085.75
1332.48236	3090.0
1333.018905	3083.75
1333.555395	3087.5
1334.091829	3094.75
1334.628207	3100.75
1335.164529	3079.75
1335.700796	3063.0
1336.237006	3078.75
1336.77316	3077.25
1337.309259	3091.75
1337.845301	3069.5
1338.381288	3083.5
1338.917219	3063.5
1339.453094	3062.75
1339.988913	3076.75
1340.524676	3078.0
1341.060383	3045.0
1341.596034	3049.5
1342.13163	3045.25
1342.66717	3029.0
1343.202653	3058.75
1343.738081	3051.0
1344.273453	3050.25
1344.80877	3031.0
1345.34403	3065.5
1345.879235	3038.5
1346.414383	3008.0
1346.949476	3024.5
1347.484513	3047.25
1348.019494	3033.0
1348.55442	3040.75
1349.089289	2999.5
1349.624103	3026.5
1350.158861	3033.25
1350.693563	3021.25
1351.228209	3024.25
1351.7628	2991.75
1352.297334	3032.0
1352.831813	3020.25
1353.366236	2997.75
1353.900604	3045.25
1354.434915	2999.0
1354.969171	3005.5
1355.503371	3012.25
1356.037515	3014.75
1356.571604	3008.25
1357.105636	2997.25
1357.639613	3027.0
1358.173535	3003.75
1358.7074	2999.75
1359.24121	3040.5
1359.774964	3014.75
1360.308662	2977.5
1360.842304	2977.25
1361.375891	2977.75
1361.909422	3009.0
1362.442897	2989.5
1362.976317	2993.5
1363.50968	2993.0
1364.042989	2988.5
1364.576241	3003.0
1365.109438	2987.5
1365.642579	3015.75
1366.175664	2984.5
1366.708693	2995.75
1367.241667	2964.0
1367.774585	2992.5
1368.307448	2990.0
1368.840255	2969.5
1369.373006	2974.75
1369.905701	2996.75
1370.438341	2973.5
1370.970925	2981.0
1371.503454	2977.5
1372.035926	2975.75
1372.568344	2958.75
1373.100705	2944.25
1373.633011	2969.75
1374.165261	2936.0
1374.697456	2956.75
1375.229595	2938.25
1375.761678	2916.75
1376.293705	2951.5
1376.825677	2953.25
1377.357594	2947.5
1377.889455	2966.25
1378.42126	2971.0
1378.953009	2946.75
1379.484703	2975.0
1380.016342	2962.75
1380.547924	2939.25
1381.079452	2940.5
1381.610923	2947.75
1382.142339	2932.75
1382.673699	2929.25
1383.205004	2946.75
1383.736253	2957.5
1384.267447	2934.0
1384.798585	2921.0
1385.329668	2932.0
1385.860695	2952.75
1386.391666	2954.75
1386.922582	2948.25
1387.453442	2970.25
1387.984247	3091.25
1388.514996	3370.25
1389.04569	3742.5
1389.576328	3379.25
1390.10691	3030.5
1390.637437	2997.25
1391.167909	2913.75
1391.698325	2931.5
1392.228685	2893.5
1392.75899	2921.25
1393.28924	2911.25
1393.819434	2909.0
1394.349572	2892.5
1394.879655	2905.75
1395.409683	2903.0
1395.939655	2910.5
1396.469571	2879.0
1396.999432	2926.5
1397.529237	2879.0
1398.058987	2902.5
1398.588682	2914.0
1399.118321	2897.75
1399.647905	2894.25
1400.177433	2857.75
1400.706906	2863.75
1401.236323	2872.75
1401.765685	2899.0
1402.294991	2901.25
1402.824242	2898.75
1403.353437	2864.0
1403.882577	2882.25
1404.411662	2882.5
1404.940691	2887.25
1405.469665	2884.5
1405.998583	2860.5
1406.527446	2897.75
1407.056253	2872.25
1407.585005	2888.5
1408.113702	2893.25
1408.642343	2911.0
1409.170929	2898.75
1409.69946	2916.25
1410.227935	2936.5
1410.756354	2925.75
1411.284719	2868.25
1411.813028	2872.0
1412.341281	2859.25
1412.869479	2874.25
1413.397622	2856.5
1413.92571	2855.0
1414.453742	2864.75
1414.981718	2868.25
1415.50964	2836.25
1416.037506	2838.5
1416.565316	2852.5
1417.093072	2847.5
1417.620772	2874.5
1418.148416	2831.5
1418.676005	2850.25
1419.203539	2850.75
1419.731018	2857.25
1420.258441	2838.0
1420.785809	2824.75
1421.313122	2806.25
1421.840379	2831.25
1422.367582	2836.75
1422.894728	2837.0
1423.42182	2832.5
1423.948856	2817.75
1424.475837	2826.5
1425.002762	2819.25
1425.529633	2819.5
1426.056448	2822.75
1426.583207	2839.0
1427.109912	2858.25
1427.636561	2857.25
1428.163155	2825.25
1428.689694	2819.75
1429.216177	2800.75
1429.742605	2841.75
1430.268978	2823.5
1430.795296	2817.75
1431.321558	2810.75
1431.847765	2816.0
1432.373917	2795.5
1432.900014	2805.25
1433.426056	2818.0
1433.952042	2789.5
1434.477973	2814.5
1435.003849	2811.75
1435.529669	2833.0
1436.055435	2769.75
1436.581145	2793.25
1437.1068	2783.5
1437.632399	2810.0
1438.157944	2790.25
1438.683433	2788.0
1439.208868	2817.0
1439.734247	2780.75
1440.25957	2779.75
1440.784839	2790.0
1441.310053	2770.5
1441.835211	2786.0
1442.360314	2777.5
1442.885362	2773.75
1443.410355	2777.5
1443.935292	2769.25
1444.460175	2799.75
1444.985002	2776.0
1445.509774	2774.0
1446.034491	2765.0
1446.559153	2766.0
1447.08376	2756.5
1447.608312	2781.25
1448.132808	2744.75
1448.65725	2759.0
1449.181636	2768.25
1449.705967	2749.25
1450.230243	2760.75
1450.754464	2741.5
1451.27863	2775.25
1451.802741	2748.5
1452.326797	2742.25
1452.850797	2739.75
1453.374743	2756.75
1453.898633	2719.0
1454.422468	2738.0
1454.946249	2729.0
1455.469974	2742.25
1455.993644	2751.0
1456.517259	2734.0
1457.040819	2741.5
1457.564324	2727.75
1458.087773	2735.5
1458.611168	2697.0
1459.134508	2688.25
1459.657793	2721.5
1460.181022	2752.0
1460.704197	2723.0
1461.227316	2722.75
1461.750381	2739.5
1462.27339	2718.25
1462.796345	2732.25
1463.319244	2738.75
1463.842089	2706.75
1464.364878	2714.5
1464.887613	2730.0
1465.410292	2745.0
1465.932916	2702.5
1466.455486	2702.0
1466.978	2730.75
1467.50046	2698.25
1468.022864	2721.75
1468.545214	2702.5
1469.067508	2703.5
1469.589748	2695.75
1470.111932	2704.0
1470.634062	2681.5
1471.156136	2699.5
1471.678156	2675.5
1472.20012	2677.5
1472.72203	2701.5
1473.243885	2698.5
1473.765685	2688.75
1474.28743	2687.0
1474.80912	2683.0
1475.330755	2692.5
1475.852335	2694.75
1476.37386	2652.5
1476.89533	2681.0
1477.416745	2656.5
1477.938106	2674.25
1478.459411	2664.75
1478.980662	2689.25
1479.501857	2691.0
1480.022998	2656.75
1480.544084	2648.5
1481.065115	2652.75
1481.586091	2651.5
1482.107012	2654.75
1482.627878	2654.0
1483.14869	2648.75
1483.669446	2636.5
1484.190148	2658.25
1484.710794	2657.0
1485.231386	2646.25
1485.751923	2658.0
1486.272406	2632.75
1486.792833	2629.25
1487.313205	2656.5
1487.833523	2649.75
1488.353786	2636.75
1488.873994	2631.25
1489.394147	2615.75
1489.914245	2647.75
1490.434288	2599.25
1490.954277	2623.25
1491.474211	2621.5
1491.99409	2640.0
1492.513914	2620.5
1493.033683	2629.25
1493.553398	2616.75
1494.073057	2646.5
1494.592662	2633.75
1495.112212	2622.0
1495.631708	2629.75
1496.151148	2584.0
1496.670534	2601.75
1497.189865	2631.0
1497.709141	2615.5
1498.228362	2602.5
1498.747529	2597.5
1499.266641	2595.75
1499.785698	2594.75
1500.3047	2606.75
1500.823648	2584.5
1501.34254	2630.0
1501.861379	2607.0
1502.380162	2591.0
1502.89889	2592.75
1503.417564	2624.5
1503.936183	2625.75
1504.454748	2608.5
1504.973257	2617.0
1505.491712	2601.25
1506.010112	2606.0
1506.528458	2584.75
1507.046748	2587.75
1507.564984	2586.25
1508.083166	2605.75
1508.601292	2578.5
1509.119364	2554.0
1509.637381	2616.25
1510.155344	2610.75
1510.673252	2599.25
1511.191105	2590.75
1511.708903	2594.0
1512.226647	2563.25
1512.744336	2572.5
1513.261971	2570.0
1513.77955	2599.5
1514.297076	2573.0
1514.814546	2587.75
1515.331962	2578.75
1515.849323	2560.75
1516.366629	2547.75
1516.883881	2556.75
1517.401078	2547.5
1517.918221	2556.0
1518.435309	2584.25
1518.952342	2587.75
1519.469321	2565.75
1519.986245	2560.75
1520.503114	2580.25
1521.019929	2535.75
1521.536689	2547.0
1522.053395	2543.75
1522.570046	2541.5
1523.086642	2563.75
1523.603184	2556.0
1524.119671	2574.75
1524.636103	2562.25
1525.152481	2546.5
1525.668805	2552.5
1526.185073	2581.75
1526.701288	2533.25
1527.217447	2559.0
1527.733552	2536.25
1528.249603	2574.25
1528.765599	2531.5
1529.28154	2531.5
1529.797427	2532.5
1531.34476	2534.25
1531.860429	2568.25
1532.376043	2559.0
1532.891602	2547.25
1533.407107	2526.25
1533.922558	2559.0
1534.437954	2511.25
1534.953295	2567.75
1535.468582	2539.5
1535.983815	2516.75
1536.498993	2539.75
1537.014116	2539.75
1537.529185	2551.5
1538.044199	2551.25
1538.559159	2526.0
1539.074064	2492.25
1539.588915	2527.25
1540.103712	2530.75
1540.618454	2507.5
1541.133141	2517.5
1541.647774	2526.0
1542.162353	2546.25
1542.676877	2505.25
1543.191346	2525.5
1543.705761	2499.25
1544.220122	2539.25
1544.734428	2532.75
1545.24868	2549.75
1545.762877	2523.25
1546.27702	2507.5
1546.791109	2531.25
1547.305143	2510.25
1547.819122	2532.75
1548.333047	2496.25
1548.846918	2524.0
1549.360734	2489.25
1549.874496	2509.5
1550.388204	2533.75
1550.901857	2507.5
1551.415455	2522.5
1551.929	2514.25
1552.442489	2504.0
1552.955925	2506.0
1553.469306	2510.5
1553.982632	2493.75
1554.495905	2527.25
1555.009123	2499.5
1555.522286	2512.5
1556.035395	2466.5
1556.54845	2493.25
1557.06145	2486.25
1557.574396	2507.0
1558.087288	2496.75
1558.600125	2486.25
1559.112908	2493.5
1559.625637	2487.5
1560.138311	2498.25
1560.650931	2477.0
1561.163497	2511.0
1561.676008	2494.25
1562.188465	2494.0
1562.700867	2483.75
1563.213216	2505.75
1563.725509	2494.75
1564.237749	2458.5
1564.749934	2483.25
1565.262065	2457.5
1565.774142	2482.75
1566.286164	2466.75
1566.798132	2478.5
1567.310046	2479.0
1567.821906	2467.5
1568.333711	2482.25
1568.845462	2457.75
1569.357158	2489.5
1569.868801	2463.75
1570.380389	2489.75
1570.891922	2453.5
1571.403402	2466.0
1571.914827	2459.25
1572.426198	2486.5
1572.937515	2476.25
1573.448777	2466.75
1573.959985	2455.75
1574.471139	2467.25
1574.982239	2485.75
1575.493285	2462.75
1576.004276	2483.5
1576.515213	2463.25
1577.026096	2463.75
1577.536924	2458.25
1578.047698	2475.25
1578.558419	2458.5
1579.069084	2441.75
1579.579696	2465.25
1580.090254	2409.5
1580.600757	2469.75
1581.111206	2436.25
1581.621601	2477.0
1582.131941	2469.5
1582.642228	2453.25
1583.15246	2406.5
1583.662638	2449.5
1584.172762	2451.5
1584.682832	2422.0
1585.192847	2437.25
1585.702809	2422.25
1586.212716	2451.5
1586.722569	2434.0
1587.232368	2420.5
1587.742113	2425.5
1588.251803	2470.75
1588.76144	2443.5
1589.271022	2427.0
1589.78055	2438.5
1590.290024	2417.5
1590.799444	2451.0
1591.30881	2409.25
1591.818121	2441.25
