1042.414189	751.7999878
1042.980685	748.2000122
1043.547124	747.0
1044.113505	751.7999878
1044.679828	747.4000244
1045.246093	741.7999878
1045.8123	741.2000122
1046.378449	742.2000122
1046.94454	738.7999878
1047.510573	731.4000244
1048.076548	727.7999878
1048.642465	723.5999756
1049.208325	724.0
1049.774126	724.0
1050.339869	719.2000122
1050.905555	721.5999756
1051.471183	717.5999756
1052.036752	715.0
1052.602264	709.2000122
1053.167718	713.4000244
1053.733114	709.4000244
1054.298452	714.0
1054.863733	711.5999756
1055.428955	705.7999878
1055.994119	710.4000244
1056.559226	706.5999756
1057.124275	709.2000122
1057.689266	705.7999878
1058.254199	704.4000244
1058.819074	707.2000122
1059.383891	709.7999878
1059.94865	706.5999756
1060.513352	707.7999878
1061.077996	706.7999878
1061.642582	708.5999756
1062.20711	706.5999756
1062.77158	706.0
1063.335992	706.7999878
1063.900347	706.5999756
1064.464643	707.7999878
1065.028882	704.4000244
1065.593063	705.2000122
1066.157187	704.5999756
1066.721252	702.4000244
1067.28526	708.2000122
1067.84921	703.0
1068.413102	702.2000122
1068.976936	706.5999756
1069.540713	703.4000244
1070.104431	711.4000244
1070.668092	704.5999756
1071.231696	704.7999878
1071.795241	702.0
1072.358729	703.2000122
1072.922159	708.2000122
1073.485531	702.2000122
1074.048845	703.5999756
1074.612102	704.4000244
1075.175301	705.0
1075.738442	705.2000122
1076.301525	707.4000244
1076.864551	701.0
1077.427519	704.4000244
1077.990429	704.0
1078.553281	704.5999756
1079.116076	704.5999756
1079.678813	708.5999756
1080.241492	704.0
1080.804114	705.0
1081.366678	703.4000244
1081.929184	702.2000122
1082.491633	708.5999756
1083.054024	701.7999878
1083.616357	704.5999756
1084.178632	706.2000122
1084.74085	701.7999878
1085.30301	704.2000122
1085.865113	704.7999878
1086.427158	704.7999878
1086.989145	705.2000122
1087.551074	702.4000244
1088.112946	708.5999756
1088.67476	704.2000122
1089.236517	710.5999756
1089.798216	703.7999878
1090.359857	701.2000122
1090.92144	707.4000244
1091.482966	707.4000244
1092.044435	708.2000122
1092.605845	707.2000122
1093.167199	708.0
1093.728494	702.5999756
1094.289732	701.7999878
1094.850912	703.4000244
1095.412035	712.7999878
1095.9731	705.2000122
1096.534107	703.5999756
1097.095057	717.2000122
1097.65595	702.0
1098.216784	708.0
1098.777561	701.2000122
1099.338281	704.2000122
1099.898943	709.0
1100.459547	710.2000122
1101.020094	709.0
1101.580584	705.5999756
1102.141015	705.7999878
1102.701389	706.5999756
1103.261706	702.0
1103.821965	704.2000122
1104.382167	703.4000244
1104.942311	704.2000122
1105.502397	706.5999756
1106.062426	706.5999756
1106.622398	705.7999878
1107.182312	705.4000244
1107.742168	707.7999878
1108.301967	707.7999878
1108.861708	701.4000244
1109.421392	706.2000122
1109.981019	706.2000122
1110.540587	707.7999878
1111.100099	710.7999878
1111.659553	707.0
1112.218949	704.5999756
1112.778288	706.4000244
1113.33757	706.4000244
1113.896794	706.7999878
1114.45596	704.7999878
1115.015069	707.5999756
1115.574121	706.7999878
1116.133115	706.2000122
1116.692052	705.7999878
1117.250931	709.5999756
1117.809753	708.4000244
1118.368517	703.4000244
1118.927224	707.2000122
1119.485873	709.7999878
1120.044465	710.2000122
1120.603	707.0
1121.161477	705.2000122
1121.719897	710.7999878
1122.278259	705.5999756
1122.836564	707.7999878
1123.394812	703.2000122
1123.953002	708.2000122
1124.511135	708.4000244
1125.06921	706.0
1125.627228	703.7999878
1126.185189	707.5999756
1126.743092	705.0
1127.300938	704.5999756
1127.858726	702.4000244
1128.416457	702.5999756
1128.974131	706.4000244
1129.531748	704.2000122
1130.089307	708.4000244
1130.646808	704.5999756
1131.204252	705.4000244
1131.761639	699.2000122
1132.318969	707.2000122
1132.876241	705.5999756
1133.433456	703.0
1133.990614	706.5999756
1134.547714	705.0
1135.104757	698.4000244
1135.661743	703.2000122
1136.218671	705.7999878
1136.775542	706.0
1137.332356	704.7999878
1137.889112	706.5999756
1138.445811	702.5999756
1139.002453	702.5999756
1139.559037	706.2000122
1140.115565	705.2000122
1140.672035	707.4000244
1141.228447	702.0
1141.784803	709.7999878
1142.341101	700.2000122
1142.897342	709.4000244
1143.453525	704.5999756
1144.009651	710.7999878
1144.565721	706.2000122
1145.121732	707.4000244
1145.677687	705.5999756
1146.233584	704.5999756
1146.789424	708.0
1147.345207	714.4000244
1147.900933	709.5999756
1148.456601	711.5999756
1149.012212	708.7999878
1149.567766	710.7999878
1150.123263	717.5999756
1150.678702	752.5999756
1151.234085	762.0
1151.78941	728.4000244
1152.344678	708.5999756
1152.899888	706.0
1153.455042	704.0
1154.010138	705.4000244
1154.565177	706.0
1155.120159	706.0
1155.675084	704.7999878
1156.229951	703.2000122
1156.784762	705.5999756
1157.339515	705.5999756
1157.894211	705.5999756
1158.44885	705.7999878
1159.003432	707.0
1159.557956	704.5999756
1160.112424	705.7999878
1160.666834	708.2000122
1161.221187	704.4000244
1161.775483	707.4000244
1162.329722	704.2000122
1162.883904	704.4000244
1163.438029	706.2000122
1163.992096	707.5999756
1164.546107	704.5999756
1165.10006	706.4000244
1165.653956	707.5999756
1166.207795	704.7999878
1166.761577	706.5999756
1167.315302	711.2000122
1167.86897	706.4000244
1168.422581	709.7999878
1168.976134	707.7999878
1169.529631	708.5999756
1170.08307	705.4000244
1170.636453	709.0
1171.189778	702.4000244
1171.743046	702.5999756
1172.296257	703.2000122
1172.849412	705.7999878
1173.402509	703.2000122
1173.955549	705.7999878
1174.508532	707.5999756
1175.061458	703.5999756
1175.614327	707.5999756
1176.167138	704.0
1176.719893	706.0
1177.272591	708.0
1177.825232	707.2000122
1178.377816	703.5999756
1178.930342	707.5999756
1179.482812	709.5999756
1180.035225	699.4000244
1180.587581	708.5999756
1181.139879	704.7999878
1181.692121	709.4000244
1182.244306	705.0
1182.796434	704.5999756
1183.348504	705.2000122
1183.900518	705.7999878
1184.452475	709.2000122
1185.004375	710.7999878
1185.556218	707.4000244
1186.108004	705.0
1186.659733	704.4000244
1187.211405	704.4000244
1187.76302	703.5999756
1188.314578	707.4000244
1188.866079	706.4000244
1189.417523	704.0
1189.96891	707.2000122
1190.520241	704.7999878
1191.071514	705.0
1191.622731	709.7999878
1192.17389	706.2000122
1192.724993	705.2000122
1193.276039	718.7999878
1193.827027	705.4000244
1194.377959	706.2000122
1194.928834	704.2000122
1195.479653	711.0
1196.030414	706.2000122
1196.581118	706.0
1197.131766	706.5999756
1197.682356	712.2000122
1198.23289	707.4000244
1198.783367	708.5999756
1199.333786	705.7999878
1199.88415	702.7999878
1200.434456	706.4000244
1200.984705	709.2000122
1201.534898	709.7999878
1202.085033	707.5999756
1202.635112	703.7999878
1203.185134	706.7999878
1203.735099	711.7999878
1204.285007	705.7999878
1204.834859	703.7999878
1205.384653	710.2000122
1205.934391	708.5999756
1206.484072	705.5999756
1207.033696	712.7999878
1207.583263	705.7999878
1208.132774	710.2000122
1208.682228	710.5999756
1209.231624	708.7999878
1209.780965	713.4000244
1210.330248	709.2000122
1210.879474	713.7999878
1211.428644	709.7999878
1211.977757	710.5999756
1212.526813	714.2000122
1213.075813	713.0
1213.624755	706.2000122
1214.173641	709.5999756
1214.72247	707.2000122
1215.271242	710.5999756
1215.819958	706.4000244
1216.368617	710.7999878
1216.917219	707.7999878
1217.465764	709.0
1218.014253	710.5999756
1218.562685	708.4000244
1219.11106	703.4000244
1219.659378	710.5999756
1220.20764	704.7999878
1220.755845	705.5999756
1221.303993	708.7999878
1221.852085	703.7999878
1222.400119	707.7999878
1222.948097	708.4000244
1223.496019	704.0
1224.043883	709.2000122
1224.591691	706.7999878
1225.139443	708.5999756
1225.687137	708.0
1226.234775	708.2000122
1226.782357	712.0
1227.329881	710.5999756
1227.877349	710.2000122
1228.42476	708.7999878
1228.972115	705.4000244
1229.519413	709.5999756
1230.066654	706.2000122
1230.613839	708.7999878
1231.160967	709.4000244
1231.708038	709.4000244
1232.255053	705.2000122
1232.802011	706.2000122
1233.348912	713.7999878
1233.895757	715.4000244
1234.442545	706.0
1234.989277	703.4000244
1235.535951	707.4000244
1236.08257	710.4000244
1236.629131	707.4000244
1237.175636	706.5999756
1237.722085	708.0
1238.268477	710.5999756
1238.814812	705.2000122
1239.361091	707.2000122
1239.907313	705.4000244
1240.453478	709.7999878
1240.999587	706.0
1241.54564	707.4000244
1242.091636	706.2000122
1242.637575	712.5999756
1243.183457	705.7999878
1243.729284	708.5999756
1244.275053	702.5999756
1244.820766	709.4000244
1245.366423	707.7999878
1245.912022	708.5999756
1246.457566	708.7999878
1247.003053	707.0
1247.548483	707.4000244
1248.093857	711.4000244
1248.639174	705.7999878
1249.184435	706.5999756
1249.729639	707.2000122
1250.274787	708.0
1250.819878	710.4000244
1251.364912	707.2000122
1251.909891	707.5999756
1252.454812	707.5999756
1252.999677	709.0
1253.544486	710.4000244
1254.089238	712.2000122
1254.633934	709.5999756
1255.178573	712.2000122
1255.723156	708.5999756
1256.267682	709.4000244
1256.812152	709.5999756
1257.356565	710.0
1257.900922	711.0
1258.445223	709.2000122
1258.989467	710.7999878
1259.533654	713.4000244
1260.077785	720.5999756
1260.62186	706.7999878
1261.165878	711.0
1261.70984	709.7999878
1262.253745	710.4000244
1262.797594	711.0
1263.341386	715.2000122
1263.885123	718.0
1264.428802	725.4000244
1264.972425	734.7999878
1265.515992	733.4000244
1266.059503	729.7999878
1266.602957	717.5999756
1267.146354	715.5999756
1267.689696	714.4000244
1268.23298	711.5999756
1268.776209	712.2000122
1269.319381	713.0
1269.862497	709.4000244
1270.405556	711.4000244
1270.948559	713.7999878
1271.491506	707.0
1272.034396	711.7999878
1272.57723	710.2000122
1273.120007	709.7999878
1273.662728	713.7999878
1274.205393	710.5999756
1274.748002	712.7999878
1275.290554	713.0
1275.83305	706.5999756
1276.375489	713.2000122
1276.917872	710.7999878
1277.460199	710.5999756
1278.00247	712.2000122
1278.544684	715.2000122
1279.086842	717.0
1279.628943	714.2000122
1280.170989	715.7999878
1280.712978	713.5999756
1281.25491	711.5999756
1281.796787	719.4000244
1282.338607	718.7999878
1282.880371	726.5999756
1283.422078	744.5999756
1283.963729	777.5999756
1284.505324	851.2000122
1285.046863	989.0
1285.588345	1076.0
1286.129772	940.5999756
1286.671142	794.4000244
1287.212455	743.7999878
1287.753713	727.0
1288.294914	723.2000122
1288.836059	716.2000122
1289.377147	717.7999878
1289.91818	715.5999756
1290.459156	713.0
1291.000076	713.4000244
1291.54094	716.5999756
1292.081747	716.5999756
1292.622499	711.7999878
1293.163194	713.5999756
1293.703833	710.4000244
1294.244415	711.4000244
1294.784942	715.7999878
1295.325412	716.0
1295.865826	713.0
1296.406184	711.7999878
1296.946486	712.4000244
1297.486731	713.2000122
1298.026921	712.7999878
1298.567054	712.0
1299.107131	709.5999756
1299.647152	711.5999756
1300.187116	716.2000122
1300.727025	712.2000122
1301.266877	713.4000244
1301.806673	707.4000244
1302.346413	710.0
1302.886097	709.2000122
1303.425725	710.0
1303.965297	710.2000122
1304.504812	712.2000122
1305.044272	713.7999878
1305.583675	711.0
1306.123022	717.4000244
1307.201548	713.7999878
1307.740727	711.7999878
1308.279849	708.0
1308.818916	707.4000244
1309.357926	711.7999878
1309.896881	712.4000244
1310.435779	713.5999756
1312.052137	710.4000244
1312.590811	712.0
1313.129429	710.4000244
1313.667991	709.4000244
1314.206497	712.5999756
1314.744946	713.5999756
1315.28334	710.0
1315.821678	715.5999756
1316.359959	710.5999756
1316.898184	709.5999756
1317.436354	711.0
1317.974467	709.0
1318.512525	709.0
1319.050526	709.7999878
1319.588471	711.5999756
1320.12636	711.2000122
1320.664194	709.7999878
1321.201971	710.0
1321.739692	711.7999878
1322.277357	712.2000122
1322.814967	709.4000244
1323.35252	712.4000244
1323.890017	713.4000244
1324.427458	706.2000122
1324.964843	710.5999756
1325.502173	711.2000122
1326.039446	713.7999878
1326.576663	708.7999878
1327.113824	713.0
1327.65093	712.4000244
1328.187979	714.2000122
1328.724972	712.7999878
1329.26191	710.0
1329.798791	710.4000244
1330.335617	711.7999878
1330.872386	709.5999756
1331.4091	710.0
1331.945758	710.4000244
1332.48236	714.5999756
1333.018905	711.2000122
1333.555395	712.5999756
1334.091829	712.4000244
1334.628207	710.5999756
1335.164529	710.7999878
1335.700796	708.4000244
1336.237006	712.2000122
1336.77316	708.7999878
1337.309259	712.5999756
1337.845301	710.2000122
1338.381288	707.7999878
1338.917219	712.5999756
1339.453094	713.5999756
1339.988913	713.2000122
1340.524676	710.0
1341.060383	715.2000122
1341.596034	709.7999878
1342.13163	712.7999878
1342.66717	707.4000244
1343.202653	713.5999756
1343.738081	713.7999878
1344.273453	709.7999878
1344.80877	708.7999878
1345.34403	715.4000244
1345.879235	712.2000122
1346.414383	715.2000122
1346.949476	710.0
1347.484513	708.7999878
1348.019494	709.7999878
1348.55442	709.4000244
1349.089289	710.7999878
1349.624103	712.7999878
1350.158861	715.5999756
1350.693563	709.5999756
1351.228209	711.4000244
1351.7628	716.0
1352.297334	710.7999878
1352.831813	712.2000122
1353.366236	709.4000244
1353.900604	710.0
1354.434915	711.5999756
1354.969171	710.4000244
1355.503371	713.2000122
1356.037515	710.2000122
1356.571604	709.0
1357.105636	711.7999878
1357.639613	713.7999878
1358.173535	705.7999878
1358.7074	710.5999756
1359.24121	711.0
1359.774964	712.0
1360.308662	710.0
1360.842304	708.7999878
1361.375891	712.4000244
1361.909422	713.2000122
1362.442897	713.0
1362.976317	714.2000122
1363.50968	713.0
1364.042989	712.2000122
1364.576241	712.2000122
1365.109438	712.0
1365.642579	709.7999878
1366.175664	715.7999878
1366.708693	717.5999756
1367.241667	710.4000244
1367.774585	713.0
1368.307448	716.2000122
1368.840255	718.0
1369.373006	710.7999878
1369.905701	713.7999878
1370.438341	719.2000122
1370.970925	721.0
1371.503454	719.5999756
1372.035926	714.0
1372.568344	709.7999878
1373.100705	717.0
1373.633011	715.4000244
1374.165261	714.4000244
1374.697456	714.7999878
1375.229595	715.4000244
1375.761678	710.5999756
1376.293705	713.2000122
1376.825677	710.5999756
1377.357594	712.2000122
1377.889455	713.4000244
1378.42126	711.2000122
1378.953009	713.7999878
1379.484703	716.0
1380.016342	717.2000122
1380.547924	714.5999756
1381.079452	718.4000244
1381.610923	714.2000122
1382.142339	719.2000122
1382.673699	719.7999878
1383.205004	717.4000244
1383.736253	720.7999878
1384.267447	724.2000122
1384.798585	721.7999878
1385.329668	726.2000122
1385.860695	730.0
1386.391666	740.0
1386.922582	750.4000244
1387.453442	786.5999756
1387.984247	890.2000122
1388.514996	1188.800049
1389.04569	1416.199951
1389.576328	1069.800049
1390.10691	820.4000244
1390.637437	748.5999756
1391.167909	734.0
1391.698325	730.0
1392.228685	722.4000244
1392.75899	720.2000122
1393.28924	717.7999878
1393.819434	719.0
1394.349572	718.7999878
1394.879655	717.0
1395.409683	717.2000122
1395.939655	713.7999878
1396.469571	721.2000122
1396.999432	715.2000122
1397.529237	716.7999878
1398.058987	718.2000122
1398.588682	714.4000244
1399.118321	715.4000244
1399.647905	717.0
1400.177433	715.4000244
1400.706906	716.4000244
1401.236323	719.5999756
1401.765685	714.5999756
1402.294991	712.5999756
1402.824242	715.4000244
1403.353437	714.7999878
1403.882577	714.5999756
1404.411662	713.4000244
1404.940691	715.7999878
1405.469665	715.0
1405.998583	714.2000122
1406.527446	716.0
1407.056253	714.5999756
1407.585005	717.7999878
1408.113702	714.2000122
1408.642343	727.7999878
1409.170929	730.5999756
1409.69946	742.4000244
1410.227935	754.5999756
1410.756354	755.2000122
1411.284719	737.2000122
1411.813028	726.5999756
1412.341281	719.0
1412.869479	717.5999756
1413.397622	717.7999878
1413.92571	713.5999756
1414.453742	711.2000122
1414.981718	713.0
1415.50964	723.5999756
1416.037506	714.0
1416.565316	713.0
1417.093072	708.7999878
1417.620772	715.4000244
1418.148416	713.7999878
1418.676005	710.7999878
1419.203539	712.2000122
1419.731018	711.7999878
1420.258441	715.0
1420.785809	714.4000244
1421.313122	712.7999878
1421.840379	717.2000122
1422.367582	716.4000244
1422.894728	714.7999878
1423.42182	712.0
1423.948856	712.2000122
1424.475837	713.7999878
1425.002762	714.2000122
1425.529633	716.2000122
1426.056448	715.4000244
1426.583207	719.0
1427.109912	711.0
1427.636561	710.7999878
1428.163155	716.0
1428.689694	713.2000122
1429.216177	715.2000122
1429.742605	716.4000244
1430.268978	711.2000122
1430.795296	710.4000244
1431.321558	714.5999756
1431.847765	717.0
1432.373917	709.7999878
1432.900014	711.5999756
1433.426056	716.5999756
1433.952042	714.2000122
1434.477973	708.5999756
1435.003849	711.0
1435.529669	711.2000122
1436.055435	709.0
1436.581145	715.2000122
1437.1068	712.4000244
1437.632399	713.7999878
1438.157944	711.7999878
1438.683433	711.5999756
1439.208868	716.7999878
1439.734247	713.4000244
1440.25957	718.0
1440.784839	711.4000244
1441.310053	712.0
1441.835211	712.7999878
1442.360314	712.5999756
1442.885362	712.4000244
1443.410355	711.2000122
1443.935292	711.4000244
1444.460175	710.4000244
1444.985002	714.0
1445.509774	714.5999756
1446.034491	713.4000244
1446.559153	712.2000122
1447.08376	715.7999878
1447.608312	707.0
1448.132808	712.5999756
1448.65725	716.2000122
1449.181636	712.0
1449.705967	713.2000122
1450.230243	712.0
1450.754464	712.0
1451.27863	713.0
1451.802741	714.0
1452.326797	710.0
1452.850797	710.2000122
1453.374743	715.2000122
1453.898633	713.0
1454.422468	713.7999878
1454.946249	711.7999878
1455.469974	711.2000122
1455.993644	712.5999756
1456.517259	717.7999878
1457.040819	712.0
1457.564324	713.5999756
1458.087773	710.4000244
1458.611168	709.4000244
1459.134508	713.7999878
1459.657793	716.0
1460.181022	712.0
1460.704197	712.7999878
1461.227316	716.0
1461.750381	713.7999878
1462.27339	712.0
1462.796345	714.4000244
1463.319244	715.4000244
1463.842089	718.2000122
1464.364878	712.0
1464.887613	718.0
1465.410292	717.0
1465.932916	712.4000244
1466.455486	708.2000122
1466.978	714.4000244
1468.022864	711.4000244
1468.545214	708.4000244
1469.067508	714.0
1469.589748	710.4000244
1470.111932	711.2000122
1470.634062	710.4000244
1471.156136	714.7999878
1471.678156	711.4000244
1472.20012	711.2000122
1472.72203	716.2000122
1473.243885	715.0
1473.765685	712.0
1474.28743	712.4000244
1474.80912	711.7999878
1475.330755	710.5999756
1475.852335	712.5999756
1476.37386	713.5999756
1476.89533	711.5999756
1477.416745	712.7999878
1477.938106	713.0
1478.459411	712.7999878
1478.980662	717.2000122
1479.501857	712.0
1480.022998	714.2000122
1480.544084	711.7999878
1481.065115	705.5999756
1481.586091	714.7999878
1482.107012	712.7999878
1482.627878	712.5999756
1483.14869	714.5999756
1483.669446	712.5999756
1484.190148	711.2000122
1484.710794	708.7999878
1485.231386	712.7999878
1485.751923	713.0
1486.272406	714.4000244
1486.792833	712.5999756
1487.313205	712.7999878
1487.833523	707.2000122
1488.353786	710.2000122
1488.873994	712.0
1489.394147	710.0
1489.914245	715.4000244
1490.434288	713.2000122
1490.954277	713.2000122
1491.474211	716.2000122
1491.99409	712.0
1492.513914	716.4000244
1493.033683	714.0
1493.553398	713.5999756
1494.073057	718.0
1494.592662	715.5999756
1495.112212	714.7999878
1495.631708	715.5999756
1496.151148	712.4000244
1496.670534	715.7999878
1497.189865	712.7999878
1497.709141	706.4000244
1498.228362	718.2000122
1498.747529	715.2000122
1499.266641	714.2000122
1499.785698	716.0
1500.3047	718.5999756
1500.823648	716.2000122
1501.34254	714.2000122
1501.861379	710.0
1502.380162	712.7999878
1502.89889	710.5999756
1503.417564	717.5999756
1503.936183	715.7999878
1504.454748	715.7999878
1504.973257	715.4000244
1505.491712	711.2000122
1506.010112	715.2000122
1506.528458	711.4000244
1507.046748	713.0
1507.564984	712.0
1508.083166	713.2000122
1508.601292	714.5999756
1509.119364	712.0
1509.637381	712.0
1510.155344	711.2000122
1510.673252	721.7999878
1511.191105	717.0
1511.708903	712.0
1512.226647	710.7999878
1512.744336	712.4000244
1513.261971	715.7999878
1513.77955	710.5999756
1514.297076	712.5999756
1514.814546	714.4000244
1515.331962	711.0
1515.849323	711.4000244
1516.366629	712.0
1516.883881	713.2000122
1517.401078	715.0
1517.918221	713.4000244
1518.435309	712.0
1518.952342	711.0
1519.469321	718.2000122
1519.986245	714.7999878
1520.503114	712.0
1521.019929	709.5999756
1521.536689	711.4000244
1522.053395	707.2000122
1522.570046	713.5999756
1523.086642	712.0
1523.603184	709.7999878
1524.119671	714.7999878
1524.636103	714.0
1525.152481	714.4000244
1525.668805	714.4000244
1526.185073	715.7999878
1526.701288	715.5999756
1527.217447	713.5999756
1527.733552	714.2000122
1528.249603	713.5999756
1528.765599	716.4000244
1529.28154	712.0
1529.797427	711.4000244
1530.313259	712.4000244
1530.829037	706.2000122
1531.34476	712.5999756
1531.860429	714.7999878
1532.376043	714.2000122
1532.891602	713.0
1533.407107	715.0
1533.922558	714.0
1534.437954	710.2000122
1534.953295	714.7999878
1535.468582	710.7999878
1535.983815	713.5999756
1536.498993	711.0
1537.014116	712.7999878
1537.529185	710.5999756
1538.044199	709.4000244
1538.559159	714.0
1539.074064	712.5999756
1539.588915	710.5999756
1540.103712	712.4000244
1540.618454	709.2000122
1541.133141	715.4000244
1541.647774	715.7999878
1542.162353	714.4000244
1542.676877	710.0
1543.191346	709.5999756
1543.705761	712.7999878
1544.220122	711.4000244
1544.734428	713.2000122
1545.24868	713.4000244
1545.762877	712.5999756
1546.27702	714.4000244
1546.791109	713.2000122
1547.305143	708.5999756
1547.819122	712.5999756
1548.333047	710.7999878
1548.846918	714.4000244
1549.360734	712.2000122
1549.874496	713.7999878
1550.388204	716.5999756
1550.901857	712.2000122
1551.415455	712.2000122
1551.929	711.2000122
1552.442489	714.7999878
1552.955925	710.4000244
1553.469306	715.5999756
1553.982632	713.2000122
1554.495905	715.2000122
1555.009123	715.5999756
1555.522286	710.4000244
1556.035395	710.0
1556.54845	718.4000244
1557.06145	711.7999878
1557.574396	710.4000244
1558.087288	715.4000244
1558.600125	715.4000244
1559.112908	713.0
1559.625637	713.0
1560.138311	711.0
1560.650931	711.7999878
1561.163497	715.5999756
1561.676008	713.4000244
1562.188465	710.2000122
1562.700867	713.2000122
1563.213216	713.5999756
1563.725509	715.7999878
1564.237749	713.5999756
1564.749934	716.7999878
1565.262065	714.4000244
1565.774142	714.2000122
1566.286164	714.7999878
1566.798132	713.2000122
1567.310046	715.0
1567.821906	715.5999756
1568.333711	711.5999756
1568.845462	715.5999756
1569.357158	716.4000244
1569.868801	712.5999756
1570.380389	718.2000122
1570.891922	715.2000122
1571.403402	713.5999756
1571.914827	710.5999756
1572.426198	715.0
1572.937515	712.5999756
1573.448777	712.2000122
1573.959985	711.0
1574.471139	713.0
1574.982239	715.4000244
1575.493285	715.4000244
1576.004276	712.5999756
1576.515213	714.7999878
1577.026096	711.7999878
1577.536924	717.5999756
1578.047698	711.2000122
1578.558419	712.5999756
1579.069084	716.7999878
1579.579696	713.0
1580.090254	713.5999756
1580.600757	714.5999756
1581.111206	714.0
1581.621601	716.2000122
1582.131941	714.5999756
1582.642228	713.5999756
1583.15246	714.7999878
1583.662638	712.4000244
1584.172762	714.4000244
1584.682832	714.0
1585.192847	719.4000244
1585.702809	708.7999878
1586.212716	713.0
1586.722569	713.2000122
1587.232368	710.5999756
1587.742113	713.2000122
1588.251803	711.0
1588.76144	715.4000244
1589.271022	718.4000244
1589.78055	712.2000122
1590.290024	711.5999756
1590.799444	714.4000244
1591.30881	718.2000122
1591.818121	712.5999756
1592.327379	714.2000122
