1042.414189	747.5999756
1042.980685	745.2000122
1043.547124	745.7999878
1044.113505	744.0
1044.679828	745.0
1045.246093	738.0
1045.8123	735.4000244
1046.378449	726.2000122
1046.94454	726.7999878
1047.510573	722.2000122
1048.076548	724.0
1048.642465	716.5999756
1049.208325	714.7999878
1049.774126	714.2000122
1050.339869	707.2000122
1050.905555	709.5999756
1051.471183	706.4000244
1052.036752	707.4000244
1052.602264	705.0
1053.167718	706.4000244
1053.733114	702.7999878
1054.298452	709.7999878
1054.863733	702.4000244
1055.428955	700.4000244
1055.994119	700.7999878
1056.559226	700.4000244
1057.124275	698.5999756
1057.689266	696.2000122
1058.254199	697.0
1058.819074	695.0
1059.383891	696.7999878
1059.94865	691.7999878
1060.513352	693.2000122
1061.077996	697.0
1061.642582	695.7999878
1062.20711	695.7999878
1062.77158	695.7999878
1063.335992	695.7999878
1063.900347	695.4000244
1064.464643	694.4000244
1065.028882	694.4000244
1065.593063	693.0
1066.157187	696.4000244
1066.721252	697.0
1067.28526	699.5999756
1067.84921	691.5999756
1068.413102	694.0
1068.976936	692.7999878
1069.540713	691.2000122
1070.104431	696.2000122
1070.668092	695.4000244
1071.231696	692.2000122
1071.795241	695.0
1072.358729	689.7999878
1072.922159	690.7999878
1073.485531	694.7999878
1074.048845	693.2000122
1074.612102	695.7999878
1075.175301	692.0
1075.738442	691.7999878
1076.301525	691.2000122
1076.864551	692.4000244
1077.427519	696.7999878
1077.990429	690.7999878
1078.553281	694.4000244
1079.116076	692.2000122
1079.678813	691.4000244
1080.241492	693.5999756
1080.804114	694.4000244
1081.366678	690.2000122
1081.929184	692.2000122
1082.491633	697.5999756
1083.054024	689.7999878
1083.616357	693.4000244
1084.178632	690.5999756
1084.74085	692.2000122
1085.30301	689.7999878
1085.865113	696.4000244
1086.427158	691.0
1086.989145	694.0
1087.551074	690.7999878
1088.112946	695.0
1088.67476	695.0
1089.236517	698.2000122
1089.798216	695.2000122
1090.359857	693.2000122
1090.92144	695.7999878
1091.482966	691.5999756
1092.044435	693.0
1092.605845	694.5999756
1093.167199	698.5999756
1093.728494	695.7999878
1094.289732	694.5999756
1094.850912	692.4000244
1095.412035	701.4000244
1095.9731	694.2000122
1096.534107	690.4000244
1097.095057	702.4000244
1097.65595	692.7999878
1098.216784	696.2000122
1098.777561	695.2000122
1099.338281	699.0
1099.898943	691.4000244
1100.459547	694.0
1101.020094	693.5999756
1101.580584	695.0
1102.141015	697.2000122
1102.701389	694.2000122
1103.261706	693.5999756
1103.821965	696.0
1104.382167	695.0
1104.942311	695.2000122
1105.502397	695.2000122
1106.062426	693.2000122
1106.622398	696.5999756
1107.182312	695.2000122
1107.742168	696.7999878
1108.301967	694.0
1108.861708	691.2000122
1109.421392	698.5999756
1109.981019	693.0
1110.540587	697.5999756
1111.100099	696.2000122
1111.659553	697.0
1112.218949	698.5999756
1112.778288	693.4000244
1113.33757	696.5999756
1113.896794	694.5999756
1114.45596	695.7999878
1115.015069	694.5999756
1115.574121	694.5999756
1116.133115	698.4000244
1116.692052	696.2000122
1117.250931	698.7999878
1117.809753	693.2000122
1118.368517	695.5999756
1118.927224	694.2000122
1119.485873	697.4000244
1120.044465	698.0
1120.603	695.0
1121.161477	692.4000244
1121.719897	692.7999878
1122.278259	692.7999878
1122.836564	693.5999756
1123.394812	692.0
1123.953002	693.0
1124.511135	690.0
1125.06921	693.5999756
1125.627228	691.7999878
1126.185189	695.5999756
1126.743092	692.7999878
1127.300938	695.2000122
1127.858726	694.4000244
1128.416457	692.2000122
1128.974131	690.5999756
1129.531748	691.4000244
1130.089307	690.0
1130.646808	692.4000244
1131.204252	693.5999756
1131.761639	693.5999756
1132.318969	688.0
1132.876241	689.7999878
1133.433456	694.2000122
1133.990614	690.7999878
1134.547714	694.2000122
1135.104757	692.5999756
1135.661743	694.5999756
1136.218671	691.7999878
1136.775542	691.2000122
1137.332356	691.0
1137.889112	694.7999878
1138.445811	695.0
1139.002453	692.7999878
1139.559037	691.0
1140.115565	691.2000122
1140.672035	692.5999756
1141.228447	692.0
1141.784803	696.2000122
1142.341101	693.2000122
1142.897342	692.5999756
1143.453525	693.7999878
1144.009651	699.0
1144.565721	695.4000244
1145.121732	694.0
1145.677687	692.5999756
1146.233584	695.4000244
1146.789424	692.7999878
1147.345207	696.4000244
1147.900933	697.7999878
1148.456601	700.2000122
1149.012212	691.5999756
1149.567766	698.7999878
1150.123263	708.0
1150.678702	743.5999756
1151.234085	755.4000244
1151.78941	719.7999878
1152.344678	698.7999878
1152.899888	697.5999756
1153.455042	694.5999756
1154.010138	691.7999878
1154.565177	693.5999756
1155.120159	695.2000122
1155.675084	694.2000122
1156.229951	693.7999878
1156.784762	692.0
1157.339515	695.0
1157.894211	691.4000244
1158.44885	691.0
1159.003432	693.0
1159.557956	695.2000122
1160.112424	692.4000244
1160.666834	691.7999878
1161.221187	695.2000122
1161.775483	692.0
1162.329722	692.7999878
1162.883904	692.7999878
1163.438029	692.7999878
1163.992096	690.0
1164.546107	691.2000122
1165.10006	695.0
1165.653956	686.4000244
1166.207795	693.4000244
1166.761577	695.7999878
1167.315302	696.0
1167.86897	695.7999878
1168.422581	693.5999756
1168.976134	690.2000122
1169.529631	691.7999878
1170.08307	696.0
1170.636453	694.2000122
1171.189778	693.4000244
1171.743046	691.7999878
1172.296257	693.7999878
1172.849412	692.7999878
1173.402509	693.4000244
1173.955549	694.7999878
1174.508532	689.4000244
1175.061458	691.7999878
1175.614327	698.0
1176.167138	693.5999756
1176.719893	691.7999878
1177.272591	692.4000244
1177.825232	696.5999756
1178.377816	685.5999756
1178.930342	690.2000122
1179.482812	693.7999878
1180.035225	688.7999878
1180.587581	690.4000244
1181.139879	691.5999756
1181.692121	692.0
1182.244306	691.5999756
1182.796434	692.5999756
1183.348504	690.0
1183.900518	694.2000122
1184.452475	691.4000244
1185.004375	693.2000122
1185.556218	693.2000122
1186.108004	692.2000122
1186.659733	690.0
1187.211405	693.2000122
1187.76302	693.7999878
1188.314578	693.0
1188.866079	693.4000244
1189.417523	695.0
1189.96891	691.7999878
1190.520241	690.0
1191.071514	692.4000244
1191.622731	694.4000244
1192.17389	691.5999756
1192.724993	691.5999756
1193.276039	708.5999756
1193.827027	693.5999756
1194.377959	693.2000122
1194.928834	693.5999756
1195.479653	692.0
1196.030414	693.0
1196.581118	691.7999878
1197.131766	694.5999756
1197.682356	691.4000244
1198.23289	691.5999756
1198.783367	690.2000122
1199.333786	693.5999756
1199.88415	689.7999878
1200.434456	694.2000122
1200.984705	692.4000244
1201.534898	691.4000244
1202.085033	692.4000244
1202.635112	692.5999756
1203.185134	693.4000244
1203.735099	690.0
1204.285007	695.2000122
1204.834859	691.0
1205.384653	696.7999878
1205.934391	690.4000244
1206.484072	694.4000244
1207.033696	693.4000244
1207.583263	693.7999878
1208.132774	696.4000244
1208.682228	692.4000244
1209.231624	691.7999878
1209.780965	693.4000244
1210.330248	696.4000244
1210.879474	698.2000122
1211.428644	694.5999756
1211.977757	696.2000122
1212.526813	693.7999878
1213.075813	703.0
1213.624755	695.7999878
1214.173641	694.5999756
1214.72247	694.4000244
1215.819958	694.2000122
1216.368617	694.7999878
1216.917219	697.0
1217.465764	697.2000122
1218.014253	689.2000122
1218.562685	696.0
1219.11106	694.7999878
1219.659378	692.4000244
1220.20764	692.5999756
1220.755845	693.4000244
1221.303993	694.4000244
1221.852085	693.7999878
1222.400119	696.0
1222.948097	696.2000122
1223.496019	692.2000122
1224.043883	696.5999756
1224.591691	694.5999756
1225.139443	694.7999878
1225.687137	693.4000244
1226.234775	693.0
1226.782357	694.2000122
1227.329881	692.7999878
1227.877349	694.2000122
1228.42476	695.0
1228.972115	692.0
1229.519413	696.0
1230.066654	691.5999756
1230.613839	691.5999756
1231.160967	693.2000122
1231.708038	689.7999878
1232.255053	693.5999756
1232.802011	691.7999878
1233.348912	695.0
1233.895757	693.5999756
1234.442545	691.7999878
1234.989277	693.0
1235.535951	691.2000122
1236.08257	693.5999756
1236.629131	692.4000244
1237.175636	694.7999878
1237.722085	691.7999878
1238.268477	690.5999756
1238.814812	691.0
1239.361091	692.2000122
1239.907313	692.0
1240.453478	694.0
1240.999587	692.7999878
1241.54564	690.0
1242.091636	690.7999878
1242.637575	694.0
1243.183457	692.7999878
1243.729284	691.4000244
1244.275053	690.7999878
1244.820766	692.0
1245.366423	695.7999878
1245.912022	694.4000244
1246.457566	693.0
1247.003053	696.5999756
1247.548483	696.5999756
1248.093857	694.0
1248.639174	693.4000244
1249.184435	691.2000122
1249.729639	696.5999756
1250.274787	690.4000244
1250.819878	694.0
1251.364912	698.2000122
1251.909891	693.2000122
1252.454812	694.0
1252.999677	694.0
1253.544486	693.7999878
1254.089238	692.0
1254.633934	693.5999756
1255.178573	693.0
1255.723156	693.0
1256.267682	692.4000244
1256.812152	695.0
1257.356565	697.4000244
1257.900922	694.0
1258.445223	693.7999878
1258.989467	697.7999878
1259.533654	695.2000122
1260.077785	704.5999756
1260.62186	696.2000122
1261.165878	696.0
1261.70984	696.0
1262.253745	697.4000244
1262.797594	697.2000122
1263.341386	697.7999878
1263.885123	706.2000122
1264.428802	711.0
1264.972425	722.2000122
1265.515992	722.0
1266.059503	714.4000244
1266.602957	705.7999878
1267.146354	700.5999756
1267.689696	698.7999878
1268.23298	698.4000244
1268.776209	694.7999878
1269.319381	695.7999878
1269.862497	696.0
1270.405556	694.5999756
1270.948559	699.0
1271.491506	698.4000244
1272.034396	691.7999878
1272.57723	697.0
1273.120007	694.7999878
1273.662728	691.7999878
1274.205393	692.4000244
1274.748002	697.0
1275.290554	694.0
1275.83305	699.2000122
1276.375489	695.2000122
1276.917872	694.7999878
1277.460199	697.0
1278.00247	697.4000244
1278.544684	696.0
1279.086842	695.7999878
1279.628943	697.7999878
1280.170989	701.4000244
1280.712978	698.5999756
1281.25491	700.0
1281.796787	705.4000244
1282.338607	708.0
1282.880371	712.5999756
1283.422078	732.0
1283.963729	762.5999756
1284.505324	846.7999878
1285.046863	1008.0
1285.588345	1109.199951
1286.129772	944.5999756
1286.671142	786.4000244
1287.212455	730.2000122
1287.753713	709.4000244
1288.294914	710.0
1288.836059	702.2000122
1289.377147	701.2000122
1289.91818	698.7999878
1290.459156	696.2000122
1291.000076	697.4000244
1291.54094	698.7999878
1292.081747	697.2000122
1292.622499	699.5999756
1293.163194	696.2000122
1293.703833	693.2000122
1294.244415	691.0
1294.784942	691.4000244
1295.325412	695.2000122
1295.865826	694.2000122
1296.406184	697.0
1296.946486	695.2000122
1297.486731	695.5999756
1298.026921	694.5999756
1298.567054	694.4000244
1299.107131	695.5999756
1299.647152	695.5999756
1300.187116	693.2000122
1300.727025	691.0
1301.266877	696.2000122
1301.806673	692.7999878
1302.346413	694.0
1302.886097	696.5999756
1303.425725	698.5999756
1303.965297	692.0
1304.504812	696.2000122
1305.044272	692.7999878
1305.583675	694.4000244
1306.123022	695.4000244
1306.662313	696.2000122
1307.201548	691.7999878
1307.740727	691.5999756
1308.279849	692.7999878
1308.818916	692.2000122
1309.357926	696.7999878
1309.896881	694.0
1310.435779	697.4000244
1310.974621	694.5999756
1311.513407	694.2000122
1312.052137	691.7999878
1312.590811	690.2000122
1313.129429	692.7999878
1313.667991	689.5999756
1314.206497	689.4000244
1314.744946	693.7999878
1315.28334	692.0
1315.821678	696.4000244
1316.359959	692.7999878
1316.898184	691.7999878
1317.436354	694.0
1317.974467	691.5999756
1318.512525	694.2000122
1319.050526	692.5999756
1319.588471	692.5999756
1320.12636	691.4000244
1320.664194	695.7999878
1321.201971	695.5999756
1321.739692	693.0
1322.277357	695.4000244
1322.814967	693.2000122
1323.35252	694.5999756
1323.890017	696.7999878
1324.427458	690.5999756
1324.964843	692.2000122
1325.502173	695.0
1326.039446	692.5999756
1326.576663	696.0
1327.113824	694.7999878
1327.65093	696.5999756
1328.187979	696.5999756
1328.724972	690.5999756
1329.26191	696.0
1329.798791	691.4000244
1330.335617	694.7999878
1330.872386	691.7999878
1331.4091	693.7999878
1331.945758	692.7999878
1332.48236	691.5999756
1333.018905	694.2000122
1333.555395	694.5999756
1334.091829	695.4000244
1334.628207	693.5999756
1335.164529	695.0
1335.700796	693.5999756
1336.237006	695.7999878
1336.77316	694.0
1337.309259	694.0
1337.845301	693.0
1338.381288	694.5999756
1338.917219	696.0
1339.453094	694.4000244
1339.988913	691.0
1340.524676	697.0
1341.060383	694.2000122
1341.596034	697.0
1342.13163	694.7999878
1342.66717	692.0
1343.202653	692.2000122
1343.738081	694.2000122
1344.273453	693.4000244
1344.80877	698.7999878
1345.34403	694.5999756
1345.879235	695.7999878
1346.414383	694.2000122
1346.949476	692.5999756
1347.484513	691.5999756
1348.019494	689.7999878
1348.55442	694.2000122
1349.089289	691.5999756
1349.624103	694.2000122
1350.158861	698.2000122
1350.693563	694.2000122
1351.228209	695.5999756
1351.7628	696.2000122
1352.297334	696.7999878
1352.831813	697.7999878
1353.366236	695.0
1353.900604	694.2000122
1354.434915	692.5999756
1354.969171	692.7999878
1355.503371	695.7999878
1356.037515	693.7999878
1356.571604	695.2000122
1357.105636	693.4000244
1357.639613	695.4000244
1358.173535	694.2000122
1358.7074	696.2000122
1359.24121	700.0
1359.774964	694.4000244
1360.308662	699.5999756
1360.842304	692.0
1361.375891	695.2000122
1361.909422	690.0
1362.442897	693.2000122
1362.976317	699.2000122
1363.50968	697.2000122
1364.042989	697.2000122
1364.576241	695.7999878
1365.109438	694.0
1365.642579	698.2000122
1366.175664	696.2000122
1366.708693	695.0
1367.241667	697.4000244
1367.774585	697.7999878
1368.307448	695.5999756
1368.840255	699.0
1369.373006	691.7999878
1369.905701	695.4000244
1370.438341	704.0
1370.970925	710.5999756
1371.503454	700.7999878
1372.035926	696.7999878
1372.568344	696.7999878
1373.100705	698.4000244
1373.633011	699.0
1374.165261	695.2000122
1374.697456	701.0
1375.229595	698.4000244
1375.761678	697.0
1376.293705	694.7999878
1376.825677	695.2000122
1377.357594	696.7999878
1377.889455	699.4000244
1378.42126	703.7999878
1378.953009	698.2000122
1379.484703	695.7999878
1380.016342	703.7999878
1380.547924	698.5999756
1381.079452	696.7999878
1381.610923	697.7999878
1382.142339	705.0
1382.673699	699.4000244
1383.205004	702.4000244
1383.736253	705.5999756
1384.267447	701.5999756
1384.798585	708.7999878
1385.329668	704.7999878
1385.860695	716.0
1386.391666	725.5999756
1386.922582	746.0
1387.453442	769.5999756
1387.984247	882.4000244
1388.514996	1214.599976
1389.04569	1465.0
1389.576328	1100.400024
1390.10691	819.2000122
1390.637437	743.4000244
1391.167909	720.7999878
1391.698325	710.7999878
1392.228685	707.4000244
1392.75899	707.0
1393.28924	703.7999878
1393.819434	704.4000244
1394.349572	704.5999756
1394.879655	693.7999878
1395.409683	702.0
1395.939655	700.2000122
1396.469571	698.0
1396.999432	696.5999756
1397.529237	698.0
1398.058987	696.0
1398.588682	699.5999756
1399.118321	696.0
1399.647905	696.2000122
1400.177433	699.5999756
1400.706906	700.0
1401.236323	696.0
1401.765685	694.0
1402.294991	696.0
1402.824242	698.2000122
1403.353437	695.4000244
1403.882577	696.5999756
1404.411662	696.2000122
1404.940691	701.0
1405.469665	696.5999756
1405.998583	695.5999756
1406.527446	698.4000244
1407.056253	698.2000122
1407.585005	702.7999878
1408.113702	703.7999878
1408.642343	706.0
1409.170929	722.2000122
1409.69946	732.2000122
1410.227935	746.4000244
1410.756354	739.5999756
1411.284719	718.5999756
1411.813028	706.4000244
1412.341281	697.2000122
1412.869479	700.5999756
1413.397622	699.0
1413.92571	700.0
1414.453742	697.5999756
1414.981718	697.5999756
1415.50964	707.7999878
1416.037506	693.2000122
1416.565316	696.5999756
1417.093072	701.0
1417.620772	695.7999878
1418.148416	697.5999756
1418.676005	697.5999756
1419.203539	693.5999756
1419.731018	699.0
1420.258441	693.4000244
1420.785809	694.2000122
1421.313122	696.5999756
1421.840379	694.5999756
1422.367582	696.4000244
1422.894728	698.0
1423.42182	693.7999878
1423.948856	695.2000122
1424.475837	693.0
1425.002762	694.2000122
1425.529633	700.2000122
1426.056448	696.0
1426.583207	695.5999756
1427.109912	693.5999756
1427.636561	696.5999756
1428.163155	696.0
1428.689694	694.2000122
1429.216177	698.4000244
1429.742605	694.7999878
1430.268978	695.0
1430.795296	693.4000244
1431.321558	695.2000122
1431.847765	691.4000244
1432.373917	695.4000244
1432.900014	694.7999878
1433.426056	692.4000244
1433.952042	695.2000122
1434.477973	693.7999878
1435.003849	697.4000244
1435.529669	695.2000122
1436.055435	693.2000122
1436.581145	693.0
1437.1068	694.0
1437.632399	697.2000122
1438.157944	695.5999756
1438.683433	695.2000122
1439.208868	696.5999756
1439.734247	694.0
1440.25957	692.4000244
1440.784839	693.5999756
1441.310053	696.0
1441.835211	692.5999756
1442.360314	693.2000122
1442.885362	691.2000122
1443.410355	694.7999878
1443.935292	695.0
1444.460175	691.4000244
1444.985002	691.5999756
1445.509774	697.2000122
1446.034491	698.0
1446.559153	692.0
1447.08376	691.2000122
1447.608312	696.5999756
1448.132808	691.7999878
1448.65725	690.7999878
1449.181636	691.4000244
1449.705967	692.0
1450.230243	693.0
1450.754464	693.4000244
1451.27863	695.0
1451.802741	689.5999756
1452.326797	693.0
1452.850797	694.5999756
1453.374743	694.0
1453.898633	692.5999756
1454.422468	693.7999878
1454.946249	695.0
1455.469974	691.7999878
1455.993644	691.4000244
1456.517259	693.2000122
1457.040819	693.2000122
1457.564324	692.2000122
1458.087773	696.4000244
1458.611168	694.0
1459.134508	694.4000244
1459.657793	694.4000244
1460.181022	693.7999878
1460.704197	692.5999756
1461.227316	694.5999756
1461.750381	694.5999756
1462.27339	693.4000244
1462.796345	694.2000122
1463.319244	692.7999878
1463.842089	697.5999756
1464.364878	694.4000244
1464.887613	692.5999756
1465.410292	694.2000122
1465.932916	694.2000122
1466.455486	691.0
1466.978	695.7999878
1467.50046	691.7999878
1468.022864	693.2000122
1468.545214	697.5999756
1469.067508	693.2000122
1469.589748	694.4000244
1470.111932	695.4000244
1470.634062	696.0
1471.156136	692.5999756
1471.678156	694.4000244
1472.20012	695.4000244
1472.72203	694.7999878
1473.243885	694.0
1473.765685	695.5999756
1474.28743	691.7999878
1474.80912	696.0
1475.330755	692.7999878
1475.852335	692.7999878
1476.37386	695.2000122
1476.89533	691.4000244
1477.416745	694.5999756
1477.938106	692.7999878
1478.459411	689.7999878
1478.980662	693.4000244
1479.501857	695.0
1480.022998	693.7999878
1480.544084	693.0
1481.065115	694.0
1481.586091	694.2000122
1482.107012	693.4000244
1482.627878	695.4000244
1483.14869	689.0
1483.669446	691.2000122
1484.190148	696.2000122
1484.710794	692.7999878
1485.231386	694.4000244
1485.751923	696.7999878
1486.272406	694.4000244
1486.792833	695.4000244
1487.313205	694.5999756
1487.833523	693.5999756
1488.353786	695.7999878
1488.873994	691.2000122
1489.394147	690.7999878
1489.914245	694.2000122
1490.434288	689.4000244
1490.954277	695.2000122
1491.474211	692.0
1491.99409	696.4000244
1492.513914	695.4000244
1493.033683	693.4000244
1493.553398	692.2000122
1494.073057	689.0
1494.592662	693.5999756
1495.112212	690.4000244
1495.631708	693.7999878
1496.151148	698.7999878
1496.670534	693.2000122
1497.189865	690.0
1497.709141	692.2000122
1498.228362	693.2000122
1498.747529	694.4000244
1499.266641	688.7999878
1499.785698	700.2000122
1500.3047	692.2000122
1500.823648	692.2000122
1501.34254	695.7999878
1501.861379	689.0
1502.380162	694.5999756
1502.89889	692.7999878
1503.417564	694.4000244
1503.936183	690.2000122
1504.454748	693.7999878
1504.973257	692.5999756
1505.491712	692.7999878
1506.010112	694.2000122
1506.528458	691.2000122
1507.046748	691.2000122
1507.564984	693.7999878
1508.083166	696.5999756
1508.601292	696.7999878
1509.119364	690.7999878
1509.637381	693.2000122
1510.155344	692.5999756
1510.673252	695.2000122
1511.191105	693.2000122
1511.708903	695.5999756
1512.226647	690.0
1512.744336	696.4000244
1513.261971	695.7999878
1513.77955	693.4000244
1514.297076	692.5999756
1514.814546	696.0
1515.331962	692.4000244
1515.849323	690.7999878
1516.366629	693.0
1516.883881	692.7999878
1517.401078	691.5999756
1517.918221	691.4000244
1518.435309	691.4000244
1518.952342	692.4000244
1519.469321	692.2000122
1519.986245	694.0
1520.503114	694.4000244
1521.019929	688.5999756
1521.536689	697.7999878
1522.053395	689.7999878
1522.570046	692.0
1523.086642	692.0
1523.603184	693.2000122
1524.119671	693.7999878
1524.636103	691.2000122
1525.152481	692.5999756
1525.668805	697.2000122
1526.185073	691.7999878
1526.701288	692.5999756
1527.217447	690.5999756
1527.733552	694.7999878
1528.249603	691.5999756
1528.765599	692.0
1529.28154	695.7999878
1529.797427	691.5999756
1530.313259	695.7999878
1530.829037	697.2000122
1531.34476	694.7999878
1531.860429	692.7999878
1532.376043	692.4000244
1532.891602	697.4000244
1533.407107	690.7999878
1533.922558	691.4000244
1534.437954	692.7999878
1534.953295	695.7999878
1535.468582	692.4000244
1535.983815	697.2000122
1536.498993	689.5999756
1537.014116	690.5999756
1537.529185	695.0
1538.044199	694.0
1538.559159	697.4000244
1539.074064	693.5999756
1539.588915	693.4000244
1540.103712	692.2000122
1540.618454	697.0
1541.133141	697.0
1541.647774	693.7999878
1542.162353	688.7999878
1542.676877	693.5999756
1543.191346	692.0
1543.705761	694.2000122
1544.220122	689.7999878
1544.734428	690.7999878
1545.24868	692.4000244
1545.762877	693.2000122
1546.27702	692.0
1546.791109	691.4000244
1547.305143	692.7999878
1547.819122	695.2000122
1548.333047	691.2000122
1548.846918	697.4000244
1549.360734	694.0
1549.874496	689.2000122
1550.388204	694.4000244
1550.901857	694.7999878
1551.415455	695.0
1551.929	695.4000244
1552.442489	689.2000122
1552.955925	690.2000122
1553.469306	691.4000244
1553.982632	692.7999878
1554.495905	690.0
1555.009123	693.7999878
1555.522286	692.0
1556.035395	689.7999878
1556.54845	689.4000244
1557.06145	693.4000244
1557.574396	693.4000244
1558.087288	695.2000122
1558.600125	692.7999878
1559.112908	691.5999756
1559.625637	692.5999756
1560.138311	691.4000244
1560.650931	690.2000122
1561.163497	694.2000122
1561.676008	696.5999756
1562.188465	691.4000244
1562.700867	690.2000122
1563.213216	693.7999878
1563.725509	691.0
1564.237749	689.7999878
1564.749934	692.5999756
1565.262065	695.0
1565.774142	694.5999756
1566.286164	691.2000122
1566.798132	694.4000244
1567.310046	692.7999878
1567.821906	694.2000122
1568.333711	697.2000122
1568.845462	694.5999756
1569.357158	690.4000244
1569.868801	691.2000122
1570.380389	692.2000122
1570.891922	692.5999756
1571.403402	694.2000122
1571.914827	698.0
1572.426198	689.5999756
1572.937515	691.0
1573.448777	694.4000244
1573.959985	691.5999756
1574.471139	690.7999878
1574.982239	693.7999878
1575.493285	695.0
1576.004276	698.0
1576.515213	692.5999756
1577.026096	693.7999878
1577.536924	692.2000122
1578.047698	693.2000122
1578.558419	693.7999878
1579.069084	691.4000244
1579.579696	694.5999756
1580.090254	693.7999878
1580.600757	696.0
1581.111206	694.4000244
1581.621601	691.2000122
1582.131941	694.0
1582.642228	694.0
1583.15246	693.0
1583.662638	693.7999878
1584.172762	695.4000244
1584.682832	692.0
1585.192847	693.7999878
1585.702809	691.5999756
1586.212716	695.4000244
1586.722569	694.2000122
1587.232368	693.4000244
1587.742113	692.2000122
1588.251803	691.5999756
1588.76144	691.0
1589.271022	690.7999878
1589.78055	693.4000244
1590.290024	694.5999756
1590.799444	691.5999756
1591.30881	693.0
1591.818121	698.5999756
1592.327379	691.0
