1042.414189	685.0
1042.980685	685.4000244
1043.547124	686.0
1044.113505	684.5999756
1044.679828	683.0
1045.246093	682.4000244
1045.8123	682.0
1046.378449	682.4000244
1046.94454	682.2000122
1047.510573	681.0
1048.076548	680.7999878
1048.642465	674.5999756
1049.208325	677.2000122
1049.774126	678.2000122
1050.339869	676.5999756
1050.905555	680.5999756
1051.471183	675.5999756
1052.036752	676.4000244
1052.602264	673.4000244
1053.167718	676.5999756
1053.733114	673.0
1054.298452	673.0
1054.863733	674.7999878
1055.428955	673.0
1055.994119	672.7999878
1056.559226	675.0
1057.124275	672.4000244
1057.689266	675.5999756
1058.254199	674.0
1058.819074	676.7999878
1059.383891	670.2000122
1059.94865	672.7999878
1060.513352	670.4000244
1061.077996	673.4000244
1061.642582	669.2000122
1062.20711	672.5999756
1062.77158	671.7999878
1063.335992	674.0
1063.900347	669.0
1064.464643	668.5999756
1065.028882	672.0
1065.593063	672.0
1066.157187	672.7999878
1066.721252	672.2000122
1067.28526	671.7999878
1067.84921	670.2000122
1068.413102	672.0
1068.976936	673.5999756
1069.540713	671.4000244
1070.104431	675.4000244
1070.668092	667.5999756
1071.231696	675.5999756
1071.795241	671.0
1072.358729	670.7999878
1072.922159	672.2000122
1073.485531	670.0
1074.048845	672.4000244
1074.612102	671.0
1075.175301	669.7999878
1075.738442	672.0
1076.301525	671.2000122
1076.864551	672.4000244
1077.427519	669.5999756
1077.990429	673.0
1078.553281	669.2000122
1079.116076	670.0
1079.678813	669.7999878
1080.241492	672.7999878
1080.804114	669.2000122
1081.366678	670.7999878
1081.929184	670.2000122
1082.491633	672.2000122
1083.054024	671.7999878
1083.616357	670.7999878
1084.178632	672.2000122
1084.74085	668.0
1085.30301	671.2000122
1085.865113	666.5999756
1086.427158	667.7999878
1086.989145	671.2000122
1087.551074	667.0
1088.112946	672.5999756
1088.67476	671.2000122
1089.236517	670.2000122
1089.798216	667.4000244
1090.359857	670.5999756
1090.92144	672.0
1091.482966	670.4000244
1092.044435	671.2000122
1092.605845	670.5999756
1093.167199	673.0
1093.728494	671.7999878
1094.289732	668.7999878
1094.850912	670.7999878
1095.412035	679.5999756
1095.9731	672.2000122
1096.534107	672.4000244
1097.095057	675.0
1097.65595	670.5999756
1098.216784	670.4000244
1098.777561	669.2000122
1099.338281	671.2000122
1099.898943	669.4000244
1100.459547	670.0
1101.020094	671.2000122
1101.580584	669.0
1102.141015	670.4000244
1102.701389	669.7999878
1103.261706	670.7999878
1103.821965	672.7999878
1104.382167	668.5999756
1104.942311	670.5999756
1105.502397	669.5999756
1106.062426	672.0
1106.622398	671.5999756
1107.182312	668.4000244
1107.742168	672.0
1108.301967	669.2000122
1108.861708	670.2000122
1109.421392	670.2000122
1109.981019	671.2000122
1110.540587	672.2000122
1111.100099	672.0
1111.659553	669.7999878
1112.218949	672.0
1112.778288	667.5999756
1113.33757	667.2000122
1113.896794	671.5999756
1114.45596	670.7999878
1115.015069	675.2000122
1115.574121	672.5999756
1116.133115	672.0
1116.692052	670.5999756
1117.250931	669.7999878
1117.809753	669.4000244
1118.368517	670.5999756
1118.927224	669.2000122
1119.485873	670.4000244
1120.044465	668.2000122
1120.603	673.7999878
1121.161477	671.2000122
1121.719897	669.2000122
1122.278259	668.7999878
1122.836564	671.7999878
1123.394812	668.0
1123.953002	669.2000122
1124.511135	672.2000122
1125.06921	672.2000122
1125.627228	672.0
1126.185189	673.5999756
1126.743092	670.4000244
1127.300938	670.2000122
1127.858726	669.4000244
1128.416457	668.0
1128.974131	670.0
1129.531748	672.4000244
1130.089307	670.7999878
1130.646808	668.0
1131.204252	669.7999878
1131.761639	669.2000122
1132.318969	670.4000244
1132.876241	670.7999878
1133.433456	671.4000244
1133.990614	669.2000122
1134.547714	672.2000122
1135.104757	673.2000122
1135.661743	670.0
1136.218671	669.0
1136.775542	672.4000244
1137.332356	668.7999878
1137.889112	671.0
1138.445811	670.4000244
1139.002453	672.5999756
1139.559037	670.7999878
1140.115565	670.2000122
1140.672035	668.2000122
1141.228447	673.2000122
1141.784803	671.0
1142.341101	670.4000244
1142.897342	671.4000244
1143.453525	673.7999878
1144.009651	668.4000244
1144.565721	671.5999756
1145.121732	669.2000122
1145.677687	672.5999756
1146.233584	671.5999756
1146.789424	670.7999878
1147.345207	672.5999756
1147.900933	675.0
1148.456601	670.4000244
1149.012212	672.0
1149.567766	674.0
1150.123263	676.7999878
1150.678702	686.4000244
1151.234085	685.7999878
1151.78941	676.5999756
1152.344678	669.2000122
1152.899888	671.7999878
1153.455042	672.4000244
1154.010138	669.0
1154.565177	671.0
1155.120159	672.7999878
1155.675084	668.2000122
1156.229951	670.4000244
1156.784762	669.7999878
1157.339515	671.7999878
1157.894211	672.7999878
1158.44885	669.2000122
1159.003432	672.4000244
1159.557956	670.5999756
1160.112424	671.4000244
1160.666834	668.2000122
1161.221187	669.5999756
1161.775483	671.7999878
1162.329722	672.0
1162.883904	672.5999756
1163.438029	670.2000122
1163.992096	671.4000244
1164.546107	670.7999878
1165.10006	671.7999878
1165.653956	671.5999756
1166.207795	669.0
1166.761577	671.0
1167.315302	670.0
1167.86897	672.5999756
1168.422581	671.5999756
1168.976134	666.7999878
1169.529631	671.5999756
1170.08307	671.4000244
1170.636453	670.0
1171.189778	672.0
1171.743046	672.4000244
1172.296257	670.4000244
1172.849412	670.0
1173.402509	672.7999878
1173.955549	669.2000122
1174.508532	672.7999878
1175.061458	672.7999878
1175.614327	670.0
1176.167138	672.0
1176.719893	672.5999756
1177.272591	672.2000122
1177.825232	670.2000122
1178.377816	669.4000244
1178.930342	666.7999878
1179.482812	673.7999878
1180.035225	669.0
1180.587581	669.7999878
1181.139879	672.0
1181.692121	670.2000122
1182.244306	669.0
1182.796434	669.4000244
1183.348504	668.4000244
1183.900518	673.4000244
1184.452475	672.0
1185.004375	674.7999878
1185.556218	670.4000244
1186.108004	671.7999878
1186.659733	670.5999756
1187.211405	669.2000122
1187.76302	673.4000244
1188.314578	673.5999756
1188.866079	671.7999878
1189.417523	671.2000122
1189.96891	671.5999756
1190.520241	672.0
1191.071514	671.2000122
1191.622731	669.0
1192.17389	668.4000244
1192.724993	671.0
1193.276039	685.7999878
1193.827027	671.2000122
1194.377959	673.4000244
1194.928834	672.0
1195.479653	672.0
1196.030414	712.4000244
1196.581118	808.7999878
1197.131766	676.5999756
1197.682356	669.7999878
1198.23289	670.5999756
1198.783367	670.5999756
1199.333786	671.2000122
1199.88415	672.5999756
1200.434456	670.0
1200.984705	671.4000244
1201.534898	671.5999756
1202.085033	671.0
1202.635112	668.4000244
1203.185134	670.0
1203.735099	670.7999878
1204.285007	670.7999878
1204.834859	671.2000122
1205.384653	670.4000244
1205.934391	673.7999878
1206.484072	671.5999756
1207.033696	671.4000244
1207.583263	673.4000244
1208.132774	670.0
1208.682228	670.2000122
1209.231624	671.7999878
1209.780965	669.5999756
1210.330248	669.4000244
1210.879474	672.2000122
1211.428644	669.2000122
1211.977757	671.5999756
1212.526813	668.4000244
1213.075813	672.7999878
1213.624755	673.4000244
1214.173641	667.5999756
1214.72247	672.7999878
1215.271242	670.0
1215.819958	672.0
1216.368617	669.2000122
1216.917219	672.4000244
1217.465764	672.5999756
1218.014253	669.5999756
1218.562685	668.4000244
1219.11106	674.2000122
1219.659378	673.7999878
1220.20764	673.2000122
1220.755845	669.5999756
1221.303993	671.0
1221.852085	669.4000244
1222.400119	670.5999756
1222.948097	671.2000122
1223.496019	672.0
1224.043883	669.7999878
1224.591691	674.2000122
1225.139443	670.2000122
1225.687137	670.5999756
1226.234775	671.5999756
1226.782357	669.0
1227.329881	669.2000122
1227.877349	674.2000122
1228.42476	668.5999756
1228.972115	669.7999878
1229.519413	669.2000122
1230.066654	672.2000122
1230.613839	671.0
1231.160967	673.5999756
1231.708038	673.4000244
1232.255053	672.2000122
1232.802011	671.2000122
1233.348912	669.5999756
1233.895757	671.5999756
1234.442545	670.4000244
1234.989277	673.7999878
1235.535951	670.5999756
1236.08257	670.5999756
1236.629131	668.5999756
1237.175636	668.5999756
1237.722085	673.0
1238.268477	672.2000122
1238.814812	671.0
1239.361091	669.2000122
1239.907313	671.0
1240.453478	674.5999756
1240.999587	671.0
1241.54564	669.5999756
1242.091636	670.2000122
1242.637575	671.4000244
1243.183457	670.0
1243.729284	671.4000244
1244.275053	674.7999878
1244.820766	671.4000244
1245.366423	670.7999878
1245.912022	671.7999878
1246.457566	672.2000122
1247.003053	671.7999878
1247.548483	672.2000122
1248.093857	673.5999756
1248.639174	671.2000122
1249.184435	669.4000244
1249.729639	671.4000244
1250.274787	671.0
1250.819878	671.4000244
1251.364912	672.2000122
1251.909891	671.2000122
1252.454812	673.0
1252.999677	670.5999756
1253.544486	671.5999756
1254.089238	672.4000244
1254.633934	669.7999878
1255.178573	672.4000244
1255.723156	669.2000122
1256.267682	673.5999756
1256.812152	672.7999878
1257.356565	671.4000244
1257.900922	672.5999756
1258.445223	670.7999878
1258.989467	671.5999756
1259.533654	673.2000122
1260.077785	680.7999878
1260.62186	673.2000122
1261.165878	672.7999878
1261.70984	673.0
1262.253745	672.2000122
1262.797594	674.4000244
1263.341386	673.0
1263.885123	675.0
1264.428802	676.5999756
1264.972425	679.0
1265.515992	678.0
1266.059503	676.5999756
1266.602957	672.0
1267.146354	673.0
1267.689696	674.0
1268.23298	674.7999878
1268.776209	671.5999756
1269.319381	673.5999756
1269.862497	671.4000244
1270.405556	672.5999756
1270.948559	672.2000122
1271.491506	674.7999878
1272.034396	673.4000244
1272.57723	672.4000244
1273.120007	672.7999878
1273.662728	671.7999878
1274.205393	672.2000122
1274.748002	671.7999878
1275.290554	669.4000244
1275.83305	673.2000122
1276.375489	674.2000122
1276.917872	670.7999878
1277.460199	672.5999756
1278.00247	671.2000122
1278.544684	673.0
1279.086842	672.7999878
1279.628943	672.0
1280.170989	673.2000122
1280.712978	673.7999878
1281.25491	671.0
1281.796787	676.2000122
1282.338607	675.7999878
1282.880371	677.4000244
1283.422078	684.0
1283.963729	694.2000122
1284.505324	721.7999878
1285.046863	767.7999878
1285.588345	791.7999878
1286.129772	735.2000122
1286.671142	694.4000244
1287.212455	682.2000122
1287.753713	676.7999878
1288.294914	676.5999756
1288.836059	675.0
1289.377147	671.4000244
1289.91818	671.0
1290.459156	672.2000122
1291.000076	672.7999878
1291.54094	674.5999756
1292.081747	672.2000122
1292.622499	674.7999878
1293.163194	672.2000122
1293.703833	671.2000122
1294.244415	668.7999878
1294.784942	671.2000122
1295.325412	674.0
1295.865826	669.4000244
1296.406184	671.7999878
1296.946486	672.7999878
1297.486731	670.4000244
1298.026921	673.4000244
1298.567054	673.0
1299.107131	671.0
1299.647152	672.5999756
1300.187116	672.0
1300.727025	673.2000122
1301.266877	669.5999756
1301.806673	671.2000122
1302.346413	672.2000122
1302.886097	673.2000122
1303.425725	672.0
1303.965297	672.7999878
1304.504812	674.0
1305.044272	671.4000244
1305.583675	669.7999878
1306.123022	672.5999756
1306.662313	671.7999878
1307.201548	673.5999756
1307.740727	670.7999878
1308.279849	670.2000122
1308.818916	672.5999756
1309.357926	671.7999878
1309.896881	671.7999878
1310.435779	668.0
1310.974621	668.5999756
1311.513407	671.7999878
1312.052137	671.5999756
1312.590811	671.7999878
1313.129429	668.7999878
1313.667991	671.4000244
1314.206497	671.7999878
1314.744946	672.7999878
1315.28334	671.2000122
1315.821678	674.5999756
1316.359959	670.5999756
1316.898184	670.2000122
1317.436354	671.0
1317.974467	671.4000244
1318.512525	671.0
1319.050526	670.2000122
1319.588471	670.2000122
1320.12636	672.0
1320.664194	672.2000122
1321.201971	667.0
1321.739692	674.4000244
1322.277357	670.0
1322.814967	672.7999878
1323.35252	673.0
1323.890017	676.2000122
1324.427458	673.0
1324.964843	670.4000244
1325.502173	671.4000244
1326.039446	674.4000244
1326.576663	669.4000244
1327.113824	671.0
1327.65093	671.5999756
1328.187979	670.2000122
1328.724972	671.2000122
1329.26191	671.2000122
1329.798791	674.4000244
1330.335617	669.4000244
1330.872386	668.7999878
1331.4091	672.7999878
1331.945758	673.0
1332.48236	670.4000244
1333.018905	670.2000122
1333.555395	672.2000122
1334.091829	673.0
1334.628207	672.0
1335.164529	671.2000122
1335.700796	673.2000122
1336.237006	667.7999878
1336.77316	668.0
1337.309259	674.7999878
1337.845301	672.0
1338.381288	674.4000244
1338.917219	672.5999756
1339.453094	670.5999756
1339.988913	671.5999756
1340.524676	671.0
1341.060383	671.7999878
1341.596034	672.0
1342.13163	671.0
1342.66717	673.4000244
1343.202653	672.2000122
1343.738081	671.2000122
1344.273453	672.0
1344.80877	671.5999756
1345.34403	673.5999756
1345.879235	673.2000122
1346.414383	671.7999878
1346.949476	669.7999878
1347.484513	672.2000122
1348.019494	671.4000244
1348.55442	673.0
1349.089289	673.0
1349.624103	671.7999878
1350.158861	671.5999756
1350.693563	670.0
1351.228209	672.2000122
1351.7628	671.5999756
1352.297334	673.7999878
1352.831813	672.5999756
1353.366236	671.5999756
1353.900604	672.7999878
1354.434915	671.0
1354.969171	672.2000122
1355.503371	670.4000244
1356.037515	671.4000244
1356.571604	672.2000122
1357.105636	672.7999878
1357.639613	672.4000244
1358.173535	672.0
1358.7074	670.7999878
1359.24121	674.7999878
1359.774964	671.4000244
1360.308662	671.0
1360.842304	672.2000122
1361.375891	673.5999756
1361.909422	671.7999878
1362.442897	674.5999756
1362.976317	670.0
1363.50968	665.7999878
1364.042989	672.4000244
1364.576241	670.2000122
1365.109438	671.0
1365.642579	674.2000122
1366.175664	673.5999756
1366.708693	670.2000122
1367.241667	673.0
1367.774585	670.4000244
1368.307448	675.4000244
1368.840255	670.7999878
1369.373006	671.2000122
1369.905701	672.7999878
1370.438341	677.4000244
1370.970925	676.0
1371.503454	672.5999756
1372.035926	674.2000122
1372.568344	672.5999756
1373.100705	675.4000244
1373.633011	671.0
1374.165261	671.4000244
1374.697456	670.5999756
1375.229595	675.0
1375.761678	668.4000244
1376.293705	676.7999878
1376.825677	672.4000244
1377.357594	675.5999756
1377.889455	673.0
1378.42126	675.7999878
1378.953009	672.5999756
1379.484703	672.2000122
1380.016342	671.7999878
1380.547924	674.5999756
1381.079452	672.5999756
1381.610923	673.4000244
1382.142339	674.5999756
1382.673699	675.4000244
1383.205004	675.5999756
1383.736253	670.4000244
1384.267447	674.4000244
1384.798585	674.7999878
1385.329668	677.5999756
1385.860695	680.2000122
1386.391666	679.5999756
1386.922582	685.7999878
1387.453442	698.0
1387.984247	733.5999756
1388.514996	841.5999756
1389.04569	892.5999756
1389.576328	781.5999756
1390.10691	709.2000122
1390.637437	686.4000244
1391.167909	679.2000122
1391.698325	675.2000122
1392.228685	676.4000244
1392.75899	673.4000244
1393.28924	676.0
1393.819434	676.2000122
1394.349572	674.7999878
1394.879655	672.7999878
1395.409683	674.0
1395.939655	671.4000244
1396.469571	671.7999878
1396.999432	673.7999878
1397.529237	669.2000122
1398.058987	673.4000244
1398.588682	673.5999756
1399.118321	672.5999756
1399.647905	672.7999878
1400.177433	674.5999756
1400.706906	674.7999878
1401.236323	671.0
1401.765685	671.7999878
1402.294991	672.5999756
1402.824242	673.7999878
1403.353437	674.2000122
1403.882577	670.0
1404.411662	673.2000122
1404.940691	672.4000244
1405.469665	672.7999878
1405.998583	673.7999878
1406.527446	672.7999878
1407.056253	674.5999756
1407.585005	676.2000122
1408.113702	675.4000244
1408.642343	676.4000244
1409.170929	679.4000244
1409.69946	681.7999878
1410.227935	686.0
1410.756354	685.7999878
1411.284719	680.0
1411.813028	677.2000122
1412.341281	674.2000122
1412.869479	670.4000244
1413.397622	670.7999878
1413.92571	671.4000244
1414.453742	671.0
1414.981718	673.0
1415.50964	681.4000244
1416.037506	673.0
1416.565316	672.5999756
1417.093072	669.5999756
1417.620772	670.7999878
1418.148416	673.0
1418.676005	673.2000122
1419.203539	673.2000122
1419.731018	671.0
1420.258441	674.5999756
1420.785809	674.0
1421.313122	671.2000122
1421.840379	672.2000122
1422.367582	670.4000244
1422.894728	675.5999756
1423.42182	669.7999878
1423.948856	671.2000122
1424.475837	673.0
1425.002762	674.2000122
1425.529633	673.4000244
1426.056448	672.2000122
1426.583207	671.7999878
1427.109912	672.0
1427.636561	675.0
1428.163155	672.2000122
1428.689694	673.7999878
1429.216177	673.0
1429.742605	676.4000244
1430.268978	668.7999878
1430.795296	671.2000122
1431.321558	672.5999756
1431.847765	672.4000244
1432.373917	671.5999756
1432.900014	674.5999756
1433.426056	674.7999878
1433.952042	673.0
1434.477973	672.5999756
1435.003849	674.2000122
1435.529669	673.4000244
1436.055435	672.5999756
1436.581145	669.2000122
1437.1068	672.0
1437.632399	670.7999878
1438.157944	669.4000244
1438.683433	674.7999878
1439.208868	671.0
1439.734247	669.4000244
1440.25957	672.0
1440.784839	671.5999756
1441.310053	671.4000244
1441.835211	671.7999878
1442.360314	672.2000122
1442.885362	672.7999878
1443.410355	670.7999878
1443.935292	672.5999756
1444.460175	672.2000122
1444.985002	672.4000244
1445.509774	670.4000244
1446.034491	670.4000244
1446.559153	672.0
1447.08376	670.0
1447.608312	671.0
1448.132808	673.5999756
1448.65725	670.0
1449.181636	674.2000122
1449.705967	671.4000244
1450.230243	671.5999756
1450.754464	670.5999756
1451.27863	669.7999878
1451.802741	668.4000244
1452.326797	672.7999878
1452.850797	669.5999756
1453.374743	671.2000122
1453.898633	672.2000122
1454.422468	672.5999756
1454.946249	672.0
1455.469974	672.7999878
1455.993644	671.0
1456.517259	671.0
1457.040819	671.4000244
1457.564324	671.4000244
1458.087773	671.7999878
1458.611168	671.5999756
1459.134508	674.4000244
1459.657793	672.0
1460.181022	669.7999878
1460.704197	674.4000244
1461.227316	673.0
1461.750381	671.7999878
1462.27339	671.7999878
1462.796345	674.2000122
1463.319244	669.7999878
1463.842089	672.7999878
1464.364878	672.0
1464.887613	671.0
1465.410292	672.2000122
1465.932916	672.2000122
1466.455486	669.5999756
1466.978	673.2000122
1467.50046	671.0
1468.022864	669.5999756
1468.545214	673.0
1469.067508	672.2000122
1469.589748	669.2000122
1470.111932	673.7999878
1470.634062	669.7999878
1471.156136	672.7999878
1471.678156	668.2000122
1472.20012	672.5999756
1472.72203	670.7999878
1473.243885	672.0
1473.765685	674.2000122
1474.28743	669.5999756
1474.80912	670.7999878
1475.330755	672.5999756
1475.852335	673.2000122
1476.37386	673.2000122
1476.89533	670.4000244
1477.416745	669.7999878
1477.938106	670.2000122
1478.459411	672.4000244
1478.980662	672.5999756
1479.501857	669.5999756
1480.022998	672.0
1480.544084	670.5999756
1481.065115	669.5999756
1481.586091	671.0
1482.107012	674.4000244
1482.627878	671.4000244
1483.14869	670.2000122
1483.669446	672.7999878
1484.190148	671.0
1484.710794	669.0
1485.231386	671.0
1485.751923	670.7999878
1486.272406	670.2000122
1486.792833	669.2000122
1487.313205	672.5999756
1487.833523	669.5999756
1488.353786	672.5999756
1488.873994	674.2000122
1489.394147	670.7999878
1489.914245	673.4000244
1490.434288	671.4000244
1490.954277	669.5999756
1491.474211	670.2000122
1491.99409	670.4000244
1492.513914	671.4000244
1493.033683	671.5999756
1493.553398	673.4000244
1494.073057	671.7999878
1494.592662	670.4000244
1495.112212	671.4000244
1495.631708	670.4000244
1496.151148	672.7999878
1496.670534	674.5999756
1497.189865	670.2000122
1497.709141	671.5999756
1498.228362	669.4000244
1498.747529	672.2000122
1499.266641	670.0
1499.785698	678.5999756
1500.3047	671.7999878
1500.823648	673.2000122
1501.34254	672.4000244
1501.861379	670.7999878
1502.380162	671.0
1502.89889	672.4000244
1503.417564	671.4000244
1503.936183	669.4000244
1504.454748	669.7999878
1504.973257	671.5999756
1505.491712	669.5999756
1506.010112	673.5999756
1506.528458	672.0
1507.046748	668.7999878
1507.564984	671.7999878
1508.083166	668.7999878
1508.601292	670.7999878
1509.119364	673.2000122
1509.637381	668.2000122
1510.155344	670.2000122
1510.673252	681.0
1511.191105	668.0
1511.708903	673.4000244
1512.226647	674.4000244
1512.744336	670.0
1513.261971	670.2000122
1513.77955	673.4000244
1514.297076	673.0
1514.814546	669.0
1515.331962	670.5999756
1515.849323	671.4000244
1516.366629	668.7999878
1516.883881	672.2000122
1517.401078	673.5999756
1517.918221	668.4000244
1518.435309	672.5999756
1518.952342	669.4000244
1519.469321	672.2000122
1519.986245	671.5999756
1520.503114	671.5999756
1521.019929	672.5999756
1521.536689	671.4000244
1522.053395	672.0
1522.570046	672.5999756
1523.086642	671.4000244
1523.603184	673.2000122
1524.119671	670.7999878
1524.636103	673.4000244
1525.152481	671.0
1525.668805	674.5999756
1526.185073	671.7999878
1526.701288	670.0
1527.217447	673.5999756
1527.733552	670.4000244
1528.249603	669.7999878
1528.765599	671.5999756
1529.28154	670.7999878
1529.797427	670.7999878
1530.313259	671.2000122
1530.829037	670.4000244
1531.34476	672.0
1531.860429	673.0
1532.376043	670.5999756
1532.891602	675.7999878
1533.407107	672.0
1533.922558	671.4000244
1534.437954	670.5999756
1534.953295	670.7999878
1535.468582	671.2000122
1535.983815	672.4000244
1536.498993	669.0
1537.014116	672.7999878
1537.529185	670.2000122
1538.044199	670.7999878
1538.559159	672.5999756
1539.074064	670.7999878
1539.588915	671.0
1540.103712	670.5999756
1540.618454	673.0
1541.133141	672.5999756
1541.647774	670.0
1542.162353	670.2000122
1542.676877	672.2000122
1543.191346	670.7999878
1543.705761	671.4000244
1544.220122	672.0
1544.734428	672.2000122
1545.24868	670.2000122
1545.762877	670.5999756
1546.27702	673.2000122
1546.791109	671.7999878
1547.305143	669.5999756
1547.819122	672.5999756
1548.333047	669.7999878
1548.846918	671.2000122
1549.360734	673.7999878
1549.874496	672.4000244
1550.388204	673.0
1550.901857	671.7999878
1551.415455	673.4000244
1551.929	671.4000244
1552.442489	672.4000244
1552.955925	670.5999756
1553.469306	670.0
1553.982632	670.5999756
1554.495905	671.2000122
1555.009123	670.7999878
1555.522286	672.7999878
1556.035395	671.7999878
1556.54845	671.5999756
1557.06145	671.2000122
1557.574396	673.2000122
1558.087288	673.4000244
1558.600125	671.4000244
1559.112908	668.7999878
1559.625637	670.5999756
1560.138311	671.4000244
1560.650931	671.5999756
1561.163497	672.4000244
1561.676008	670.7999878
1562.188465	670.5999756
1562.700867	670.2000122
1563.213216	674.7999878
1563.725509	674.0
1564.237749	670.5999756
1565.774142	671.5999756
1566.286164	672.0
1566.798132	670.5999756
1567.310046	670.0
1567.821906	669.7999878
1568.333711	674.2000122
1568.845462	670.4000244
1569.357158	672.2000122
1569.868801	669.0
1570.380389	673.0
1570.891922	672.0
1571.403402	672.0
1571.914827	672.2000122
1572.426198	671.0
1572.937515	673.0
1573.448777	668.2000122
1573.959985	670.7999878
1574.471139	673.0
1574.982239	672.5999756
1575.493285	670.5999756
1576.004276	671.4000244
1576.515213	673.5999756
1577.026096	672.7999878
1577.536924	674.4000244
1578.047698	669.2000122
1578.558419	673.4000244
1579.069084	673.0
1579.579696	669.2000122
1580.090254	675.2000122
1580.600757	671.0
1581.111206	670.0
1581.621601	672.2000122
1582.131941	672.0
1582.642228	672.0
1583.15246	674.5999756
1583.662638	670.2000122
1584.172762	671.0
1584.682832	671.5999756
1585.192847	674.2000122
1585.702809	672.0
1586.212716	670.2000122
1586.722569	671.0
1587.232368	671.4000244
1587.742113	670.5999756
1588.251803	672.5999756
1588.76144	673.2000122
1589.271022	674.2000122
1589.78055	670.5999756
1590.290024	669.7999878
1590.799444	674.4000244
1591.30881	670.4000244
1591.818121	672.0
1592.327379	669.0
