1042.980685	860.0
1043.547124	855.0
1044.113505	860.0
1044.679828	851.0
1045.246093	846.0
1045.8123	851.0
1046.378449	855.0
1046.94454	860.0
1047.510573	850.0
1048.076548	835.0
1048.642465	853.0
1049.208325	834.0
1049.774126	841.0
1050.339869	846.0
1050.905555	851.0
1051.471183	831.0
1052.036752	849.0
1052.602264	822.0
1053.167718	847.0
1053.733114	836.0
1054.298452	854.0
1054.863733	829.0
1055.428955	827.0
1055.994119	842.0
1056.559226	831.0
1057.124275	834.0
1057.689266	846.0
1058.254199	833.0
1058.819074	845.0
1059.383891	840.0
1059.94865	839.0
1060.513352	854.0
1061.077996	823.0
1061.642582	843.0
1062.20711	829.0
1062.77158	839.0
1063.335992	826.0
1063.900347	847.0
1064.464643	842.0
1065.028882	830.0
1065.593063	835.0
1066.157187	829.0
1066.721252	825.0
1067.28526	841.0
1067.84921	828.0
1068.413102	849.0
1068.976936	832.0
1069.540713	836.0
1070.104431	829.0
1070.668092	827.0
1071.231696	829.0
1071.795241	836.0
1072.358729	844.0
1072.922159	841.0
1073.485531	822.0
1074.048845	829.0
1074.612102	826.0
1075.175301	827.0
1075.738442	827.0
1076.301525	835.0
1076.864551	842.0
1077.427519	828.0
1077.990429	829.0
1078.553281	823.0
1079.116076	825.0
1079.678813	829.0
1080.241492	832.0
1080.804114	831.0
1081.366678	812.0
1081.929184	823.0
1082.491633	822.0
1083.054024	842.0
1083.616357	835.0
1084.178632	830.0
1084.74085	822.0
1085.30301	838.0
1085.865113	839.0
1086.427158	829.0
1086.989145	842.0
1087.551074	821.0
1088.112946	823.0
1088.67476	833.0
1089.236517	834.0
1089.798216	835.0
1090.359857	837.0
1090.92144	817.0
1091.482966	831.0
1092.044435	840.0
1092.605845	819.0
1093.167199	833.0
1093.728494	832.0
1094.289732	823.0
1094.850912	816.0
1095.412035	848.0
1095.9731	835.0
1096.534107	815.0
1097.095057	826.0
1097.65595	823.0
1098.216784	825.0
1098.777561	822.0
1099.338281	822.0
1099.898943	813.0
1100.459547	810.0
1101.020094	832.0
1101.580584	825.0
1102.141015	828.0
1102.701389	818.0
1103.261706	824.0
1103.821965	812.0
1104.382167	813.0
1104.942311	810.0
1105.502397	819.0
1106.062426	826.0
1106.622398	814.0
1107.182312	815.0
1107.742168	811.0
1108.301967	818.0
1108.861708	829.0
1109.421392	825.0
1109.981019	812.0
1110.540587	821.0
1111.100099	815.0
1111.659553	811.0
1112.218949	818.0
1112.778288	820.0
1113.33757	800.0
1113.896794	841.0
1114.45596	840.0
1115.015069	813.0
1115.574121	804.0
1116.133115	816.0
1116.692052	824.0
1117.250931	828.0
1117.809753	804.0
1118.368517	808.0
1118.927224	806.0
1119.485873	823.0
1120.044465	815.0
1120.603	817.0
1121.161477	819.0
1121.719897	818.0
1122.278259	814.0
1122.836564	817.0
1123.394812	828.0
1123.953002	803.0
1124.511135	823.0
1125.06921	811.0
1125.627228	813.0
1126.185189	805.0
1126.743092	822.0
1127.300938	833.0
1127.858726	824.0
1128.416457	819.0
1128.974131	813.0
1129.531748	816.0
1130.089307	826.0
1130.646808	807.0
1131.204252	814.0
1131.761639	819.0
1132.318969	813.0
1132.876241	809.0
1133.433456	812.0
1133.990614	821.0
1134.547714	822.0
1135.104757	807.0
1135.661743	813.0
1136.218671	838.0
1136.775542	815.0
1137.332356	808.0
1137.889112	811.0
1138.445811	820.0
1139.002453	819.0
1139.559037	816.0
1140.115565	816.0
1140.672035	820.0
1141.228447	816.0
1141.784803	823.0
1142.341101	810.0
1142.897342	808.0
1143.453525	805.0
1144.009651	816.0
1144.565721	811.0
1145.121732	826.0
1145.677687	817.0
1146.233584	815.0
1146.789424	821.0
1147.345207	827.0
1147.900933	816.0
1148.456601	811.0
1149.012212	802.0
1149.567766	822.0
1150.123263	811.0
1150.678702	823.0
1151.234085	805.0
1151.78941	814.0
1152.344678	804.0
1152.899888	803.0
1153.455042	806.0
1154.010138	828.0
1154.565177	809.0
1155.120159	813.0
1155.675084	815.0
1156.229951	820.0
1156.784762	808.0
1157.339515	819.0
1157.894211	810.0
1158.44885	830.0
1159.003432	827.0
1159.557956	828.0
1160.112424	807.0
1160.666834	830.0
1161.221187	810.0
1161.775483	815.0
1162.329722	814.0
1162.883904	824.0
1163.438029	824.0
1163.992096	790.0
1164.546107	823.0
1165.10006	805.0
1165.653956	822.0
1166.207795	799.0
1166.761577	807.0
1167.315302	792.0
1167.86897	811.0
1168.422581	809.0
1168.976134	807.0
1169.529631	817.0
1170.08307	815.0
1170.636453	812.0
1171.189778	796.0
1171.743046	820.0
1172.296257	819.0
1172.849412	796.0
1173.402509	815.0
1173.955549	805.0
1174.508532	814.0
1175.061458	819.0
1175.614327	815.0
1176.167138	818.0
1176.719893	829.0
1177.272591	815.0
1177.825232	813.0
1178.377816	807.0
1178.930342	809.0
1179.482812	808.0
1180.035225	810.0
1180.587581	807.0
1181.139879	812.0
1181.692121	802.0
1182.244306	804.0
1182.796434	805.0
1183.348504	823.0
1183.900518	827.0
1184.452475	812.0
1185.004375	811.0
1185.556218	814.0
1186.108004	801.0
1186.659733	815.0
1187.211405	815.0
1187.76302	826.0
1188.314578	811.0
1188.866079	805.0
1189.417523	807.0
1189.96891	797.0
1190.520241	828.0
1191.071514	807.0
1191.622731	833.0
1192.17389	813.0
1192.724993	807.0
1193.276039	834.0
1193.827027	805.0
1194.377959	809.0
1194.928834	811.0
1195.479653	813.0
1196.030414	813.0
1196.581118	804.0
1197.131766	802.0
1197.682356	813.0
1198.23289	1013.0
1198.783367	1014.0
1199.333786	796.0
1199.88415	823.0
1200.434456	809.0
1200.984705	803.0
1201.534898	800.0
1202.085033	789.0
1202.635112	800.0
1203.185134	808.0
1203.735099	812.0
1204.285007	802.0
1204.834859	808.0
1205.384653	799.0
1205.934391	816.0
1206.484072	809.0
1207.033696	815.0
1207.583263	806.0
1208.132774	810.0
1208.682228	796.0
1209.231624	806.0
1209.780965	810.0
1210.330248	808.0
1210.879474	808.0
1211.428644	805.0
1211.977757	819.0
1212.526813	808.0
1213.075813	799.0
1213.624755	822.0
1214.173641	800.0
1214.72247	803.0
1215.271242	801.0
1215.819958	798.0
1216.368617	798.0
1216.917219	807.0
1217.465764	811.0
1218.014253	808.0
1218.562685	810.0
1219.11106	808.0
1219.659378	805.0
1220.20764	801.0
1220.755845	789.0
1221.303993	809.0
1221.852085	805.0
1222.400119	795.0
1222.948097	804.0
1223.496019	800.0
1224.043883	791.0
1224.591691	797.0
1225.139443	811.0
1225.687137	795.0
1226.234775	813.0
1226.782357	809.0
1227.329881	806.0
1227.877349	791.0
1228.42476	811.0
1228.972115	810.0
1229.519413	799.0
1230.066654	808.0
1230.613839	804.0
1231.160967	797.0
1231.708038	807.0
1232.255053	823.0
1232.802011	801.0
1233.348912	807.0
1233.895757	798.0
1234.442545	804.0
1234.989277	805.0
1235.535951	799.0
1236.08257	805.0
1236.629131	810.0
1237.175636	816.0
1237.722085	809.0
1238.268477	812.0
1238.814812	797.0
1239.361091	802.0
1239.907313	806.0
1240.453478	792.0
1240.999587	802.0
1241.54564	804.0
1242.091636	788.0
1242.637575	807.0
1243.183457	808.0
1243.729284	797.0
1244.275053	805.0
1244.820766	802.0
1245.366423	798.0
1245.912022	796.0
1246.457566	810.0
1247.003053	788.0
1247.548483	797.0
1248.093857	813.0
1248.639174	793.0
1249.184435	792.0
1249.729639	800.0
1250.274787	799.0
1250.819878	786.0
1251.364912	808.0
1251.909891	799.0
1252.454812	812.0
1252.999677	804.0
1253.544486	804.0
1254.089238	801.0
1254.633934	800.0
1255.178573	816.0
1255.723156	802.0
1256.267682	811.0
1256.812152	801.0
1257.356565	809.0
1257.900922	808.0
1258.445223	814.0
1258.989467	803.0
1259.533654	805.0
1260.077785	798.0
1260.62186	807.0
1261.165878	801.0
1261.70984	825.0
1262.253745	814.0
1262.797594	809.0
1263.341386	804.0
1263.885123	790.0
1264.428802	819.0
1264.972425	815.0
1265.515992	807.0
1266.059503	809.0
1266.602957	794.0
1267.146354	810.0
1267.689696	787.0
1268.23298	808.0
1268.776209	804.0
1269.319381	800.0
1269.862497	803.0
1270.405556	808.0
1270.948559	792.0
1271.491506	794.0
1272.034396	796.0
1272.57723	789.0
1273.120007	797.0
1273.662728	797.0
1274.205393	804.0
1274.748002	795.0
1275.290554	796.0
1275.83305	817.0
1276.375489	800.0
1276.917872	799.0
1277.460199	811.0
1278.00247	803.0
1278.544684	807.0
1279.086842	788.0
1279.628943	792.0
1280.170989	812.0
1280.712978	808.0
1281.25491	808.0
1281.796787	803.0
1282.338607	805.0
1282.880371	789.0
1283.422078	782.0
1283.963729	823.0
1284.505324	816.0
1285.046863	849.0
1285.588345	860.0
1286.129772	837.0
1286.671142	821.0
1287.212455	804.0
1287.753713	794.0
1288.294914	812.0
1288.836059	796.0
1289.377147	798.0
1289.91818	786.0
1290.459156	802.0
1291.000076	794.0
1291.54094	799.0
1292.081747	798.0
1292.622499	796.0
1293.163194	798.0
1293.703833	796.0
1294.244415	788.0
1294.784942	795.0
1295.325412	816.0
1295.865826	808.0
1296.406184	808.0
1296.946486	808.0
1297.486731	798.0
1298.026921	786.0
1298.567054	795.0
1299.107131	804.0
1299.647152	800.0
1300.187116	788.0
1300.727025	796.0
1301.266877	793.0
1301.806673	801.0
1302.346413	808.0
1302.886097	799.0
1303.425725	801.0
1303.965297	798.0
1304.504812	801.0
1305.044272	783.0
1305.583675	791.0
1306.123022	790.0
1306.662313	792.0
1307.201548	819.0
1307.740727	799.0
1308.279849	783.0
1308.818916	804.0
1309.357926	801.0
1309.896881	790.0
1310.435779	797.0
1310.974621	795.0
1311.513407	795.0
1312.052137	803.0
1312.590811	783.0
1313.129429	799.0
1313.667991	795.0
1314.206497	786.0
1314.744946	793.0
1315.28334	800.0
1315.821678	781.0
1316.359959	805.0
1316.898184	790.0
1317.436354	793.0
1317.974467	806.0
1318.512525	810.0
1319.050526	806.0
1319.588471	795.0
1320.664194	785.0
1321.201971	795.0
1321.739692	814.0
1322.277357	785.0
1322.814967	795.0
1323.35252	798.0
1323.890017	788.0
1324.427458	782.0
1324.964843	797.0
1325.502173	804.0
1326.039446	790.0
1326.576663	791.0
1327.113824	803.0
1327.65093	788.0
1328.187979	802.0
1328.724972	795.0
1329.26191	791.0
1329.798791	791.0
1330.335617	793.0
1330.872386	792.0
1331.4091	795.0
1331.945758	793.0
1332.48236	790.0
1333.018905	794.0
1333.555395	778.0
1334.091829	797.0
1334.628207	794.0
1335.164529	794.0
1335.700796	797.0
1336.237006	810.0
1336.77316	805.0
1337.309259	789.0
1337.845301	798.0
1338.381288	797.0
1338.917219	783.0
1339.453094	796.0
1339.988913	784.0
1340.524676	798.0
1341.060383	798.0
1341.596034	800.0
1342.13163	795.0
1342.66717	795.0
1343.202653	801.0
1343.738081	781.0
1344.273453	793.0
1344.80877	781.0
1345.34403	794.0
1345.879235	794.0
1346.414383	802.0
1346.949476	804.0
1347.484513	787.0
1348.019494	793.0
1348.55442	785.0
1349.089289	796.0
1349.624103	796.0
1350.158861	785.0
1350.693563	803.0
1351.228209	796.0
1351.7628	796.0
1352.297334	795.0
1352.831813	791.0
1353.366236	795.0
1353.900604	795.0
1354.434915	775.0
1354.969171	789.0
1355.503371	778.0
1356.037515	799.0
1356.571604	778.0
1357.105636	803.0
1357.639613	789.0
1358.173535	792.0
1358.7074	807.0
1359.24121	796.0
1359.774964	783.0
1360.308662	786.0
1360.842304	787.0
1361.375891	789.0
1361.909422	790.0
1362.442897	793.0
1362.976317	786.0
1363.50968	801.0
1364.042989	784.0
1364.576241	771.0
1365.109438	800.0
1365.642579	789.0
1366.175664	785.0
1366.708693	790.0
1367.241667	793.0
1367.774585	797.0
1368.307448	788.0
1368.840255	787.0
1369.373006	800.0
1370.438341	806.0
1370.970925	792.0
1371.503454	793.0
1372.035926	782.0
1372.568344	778.0
1373.100705	779.0
1373.633011	783.0
1374.165261	785.0
1374.697456	788.0
1375.229595	787.0
1375.761678	788.0
1376.293705	787.0
1376.825677	803.0
1377.357594	781.0
1377.889455	796.0
1378.42126	789.0
1378.953009	777.0
1379.484703	786.0
1380.016342	784.0
1380.547924	796.0
1381.079452	792.0
1381.610923	777.0
1382.142339	775.0
1382.673699	795.0
1383.205004	795.0
1383.736253	795.0
1384.267447	790.0
1384.798585	780.0
1385.329668	787.0
1385.860695	790.0
1386.391666	784.0
1386.922582	795.0
1387.453442	813.0
1387.984247	824.0
1388.514996	869.0
1389.04569	913.0
1389.576328	844.0
1390.10691	815.0
1390.637437	796.0
1391.167909	801.0
1391.698325	783.0
1392.228685	782.0
1392.75899	803.0
1393.28924	791.0
1393.819434	785.0
1394.349572	800.0
1394.879655	783.0
1395.409683	790.0
1395.939655	797.0
1396.469571	792.0
1396.999432	782.0
1397.529237	797.0
1398.058987	793.0
1398.588682	792.0
1399.118321	783.0
1399.647905	775.0
1400.177433	780.0
1400.706906	776.0
1401.236323	782.0
1401.765685	785.0
1402.294991	773.0
1402.824242	778.0
1403.353437	777.0
1403.882577	784.0
1404.411662	786.0
1404.940691	783.0
1405.469665	790.0
1405.998583	781.0
1406.527446	778.0
1407.056253	786.0
1407.585005	791.0
1408.113702	787.0
1408.642343	779.0
1409.170929	787.0
1409.69946	782.0
1410.227935	802.0
1410.756354	790.0
1411.284719	806.0
1411.813028	794.0
1412.341281	777.0
1412.869479	801.0
1413.397622	783.0
1413.92571	775.0
1414.453742	775.0
1414.981718	775.0
1416.037506	784.0
1416.565316	786.0
1417.093072	784.0
1417.620772	781.0
1418.148416	788.0
1418.676005	788.0
1419.203539	783.0
1419.731018	786.0
1420.258441	788.0
1420.785809	779.0
1421.313122	778.0
1421.840379	782.0
1422.367582	786.0
1422.894728	784.0
1423.42182	790.0
1423.948856	777.0
1424.475837	790.0
1425.002762	771.0
1425.529633	791.0
1426.056448	782.0
1426.583207	779.0
1427.109912	771.0
1427.636561	797.0
1428.163155	778.0
1428.689694	791.0
1429.216177	778.0
1429.742605	805.0
1430.268978	786.0
1430.795296	788.0
1431.321558	796.0
1431.847765	768.0
1432.373917	785.0
1432.900014	792.0
1433.426056	775.0
1433.952042	789.0
1434.477973	788.0
1435.003849	789.0
1435.529669	780.0
1436.055435	789.0
1436.581145	787.0
1437.1068	788.0
1437.632399	780.0
1438.157944	777.0
1438.683433	787.0
1439.208868	780.0
1439.734247	772.0
1440.25957	784.0
1440.784839	787.0
1441.310053	768.0
1441.835211	789.0
1442.360314	782.0
1442.885362	792.0
1443.410355	784.0
1443.935292	782.0
1444.460175	784.0
1444.985002	788.0
1445.509774	779.0
1446.034491	790.0
1446.559153	781.0
1447.08376	771.0
1447.608312	793.0
1448.132808	783.0
1448.65725	781.0
1449.181636	784.0
1449.705967	789.0
1450.230243	778.0
1450.754464	777.0
1451.27863	791.0
1451.802741	785.0
1452.326797	779.0
1452.850797	785.0
1453.374743	786.0
1453.898633	775.0
1454.422468	781.0
1454.946249	776.0
1455.469974	773.0
1455.993644	788.0
1456.517259	786.0
1457.040819	775.0
1457.564324	782.0
1458.087773	779.0
1458.611168	784.0
1459.134508	780.0
1459.657793	782.0
1460.181022	783.0
1460.704197	768.0
1461.227316	779.0
1461.750381	780.0
1462.27339	782.0
1462.796345	782.0
1463.319244	793.0
1463.842089	787.0
1464.364878	789.0
1464.887613	769.0
1465.410292	774.0
1465.932916	785.0
1466.455486	773.0
1466.978	779.0
1467.50046	788.0
1468.022864	783.0
1468.545214	785.0
1469.067508	779.0
1469.589748	783.0
1470.111932	787.0
1470.634062	777.0
1471.156136	784.0
1471.678156	787.0
1472.20012	770.0
1472.72203	783.0
1473.243885	773.0
1473.765685	769.0
1474.28743	793.0
1474.80912	791.0
1475.330755	768.0
1475.852335	784.0
1476.37386	790.0
1476.89533	775.0
1477.416745	781.0
1477.938106	782.0
1478.459411	782.0
1478.980662	784.0
1479.501857	779.0
1480.022998	766.0
1480.544084	789.0
1481.065115	783.0
1481.586091	783.0
1482.107012	773.0
1482.627878	778.0
1483.14869	782.0
1483.669446	771.0
1484.190148	783.0
1484.710794	772.0
1485.231386	785.0
1485.751923	777.0
1486.272406	765.0
1486.792833	783.0
1487.313205	761.0
1487.833523	779.0
1488.353786	777.0
1488.873994	769.0
1489.394147	784.0
1489.914245	779.0
1490.434288	773.0
1490.954277	776.0
1491.474211	763.0
1491.99409	784.0
1492.513914	791.0
1493.033683	780.0
1493.553398	767.0
1494.073057	784.0
1494.592662	774.0
1495.112212	773.0
1495.631708	775.0
1496.151148	779.0
1496.670534	783.0
1497.189865	782.0
1497.709141	785.0
1498.228362	771.0
1498.747529	769.0
1499.266641	786.0
1499.785698	786.0
1500.3047	777.0
1500.823648	778.0
1501.34254	771.0
1501.861379	771.0
1502.380162	774.0
1502.89889	786.0
1503.417564	784.0
1503.936183	786.0
1504.454748	776.0
1504.973257	782.0
1505.491712	768.0
1506.010112	773.0
1506.528458	764.0
1507.046748	768.0
1507.564984	790.0
1508.083166	795.0
1508.601292	771.0
1509.119364	774.0
1509.637381	779.0
1510.155344	776.0
1510.673252	772.0
1511.191105	770.0
1511.708903	777.0
1512.226647	781.0
1512.744336	780.0
1513.261971	770.0
1513.77955	773.0
1514.297076	775.0
1514.814546	771.0
1515.331962	784.0
1515.849323	765.0
1516.366629	771.0
1516.883881	772.0
1517.401078	771.0
1517.918221	769.0
1518.435309	784.0
1518.952342	784.0
1519.469321	771.0
1519.986245	765.0
1520.503114	775.0
1521.019929	781.0
1521.536689	774.0
1522.053395	775.0
1522.570046	783.0
1523.086642	784.0
1524.119671	775.0
1524.636103	772.0
1525.152481	773.0
1525.668805	764.0
1526.185073	783.0
1526.701288	774.0
1527.217447	772.0
1527.733552	769.0
1528.249603	765.0
1528.765599	773.0
1529.28154	779.0
1529.797427	782.0
1530.313259	773.0
1530.829037	776.0
1531.34476	776.0
1531.860429	780.0
1532.376043	768.0
1532.891602	762.0
1533.407107	780.0
1533.922558	765.0
1534.437954	777.0
1534.953295	772.0
1535.468582	788.0
1535.983815	777.0
1536.498993	779.0
1537.014116	777.0
1537.529185	765.0
1538.044199	779.0
1538.559159	774.0
1539.074064	782.0
1539.588915	779.0
1540.103712	772.0
1540.618454	776.0
1541.133141	768.0
1541.647774	777.0
1542.162353	778.0
1542.676877	772.0
1543.191346	774.0
1543.705761	786.0
1544.220122	761.0
1544.734428	768.0
1545.24868	773.0
1545.762877	769.0
1546.27702	776.0
1546.791109	785.0
1547.305143	767.0
1547.819122	768.0
1548.333047	775.0
1548.846918	767.0
1549.360734	763.0
1549.874496	781.0
1550.388204	752.0
1550.901857	772.0
1551.415455	773.0
1551.929	785.0
1552.442489	770.0
1552.955925	785.0
1553.469306	764.0
1553.982632	768.0
1554.495905	770.0
1555.009123	769.0
1555.522286	777.0
1556.035395	778.0
1556.54845	786.0
1557.06145	782.0
1557.574396	789.0
1558.087288	773.0
1558.600125	760.0
1559.112908	779.0
1559.625637	778.0
1560.138311	770.0
1560.650931	777.0
1561.163497	766.0
1561.676008	770.0
1562.188465	768.0
1562.700867	772.0
1563.213216	768.0
1563.725509	782.0
1564.237749	784.0
1564.749934	782.0
1565.262065	782.0
1565.774142	763.0
1566.286164	753.0
1566.798132	779.0
1567.310046	775.0
1567.821906	772.0
1568.333711	758.0
1568.845462	774.0
1569.357158	770.0
1569.868801	765.0
1570.380389	778.0
1570.891922	776.0
1571.403402	777.0
1571.914827	761.0
1572.426198	778.0
1572.937515	772.0
1573.448777	765.0
1573.959985	766.0
1574.471139	771.0
1574.982239	773.0
1575.493285	784.0
1576.004276	772.0
1576.515213	780.0
1577.026096	771.0
1577.536924	770.0
1578.047698	766.0
1578.558419	772.0
1579.069084	770.0
1579.579696	771.0
1580.090254	777.0
1580.600757	764.0
1581.111206	773.0
1581.621601	777.0
1582.131941	763.0
1582.642228	772.0
1583.15246	767.0
1583.662638	772.0
1584.172762	766.0
1584.682832	772.0
1585.192847	777.0
1585.702809	761.0
1586.212716	775.0
1586.722569	778.0
1587.232368	772.0
1587.742113	763.0
1588.251803	777.0
1588.76144	772.0
1589.271022	759.0
1589.78055	765.0
1590.290024	764.0
1590.799444	758.0
1591.30881	760.0
1591.818121	773.0
