1042.414189	850.0
1042.980685	848.0
1043.547124	862.0
1044.113505	855.0
1044.679828	853.0
1045.246093	852.0
1045.8123	853.0
1046.378449	838.0
1046.94454	851.0
1047.510573	864.0
1048.076548	843.0
1048.642465	838.0
1049.208325	858.0
1049.774126	840.0
1050.339869	835.0
1050.905555	857.0
1051.471183	840.0
1052.036752	845.0
1052.602264	841.0
1053.167718	842.0
1053.733114	829.0
1054.298452	840.0
1054.863733	846.0
1055.428955	831.0
1055.994119	830.0
1056.559226	838.0
1057.124275	836.0
1057.689266	848.0
1058.254199	841.0
1058.819074	850.0
1059.383891	849.0
1059.94865	846.0
1060.513352	837.0
1061.077996	845.0
1061.642582	834.0
1062.20711	837.0
1062.77158	852.0
1063.335992	838.0
1063.900347	820.0
1064.464643	834.0
1065.028882	830.0
1065.593063	826.0
1066.157187	844.0
1066.721252	836.0
1067.28526	839.0
1067.84921	857.0
1068.413102	828.0
1068.976936	833.0
1069.540713	832.0
1070.104431	832.0
1070.668092	840.0
1071.231696	836.0
1071.795241	837.0
1072.358729	821.0
1072.922159	824.0
1073.485531	832.0
1074.048845	829.0
1074.612102	844.0
1075.175301	833.0
1075.738442	827.0
1076.301525	836.0
1076.864551	840.0
1077.427519	819.0
1077.990429	823.0
1078.553281	822.0
1079.116076	843.0
1079.678813	852.0
1080.241492	832.0
1080.804114	835.0
1081.366678	820.0
1081.929184	821.0
1082.491633	825.0
1083.054024	843.0
1083.616357	830.0
1084.178632	835.0
1084.74085	821.0
1085.30301	827.0
1085.865113	836.0
1086.427158	826.0
1086.989145	816.0
1087.551074	834.0
1088.112946	827.0
1088.67476	831.0
1089.236517	845.0
1089.798216	834.0
1090.359857	822.0
1090.92144	801.0
1091.482966	833.0
1092.044435	823.0
1092.605845	820.0
1093.167199	821.0
1093.728494	814.0
1094.289732	823.0
1094.850912	832.0
1095.412035	828.0
1095.9731	828.0
1096.534107	835.0
1097.095057	836.0
1097.65595	832.0
1098.216784	819.0
1098.777561	834.0
1099.338281	835.0
1099.898943	829.0
1100.459547	808.0
1101.020094	811.0
1101.580584	825.0
1102.141015	818.0
1102.701389	817.0
1103.261706	820.0
1103.821965	827.0
1104.382167	827.0
1104.942311	808.0
1105.502397	831.0
1106.062426	822.0
1106.622398	821.0
1107.182312	822.0
1107.742168	816.0
1108.301967	822.0
1108.861708	825.0
1109.421392	822.0
1109.981019	823.0
1110.540587	825.0
1111.100099	819.0
1111.659553	808.0
1112.218949	814.0
1112.778288	818.0
1113.33757	815.0
1113.896794	825.0
1114.45596	822.0
1115.015069	824.0
1115.574121	814.0
1116.133115	822.0
1116.692052	828.0
1117.250931	828.0
1117.809753	808.0
1118.368517	820.0
1118.927224	813.0
1119.485873	813.0
1120.044465	830.0
1120.603	810.0
1121.161477	820.0
1121.719897	813.0
1122.278259	822.0
1122.836564	815.0
1123.394812	824.0
1123.953002	806.0
1124.511135	822.0
1125.06921	810.0
1125.627228	808.0
1126.185189	811.0
1126.743092	812.0
1127.300938	810.0
1127.858726	820.0
1128.416457	822.0
1128.974131	811.0
1129.531748	828.0
1130.089307	825.0
1130.646808	817.0
1131.204252	813.0
1131.761639	823.0
1132.318969	813.0
1132.876241	817.0
1133.433456	811.0
1133.990614	819.0
1134.547714	827.0
1135.104757	822.0
1135.661743	814.0
1136.218671	805.0
1136.775542	824.0
1137.332356	799.0
1137.889112	815.0
1138.445811	817.0
1139.002453	822.0
1139.559037	812.0
1140.115565	809.0
1140.672035	820.0
1141.228447	802.0
1141.784803	828.0
1142.341101	826.0
1142.897342	830.0
1143.453525	827.0
1144.009651	814.0
1144.565721	809.0
1145.121732	826.0
1145.677687	817.0
1146.233584	821.0
1146.789424	809.0
1147.345207	821.0
1147.900933	814.0
1148.456601	825.0
1149.012212	826.0
1149.567766	809.0
1150.123263	811.0
1150.678702	816.0
1151.234085	804.0
1151.78941	819.0
1152.344678	809.0
1152.899888	814.0
1153.455042	819.0
1154.010138	813.0
1154.565177	832.0
1155.120159	810.0
1155.675084	813.0
1156.229951	804.0
1156.784762	822.0
1157.339515	829.0
1157.894211	807.0
1158.44885	825.0
1159.003432	811.0
1159.557956	811.0
1160.112424	816.0
1160.666834	819.0
1161.221187	813.0
1161.775483	819.0
1162.329722	821.0
1162.883904	831.0
1163.438029	817.0
1163.992096	820.0
1164.546107	816.0
1165.10006	830.0
1165.653956	833.0
1166.207795	819.0
1166.761577	813.0
1167.315302	815.0
1167.86897	818.0
1168.422581	811.0
1168.976134	816.0
1169.529631	825.0
1170.08307	819.0
1170.636453	811.0
1171.189778	806.0
1171.743046	827.0
1172.296257	820.0
1172.849412	810.0
1173.402509	816.0
1173.955549	808.0
1174.508532	823.0
1175.061458	808.0
1175.614327	801.0
1176.167138	832.0
1176.719893	823.0
1177.272591	842.0
1177.825232	793.0
1178.377816	807.0
1178.930342	801.0
1179.482812	804.0
1180.035225	827.0
1180.587581	819.0
1181.139879	807.0
1181.692121	819.0
1182.244306	822.0
1182.796434	813.0
1183.348504	817.0
1183.900518	822.0
1184.452475	820.0
1185.004375	822.0
1185.556218	811.0
1186.108004	803.0
1186.659733	809.0
1187.211405	807.0
1187.76302	815.0
1188.314578	819.0
1188.866079	817.0
1189.417523	810.0
1189.96891	814.0
1190.520241	808.0
1191.071514	797.0
1191.622731	819.0
1192.17389	809.0
1192.724993	814.0
1193.276039	831.0
1193.827027	808.0
1194.377959	801.0
1194.928834	797.0
1195.479653	805.0
1196.030414	791.0
1196.581118	802.0
1197.131766	809.0
1197.682356	806.0
1198.23289	811.0
1198.783367	828.0
1199.333786	802.0
1199.88415	823.0
1200.434456	794.0
1200.984705	815.0
1201.534898	818.0
1202.085033	807.0
1202.635112	789.0
1203.185134	809.0
1203.735099	804.0
1204.285007	813.0
1204.834859	797.0
1205.384653	803.0
1205.934391	796.0
1206.484072	794.0
1207.033696	812.0
1207.583263	810.0
1208.132774	808.0
1208.682228	800.0
1209.231624	812.0
1209.780965	822.0
1210.330248	808.0
1210.879474	813.0
1211.428644	808.0
1211.977757	785.0
1212.526813	808.0
1213.075813	811.0
1213.624755	801.0
1214.173641	808.0
1214.72247	801.0
1215.271242	811.0
1215.819958	807.0
1216.368617	798.0
1216.917219	814.0
1217.465764	815.0
1218.014253	808.0
1218.562685	804.0
1219.11106	797.0
1219.659378	803.0
1220.20764	800.0
1220.755845	813.0
1221.303993	807.0
1221.852085	802.0
1222.400119	800.0
1222.948097	802.0
1223.496019	798.0
1224.043883	801.0
1224.591691	803.0
1225.139443	808.0
1225.687137	805.0
1226.234775	796.0
1226.782357	809.0
1227.329881	815.0
1227.877349	803.0
1228.42476	795.0
1228.972115	800.0
1229.519413	793.0
1230.066654	794.0
1230.613839	811.0
1231.160967	810.0
1231.708038	813.0
1232.255053	807.0
1232.802011	802.0
1233.348912	804.0
1233.895757	797.0
1234.442545	795.0
1234.989277	816.0
1235.535951	806.0
1236.08257	808.0
1236.629131	795.0
1237.175636	814.0
1237.722085	799.0
1238.268477	807.0
1238.814812	796.0
1239.361091	805.0
1239.907313	817.0
1240.453478	802.0
1240.999587	798.0
1241.54564	804.0
1242.091636	812.0
1242.637575	809.0
1243.183457	802.0
1243.729284	796.0
1244.275053	803.0
1244.820766	809.0
1245.366423	815.0
1245.912022	804.0
1246.457566	799.0
1247.003053	792.0
1247.548483	807.0
1248.093857	794.0
1248.639174	793.0
1249.184435	800.0
1249.729639	789.0
1250.274787	806.0
1250.819878	805.0
1251.364912	799.0
1251.909891	801.0
1252.454812	790.0
1252.999677	795.0
1253.544486	807.0
1254.089238	798.0
1254.633934	794.0
1255.178573	813.0
1255.723156	805.0
1256.267682	803.0
1256.812152	790.0
1257.356565	796.0
1257.900922	796.0
1258.445223	807.0
1258.989467	797.0
1259.533654	809.0
1260.077785	811.0
1260.62186	809.0
1261.165878	800.0
1261.70984	811.0
1262.253745	810.0
1262.797594	791.0
1263.341386	816.0
1263.885123	802.0
1264.428802	812.0
1264.972425	801.0
1265.515992	798.0
1266.059503	802.0
1266.602957	800.0
1267.146354	798.0
1267.689696	801.0
1268.23298	798.0
1268.776209	799.0
1269.319381	795.0
1269.862497	809.0
1270.405556	798.0
1270.948559	815.0
1271.491506	791.0
1272.034396	798.0
1272.57723	796.0
1273.120007	797.0
1273.662728	791.0
1274.205393	799.0
1274.748002	812.0
1275.290554	805.0
1275.83305	794.0
1276.375489	810.0
1276.917872	789.0
1277.460199	810.0
1278.00247	822.0
1278.544684	818.0
1279.086842	797.0
1279.628943	806.0
1280.170989	801.0
1280.712978	818.0
1281.25491	811.0
1281.796787	795.0
1282.338607	811.0
1282.880371	795.0
1283.422078	813.0
1283.963729	810.0
1284.505324	822.0
1285.046863	851.0
1285.588345	850.0
1286.129772	834.0
1286.671142	820.0
1287.212455	794.0
1287.753713	816.0
1288.294914	791.0
1288.836059	798.0
1289.377147	786.0
1289.91818	791.0
1290.459156	803.0
1291.000076	801.0
1291.54094	807.0
1292.081747	799.0
1292.622499	810.0
1293.163194	810.0
1293.703833	797.0
1294.244415	796.0
1294.784942	793.0
1295.325412	786.0
1295.865826	796.0
1296.406184	787.0
1296.946486	814.0
1297.486731	795.0
1298.026921	787.0
1298.567054	780.0
1299.107131	805.0
1299.647152	802.0
1300.187116	805.0
1300.727025	804.0
1301.266877	784.0
1301.806673	784.0
1302.346413	797.0
1302.886097	791.0
1303.425725	798.0
1303.965297	797.0
1304.504812	781.0
1305.044272	796.0
1305.583675	787.0
1306.123022	805.0
1306.662313	785.0
1307.201548	799.0
1307.740727	800.0
1308.279849	789.0
1308.818916	794.0
1309.357926	797.0
1309.896881	777.0
1310.435779	792.0
1310.974621	783.0
1311.513407	798.0
1312.052137	797.0
1312.590811	784.0
1313.129429	801.0
1313.667991	794.0
1314.206497	795.0
1314.744946	796.0
1315.28334	791.0
1315.821678	781.0
1316.359959	789.0
1317.436354	789.0
1317.974467	795.0
1318.512525	789.0
1319.050526	783.0
1319.588471	797.0
1320.12636	798.0
1320.664194	798.0
1321.201971	785.0
1321.739692	797.0
1322.277357	795.0
1322.814967	800.0
1323.35252	789.0
1323.890017	806.0
1324.427458	791.0
1324.964843	800.0
1325.502173	789.0
1326.039446	788.0
1326.576663	784.0
1327.113824	795.0
1327.65093	790.0
1328.187979	797.0
1328.724972	786.0
1329.26191	806.0
1329.798791	803.0
1330.335617	800.0
1330.872386	801.0
1331.4091	780.0
1331.945758	798.0
1332.48236	790.0
1333.018905	787.0
1333.555395	794.0
1334.091829	797.0
1334.628207	792.0
1335.164529	789.0
1335.700796	792.0
1336.237006	793.0
1336.77316	795.0
1337.309259	797.0
1337.845301	791.0
1338.381288	793.0
1338.917219	792.0
1339.453094	786.0
1339.988913	785.0
1340.524676	793.0
1341.060383	786.0
1341.596034	788.0
1342.13163	774.0
1342.66717	802.0
1343.202653	788.0
1343.738081	794.0
1344.273453	797.0
1344.80877	793.0
1345.34403	790.0
1345.879235	788.0
1346.414383	798.0
1346.949476	780.0
1347.484513	792.0
1348.019494	796.0
1348.55442	793.0
1349.089289	786.0
1349.624103	797.0
1350.158861	785.0
1350.693563	793.0
1351.228209	798.0
1351.7628	781.0
1352.297334	803.0
1352.831813	800.0
1353.366236	792.0
1353.900604	783.0
1354.434915	805.0
1354.969171	801.0
1355.503371	797.0
1356.037515	785.0
1356.571604	796.0
1357.105636	779.0
1357.639613	789.0
1358.173535	787.0
1358.7074	791.0
1359.24121	789.0
1359.774964	792.0
1360.308662	788.0
1360.842304	787.0
1361.375891	787.0
1361.909422	792.0
1362.442897	806.0
1362.976317	795.0
1363.50968	789.0
1364.042989	796.0
1364.576241	786.0
1365.109438	783.0
1365.642579	783.0
1366.175664	790.0
1366.708693	775.0
1367.241667	807.0
1367.774585	797.0
1368.307448	799.0
1368.840255	782.0
1369.373006	786.0
1369.905701	773.0
1370.438341	800.0
1370.970925	785.0
1371.503454	784.0
1372.035926	775.0
1372.568344	790.0
1373.100705	788.0
1373.633011	802.0
1374.165261	784.0
1374.697456	798.0
1375.229595	787.0
1375.761678	791.0
1376.293705	798.0
1376.825677	780.0
1377.357594	794.0
1377.889455	789.0
1378.42126	779.0
1378.953009	790.0
1379.484703	787.0
1380.016342	786.0
1380.547924	779.0
1381.079452	781.0
1381.610923	786.0
1382.142339	785.0
1382.673699	800.0
1383.205004	807.0
1383.736253	800.0
1384.798585	798.0
1385.329668	784.0
1385.860695	784.0
1386.391666	788.0
1386.922582	782.0
1387.453442	798.0
1387.984247	812.0
1388.514996	870.0
1389.04569	904.0
1389.576328	845.0
1390.10691	803.0
1390.637437	787.0
1391.167909	795.0
1391.698325	789.0
1392.228685	790.0
1392.75899	790.0
1393.28924	781.0
1393.819434	793.0
1394.349572	782.0
1394.879655	784.0
1395.409683	795.0
1395.939655	780.0
1396.469571	789.0
1396.999432	788.0
1397.529237	779.0
1398.058987	770.0
1398.588682	789.0
1399.118321	781.0
1399.647905	799.0
1400.177433	789.0
1400.706906	774.0
1401.236323	800.0
1401.765685	790.0
1402.294991	791.0
1402.824242	792.0
1403.353437	791.0
1403.882577	792.0
1404.411662	783.0
1404.940691	785.0
1405.469665	780.0
1405.998583	789.0
1406.527446	777.0
1407.056253	790.0
1407.585005	783.0
1408.113702	787.0
1408.642343	791.0
1409.170929	787.0
1409.69946	775.0
1410.227935	785.0
1410.756354	782.0
1411.284719	803.0
1411.813028	776.0
1412.341281	777.0
1412.869479	788.0
1413.397622	788.0
1413.92571	798.0
1414.453742	783.0
1414.981718	793.0
1415.50964	781.0
1416.037506	794.0
1416.565316	784.0
1417.093072	781.0
1417.620772	785.0
1418.148416	781.0
1418.676005	783.0
1419.203539	777.0
1419.731018	777.0
1420.258441	782.0
1420.785809	792.0
1421.313122	790.0
1421.840379	788.0
1422.367582	772.0
1422.894728	789.0
1423.42182	791.0
1423.948856	791.0
1424.475837	794.0
1425.002762	789.0
1425.529633	774.0
1426.056448	780.0
1426.583207	777.0
1427.109912	783.0
1427.636561	779.0
1428.163155	801.0
1428.689694	786.0
1429.216177	786.0
1429.742605	794.0
1430.268978	791.0
1430.795296	777.0
1431.321558	777.0
1431.847765	779.0
1432.373917	772.0
1432.900014	785.0
1433.426056	779.0
1433.952042	782.0
1434.477973	783.0
1435.003849	780.0
1435.529669	777.0
1436.055435	779.0
1436.581145	789.0
1437.1068	775.0
1437.632399	781.0
1438.157944	780.0
1438.683433	788.0
1439.208868	775.0
1439.734247	789.0
1440.25957	779.0
1440.784839	785.0
1441.310053	784.0
1441.835211	771.0
1442.360314	768.0
1442.885362	784.0
1443.410355	771.0
1443.935292	783.0
1444.460175	795.0
1444.985002	784.0
1445.509774	782.0
1446.034491	784.0
1446.559153	787.0
1447.08376	785.0
1447.608312	766.0
1448.132808	774.0
1448.65725	769.0
1449.181636	776.0
1449.705967	783.0
1450.230243	779.0
1450.754464	786.0
1451.27863	777.0
1451.802741	786.0
1452.326797	798.0
1452.850797	779.0
1453.374743	779.0
1453.898633	782.0
1454.422468	771.0
1454.946249	773.0
1455.469974	780.0
1455.993644	788.0
1456.517259	781.0
1457.040819	779.0
1457.564324	764.0
1458.087773	762.0
1458.611168	793.0
1459.134508	789.0
1459.657793	786.0
1460.181022	785.0
1460.704197	769.0
1461.227316	785.0
1461.750381	772.0
1462.27339	786.0
1462.796345	776.0
1463.319244	781.0
1463.842089	791.0
1464.364878	775.0
1464.887613	779.0
1465.410292	774.0
1465.932916	769.0
1466.455486	774.0
1466.978	787.0
1467.50046	781.0
1468.022864	783.0
1468.545214	773.0
1469.067508	788.0
1469.589748	776.0
1470.111932	779.0
1470.634062	768.0
1471.156136	779.0
1471.678156	795.0
1472.20012	772.0
1472.72203	790.0
1473.243885	780.0
1473.765685	775.0
1474.28743	772.0
1474.80912	785.0
1475.330755	774.0
1475.852335	776.0
1476.37386	778.0
1476.89533	762.0
1477.416745	779.0
1477.938106	767.0
1478.459411	787.0
1478.980662	775.0
1479.501857	776.0
1480.022998	757.0
1480.544084	789.0
1481.065115	772.0
1481.586091	779.0
1482.107012	779.0
1482.627878	770.0
1483.14869	776.0
1483.669446	773.0
1484.190148	767.0
1484.710794	763.0
1485.231386	779.0
1485.751923	792.0
1486.272406	788.0
1486.792833	774.0
1487.313205	776.0
1487.833523	772.0
1488.353786	763.0
1488.873994	774.0
1489.394147	771.0
1489.914245	773.0
1490.434288	769.0
1490.954277	769.0
1491.474211	784.0
1491.99409	770.0
1492.513914	771.0
1493.033683	781.0
1493.553398	773.0
1494.073057	772.0
1494.592662	780.0
1495.112212	774.0
1495.631708	763.0
1496.151148	780.0
1496.670534	757.0
1497.189865	775.0
1497.709141	773.0
1498.228362	761.0
1498.747529	784.0
1499.266641	776.0
1499.785698	770.0
1500.3047	767.0
1500.823648	779.0
1501.34254	765.0
1501.861379	770.0
1502.380162	778.0
1502.89889	761.0
1503.417564	777.0
1503.936183	771.0
1504.454748	778.0
1504.973257	788.0
1505.491712	775.0
1506.010112	769.0
1506.528458	774.0
1507.046748	779.0
1507.564984	776.0
1508.083166	771.0
1508.601292	775.0
1509.119364	763.0
1509.637381	764.0
1510.155344	761.0
1510.673252	773.0
1511.191105	766.0
1511.708903	760.0
1512.226647	787.0
1512.744336	767.0
1513.261971	763.0
1513.77955	772.0
1514.297076	770.0
1514.814546	787.0
1515.331962	775.0
1515.849323	770.0
1516.366629	766.0
1516.883881	771.0
1517.401078	768.0
1517.918221	760.0
1518.435309	767.0
1518.952342	777.0
1519.469321	773.0
1519.986245	769.0
1520.503114	787.0
1521.019929	783.0
1521.536689	764.0
1522.053395	776.0
1522.570046	771.0
1523.086642	773.0
1523.603184	781.0
1524.119671	771.0
1524.636103	780.0
1525.152481	771.0
1525.668805	769.0
1526.185073	784.0
1526.701288	765.0
1527.217447	784.0
1527.733552	781.0
1528.249603	764.0
1528.765599	763.0
1529.28154	773.0
1529.797427	767.0
1530.313259	774.0
1530.829037	774.0
1531.34476	759.0
1531.860429	759.0
1532.376043	767.0
1532.891602	784.0
1533.407107	763.0
1533.922558	778.0
1534.437954	761.0
1534.953295	777.0
1535.468582	770.0
1535.983815	791.0
1536.498993	768.0
1537.014116	772.0
1537.529185	759.0
1538.044199	782.0
1538.559159	771.0
1539.074064	774.0
1539.588915	770.0
1540.103712	758.0
1540.618454	752.0
1541.133141	779.0
1541.647774	777.0
1542.162353	783.0
1542.676877	763.0
1543.191346	786.0
1543.705761	772.0
1544.220122	766.0
1544.734428	764.0
1545.24868	775.0
1545.762877	764.0
1546.27702	769.0
1546.791109	777.0
1547.305143	761.0
1547.819122	765.0
1548.333047	772.0
1548.846918	764.0
1549.360734	781.0
1549.874496	768.0
1550.388204	775.0
1550.901857	780.0
1551.415455	761.0
1551.929	778.0
1552.442489	760.0
1552.955925	770.0
1553.469306	774.0
1553.982632	767.0
1555.009123	759.0
1555.522286	766.0
1556.035395	768.0
1556.54845	777.0
1557.06145	778.0
1557.574396	770.0
1558.087288	764.0
1558.600125	770.0
1559.112908	765.0
1559.625637	763.0
1560.138311	767.0
1560.650931	772.0
1561.163497	763.0
1561.676008	763.0
1562.188465	783.0
1562.700867	776.0
1563.213216	780.0
1563.725509	759.0
1564.237749	768.0
1564.749934	775.0
1565.262065	763.0
1565.774142	756.0
1566.286164	776.0
1566.798132	765.0
1567.310046	782.0
1567.821906	770.0
1568.333711	773.0
1568.845462	771.0
1569.357158	758.0
1569.868801	753.0
1570.380389	760.0
1570.891922	771.0
1571.403402	772.0
1571.914827	775.0
1572.426198	770.0
1572.937515	770.0
1573.448777	775.0
1573.959985	777.0
1574.471139	774.0
1574.982239	771.0
1575.493285	779.0
1576.004276	771.0
1576.515213	763.0
1577.026096	769.0
1577.536924	774.0
1578.047698	784.0
1578.558419	766.0
1579.069084	765.0
1579.579696	774.0
1580.090254	760.0
1580.600757	771.0
1581.111206	769.0
1581.621601	759.0
1582.131941	763.0
1582.642228	774.0
1583.15246	769.0
1583.662638	765.0
1584.172762	768.0
1584.682832	765.0
1585.192847	767.0
1585.702809	776.0
1586.212716	774.0
1586.722569	768.0
1587.232368	772.0
1587.742113	780.0
1588.251803	760.0
1588.76144	765.0
1589.271022	757.0
1589.78055	769.0
1590.290024	787.0
1590.799444	775.0
1591.30881	763.0
1591.818121	747.0
1592.327379	763.0
