1043.547124	863.0
1044.113505	879.0
1044.679828	876.0
1045.246093	863.0
1045.8123	877.0
1046.378449	882.0
1046.94454	871.0
1047.510573	876.0
1048.076548	872.0
1048.642465	871.0
1049.208325	868.0
1049.774126	881.0
1050.339869	868.0
1050.905555	873.0
1051.471183	864.0
1052.036752	872.0
1052.602264	862.0
1053.167718	883.0
1053.733114	874.0
1054.298452	868.0
1054.863733	870.0
1055.428955	876.0
1055.994119	861.0
1056.559226	858.0
1057.124275	869.0
1057.689266	855.0
1058.254199	864.0
1058.819074	863.0
1059.383891	850.0
1059.94865	853.0
1060.513352	834.0
1061.077996	854.0
1061.642582	861.0
1062.20711	851.0
1062.77158	851.0
1063.335992	846.0
1063.900347	857.0
1064.464643	864.0
1065.028882	866.0
1065.593063	863.0
1066.157187	871.0
1066.721252	852.0
1067.28526	850.0
1067.84921	852.0
1068.413102	853.0
1068.976936	856.0
1069.540713	851.0
1070.104431	870.0
1070.668092	851.0
1071.231696	856.0
1071.795241	855.0
1072.358729	873.0
1072.922159	855.0
1073.485531	856.0
1074.048845	855.0
1074.612102	852.0
1075.175301	855.0
1075.738442	843.0
1076.301525	840.0
1076.864551	846.0
1077.427519	848.0
1077.990429	845.0
1078.553281	839.0
1079.116076	875.0
1079.678813	863.0
1080.241492	858.0
1080.804114	849.0
1081.366678	852.0
1081.929184	855.0
1082.491633	856.0
1083.054024	857.0
1083.616357	847.0
1084.178632	853.0
1084.74085	840.0
1085.30301	867.0
1085.865113	855.0
1086.427158	850.0
1086.989145	867.0
1087.551074	864.0
1088.112946	850.0
1088.67476	842.0
1089.236517	855.0
1089.798216	846.0
1090.359857	866.0
1090.92144	849.0
1091.482966	846.0
1092.044435	851.0
1092.605845	853.0
1093.167199	850.0
1093.728494	833.0
1094.289732	853.0
1094.850912	865.0
1095.412035	848.0
1095.9731	851.0
1096.534107	832.0
1097.095057	843.0
1097.65595	852.0
1098.216784	846.0
1098.777561	858.0
1100.459547	836.0
1101.020094	847.0
1101.580584	833.0
1102.141015	849.0
1102.701389	850.0
1103.261706	830.0
1103.821965	849.0
1104.382167	870.0
1104.942311	856.0
1105.502397	843.0
1106.062426	840.0
1106.622398	844.0
1107.182312	844.0
1107.742168	827.0
1108.301967	844.0
1108.861708	843.0
1109.421392	851.0
1109.981019	837.0
1110.540587	846.0
1111.100099	841.0
1111.659553	843.0
1112.218949	837.0
1112.778288	844.0
1113.33757	854.0
1113.896794	843.0
1114.45596	848.0
1115.015069	832.0
1115.574121	834.0
1116.133115	844.0
1116.692052	835.0
1117.250931	841.0
1117.809753	836.0
1118.368517	841.0
1118.927224	839.0
1119.485873	835.0
1120.044465	845.0
1120.603	835.0
1121.161477	848.0
1121.719897	843.0
1122.278259	848.0
1122.836564	836.0
1123.394812	830.0
1123.953002	836.0
1124.511135	830.0
1125.06921	829.0
1125.627228	852.0
1126.185189	848.0
1126.743092	837.0
1127.300938	832.0
1127.858726	836.0
1128.416457	835.0
1128.974131	833.0
1129.531748	829.0
1130.089307	839.0
1130.646808	828.0
1131.204252	836.0
1131.761639	838.0
1132.318969	854.0
1132.876241	840.0
1133.433456	835.0
1133.990614	840.0
1134.547714	838.0
1135.104757	839.0
1135.661743	833.0
1136.218671	820.0
1136.775542	829.0
1137.332356	841.0
1137.889112	824.0
1138.445811	824.0
1139.002453	840.0
1139.559037	832.0
1140.115565	837.0
1140.672035	828.0
1141.228447	830.0
1141.784803	830.0
1142.341101	852.0
1142.897342	830.0
1143.453525	826.0
1144.009651	841.0
1144.565721	822.0
1145.121732	821.0
1145.677687	837.0
1146.233584	824.0
1146.789424	833.0
1147.345207	833.0
1147.900933	818.0
1148.456601	828.0
1149.012212	837.0
1149.567766	829.0
1150.123263	848.0
1150.678702	820.0
1151.234085	851.0
1151.78941	824.0
1152.344678	818.0
1152.899888	843.0
1153.455042	823.0
1154.010138	840.0
1154.565177	843.0
1155.120159	834.0
1155.675084	825.0
1156.229951	832.0
1156.784762	841.0
1157.339515	827.0
1157.894211	841.0
1158.44885	834.0
1159.003432	823.0
1159.557956	822.0
1160.112424	833.0
1160.666834	835.0
1161.221187	839.0
1161.775483	839.0
1162.329722	833.0
1162.883904	833.0
1163.438029	828.0
1163.992096	818.0
1164.546107	827.0
1165.10006	825.0
1165.653956	831.0
1166.207795	823.0
1166.761577	828.0
1167.315302	829.0
1167.86897	839.0
1168.422581	827.0
1168.976134	846.0
1169.529631	836.0
1170.08307	852.0
1170.636453	843.0
1171.189778	847.0
1171.743046	823.0
1172.296257	828.0
1172.849412	820.0
1173.402509	819.0
1173.955549	831.0
1174.508532	823.0
1175.061458	834.0
1175.614327	829.0
1176.167138	829.0
1176.719893	826.0
1177.272591	830.0
1177.825232	830.0
1178.377816	832.0
1178.930342	821.0
1179.482812	827.0
1180.035225	813.0
1180.587581	828.0
1181.139879	821.0
1181.692121	813.0
1182.244306	833.0
1182.796434	838.0
1183.348504	825.0
1183.900518	845.0
1184.452475	815.0
1185.004375	818.0
1185.556218	824.0
1186.108004	819.0
1186.659733	829.0
1187.211405	833.0
1187.76302	836.0
1188.314578	833.0
1188.866079	841.0
1189.417523	835.0
1189.96891	828.0
1190.520241	825.0
1191.071514	822.0
1191.622731	841.0
1192.17389	855.0
1192.724993	833.0
1193.276039	845.0
1193.827027	830.0
1194.377959	814.0
1194.928834	818.0
1195.479653	824.0
1196.030414	815.0
1196.581118	832.0
1197.131766	827.0
1197.682356	830.0
1198.23289	827.0
1198.783367	835.0
1199.333786	833.0
1199.88415	817.0
1200.434456	818.0
1200.984705	821.0
1201.534898	822.0
1202.085033	841.0
1202.635112	847.0
1203.185134	829.0
1203.735099	824.0
1204.285007	819.0
1204.834859	833.0
1205.384653	825.0
1205.934391	824.0
1206.484072	815.0
1207.033696	838.0
1207.583263	838.0
1208.132774	834.0
1208.682228	829.0
1209.231624	826.0
1209.780965	826.0
1210.330248	825.0
1210.879474	819.0
1211.428644	838.0
1212.526813	830.0
1213.075813	829.0
1213.624755	825.0
1214.173641	828.0
1214.72247	829.0
1215.271242	814.0
1215.819958	812.0
1216.368617	811.0
1216.917219	829.0
1217.465764	825.0
1218.014253	806.0
1218.562685	826.0
1219.11106	809.0
1219.659378	820.0
1220.20764	810.0
1220.755845	819.0
1221.303993	829.0
1221.852085	834.0
1222.400119	826.0
1223.496019	833.0
1224.043883	828.0
1224.591691	821.0
1225.139443	811.0
1225.687137	804.0
1226.234775	827.0
1226.782357	825.0
1227.329881	816.0
1227.877349	828.0
1228.42476	814.0
1228.972115	822.0
1229.519413	827.0
1230.066654	824.0
1230.613839	828.0
1231.160967	814.0
1231.708038	818.0
1232.255053	822.0
1232.802011	817.0
1233.348912	814.0
1233.895757	809.0
1234.442545	838.0
1234.989277	821.0
1235.535951	812.0
1236.08257	831.0
1236.629131	823.0
1237.175636	837.0
1237.722085	825.0
1238.268477	818.0
1238.814812	810.0
1239.907313	812.0
1240.453478	811.0
1240.999587	806.0
1241.54564	800.0
1242.091636	814.0
1242.637575	808.0
1243.183457	831.0
1243.729284	832.0
1244.275053	821.0
1244.820766	815.0
1245.366423	824.0
1245.912022	820.0
1247.003053	838.0
1247.548483	834.0
1248.093857	819.0
1248.639174	832.0
1249.184435	817.0
1249.729639	827.0
1250.274787	818.0
1250.819878	820.0
1251.364912	825.0
1251.909891	828.0
1252.454812	815.0
1252.999677	805.0
1253.544486	818.0
1254.089238	821.0
1254.633934	823.0
1255.178573	824.0
1255.723156	812.0
1256.267682	820.0
1256.812152	819.0
1257.356565	814.0
1257.900922	822.0
1258.445223	816.0
1258.989467	816.0
1259.533654	830.0
1260.077785	832.0
1260.62186	811.0
1261.165878	817.0
1261.70984	816.0
1262.253745	816.0
1262.797594	824.0
1263.341386	825.0
1263.885123	822.0
1264.428802	829.0
1264.972425	824.0
1265.515992	816.0
1266.059503	832.0
1266.602957	820.0
1267.146354	804.0
1267.689696	816.0
1268.23298	823.0
1268.776209	823.0
1269.319381	813.0
1269.862497	828.0
1270.405556	824.0
1270.948559	822.0
1271.491506	809.0
1272.034396	818.0
1272.57723	812.0
1273.120007	818.0
1273.662728	813.0
1274.205393	815.0
1274.748002	819.0
1275.290554	807.0
1275.83305	808.0
1276.375489	817.0
1276.917872	819.0
1277.460199	823.0
1278.00247	825.0
1278.544684	818.0
1279.086842	811.0
1279.628943	805.0
1280.170989	815.0
1280.712978	822.0
1281.25491	825.0
1281.796787	820.0
1282.338607	825.0
1282.880371	811.0
1283.422078	810.0
1283.963729	823.0
1284.505324	848.0
1285.046863	869.0
1285.588345	856.0
1286.129772	841.0
1286.671142	838.0
1287.212455	808.0
1287.753713	815.0
1288.294914	819.0
1288.836059	824.0
1289.377147	802.0
1289.91818	826.0
1290.459156	805.0
1291.000076	825.0
1291.54094	817.0
1292.081747	821.0
1292.622499	811.0
1293.163194	823.0
1293.703833	810.0
1294.244415	809.0
1294.784942	806.0
1295.325412	806.0
1295.865826	821.0
1296.406184	810.0
1296.946486	800.0
1297.486731	802.0
1298.026921	806.0
1298.567054	790.0
1299.107131	816.0
1299.647152	812.0
1300.187116	802.0
1300.727025	812.0
1301.266877	800.0
1301.806673	817.0
1302.346413	819.0
1302.886097	824.0
1303.425725	819.0
1303.965297	799.0
1304.504812	803.0
1305.044272	815.0
1305.583675	810.0
1306.123022	791.0
1306.662313	809.0
1307.201548	813.0
1307.740727	811.0
1308.279849	815.0
1308.818916	823.0
1309.357926	825.0
1309.896881	815.0
1310.435779	802.0
1310.974621	807.0
1311.513407	811.0
1312.052137	823.0
1312.590811	814.0
1313.129429	801.0
1313.667991	819.0
1314.206497	802.0
1314.744946	816.0
1315.28334	816.0
1315.821678	806.0
1316.359959	801.0
1316.898184	796.0
1317.436354	795.0
1317.974467	814.0
1318.512525	823.0
1319.050526	824.0
1319.588471	814.0
1320.12636	811.0
1320.664194	816.0
1321.201971	829.0
1321.739692	823.0
1322.277357	819.0
1322.814967	817.0
1323.35252	808.0
1323.890017	821.0
1324.427458	815.0
1324.964843	805.0
1325.502173	813.0
1326.039446	805.0
1326.576663	802.0
1327.113824	816.0
1327.65093	811.0
1328.187979	805.0
1328.724972	791.0
1329.26191	795.0
1329.798791	801.0
1330.335617	814.0
1330.872386	827.0
1331.4091	801.0
1331.945758	807.0
1333.018905	811.0
1333.555395	792.0
1334.091829	812.0
1334.628207	801.0
1335.164529	798.0
1335.700796	795.0
1336.237006	813.0
1336.77316	810.0
1337.309259	815.0
1337.845301	811.0
1338.381288	803.0
1338.917219	792.0
1339.453094	808.0
1339.988913	810.0
1340.524676	818.0
1341.060383	807.0
1341.596034	805.0
1342.13163	807.0
1342.66717	798.0
1343.202653	810.0
1343.738081	814.0
1344.273453	795.0
1344.80877	797.0
1345.34403	806.0
1345.879235	792.0
1346.414383	808.0
1346.949476	812.0
1347.484513	796.0
1348.019494	817.0
1348.55442	803.0
1349.089289	794.0
1349.624103	811.0
1350.158861	815.0
1350.693563	811.0
1351.228209	801.0
1351.7628	803.0
1352.297334	805.0
1352.831813	806.0
1353.366236	821.0
1353.900604	799.0
1354.434915	798.0
1354.969171	813.0
1355.503371	795.0
1356.037515	801.0
1356.571604	787.0
1357.105636	799.0
1357.639613	793.0
1358.173535	808.0
1358.7074	799.0
1359.24121	805.0
1359.774964	799.0
1360.308662	813.0
1360.842304	800.0
1361.375891	807.0
1361.909422	807.0
1362.442897	827.0
1362.976317	817.0
1363.50968	802.0
1364.042989	796.0
1364.576241	794.0
1365.109438	801.0
1365.642579	798.0
1366.175664	789.0
1366.708693	800.0
1367.241667	805.0
1367.774585	819.0
1368.307448	806.0
1368.840255	811.0
1369.373006	802.0
1369.905701	815.0
1370.438341	800.0
1370.970925	800.0
1371.503454	797.0
1372.035926	801.0
1372.568344	807.0
1373.100705	803.0
1373.633011	787.0
1374.165261	805.0
1374.697456	787.0
1375.229595	808.0
1375.761678	790.0
1376.293705	803.0
1376.825677	806.0
1377.357594	805.0
1377.889455	818.0
1378.42126	809.0
1378.953009	801.0
1379.484703	793.0
1380.016342	814.0
1380.547924	797.0
1381.079452	801.0
1381.610923	793.0
1382.142339	791.0
1382.673699	791.0
1383.205004	797.0
1383.736253	796.0
1384.798585	796.0
1385.329668	799.0
1385.860695	797.0
1386.391666	808.0
1386.922582	795.0
1387.453442	812.0
1387.984247	838.0
1388.514996	868.0
1389.04569	926.0
1389.576328	856.0
1390.10691	821.0
1390.637437	803.0
1391.167909	802.0
1391.698325	800.0
1392.228685	803.0
1392.75899	815.0
1393.28924	798.0
1393.819434	821.0
1394.349572	797.0
1394.879655	807.0
1395.409683	804.0
1395.939655	806.0
1396.469571	803.0
1396.999432	790.0
1397.529237	790.0
1398.058987	787.0
1398.588682	807.0
1399.118321	805.0
1399.647905	797.0
1400.177433	790.0
1400.706906	792.0
1401.236323	803.0
1401.765685	797.0
1402.294991	792.0
1402.824242	800.0
1403.353437	799.0
1403.882577	800.0
1404.411662	798.0
1404.940691	784.0
1405.469665	792.0
1405.998583	804.0
1406.527446	793.0
1407.056253	779.0
1407.585005	808.0
1408.113702	795.0
1408.642343	792.0
1409.170929	795.0
1409.69946	797.0
1410.227935	805.0
1410.756354	790.0
1411.284719	810.0
1411.813028	787.0
1412.341281	794.0
1412.869479	787.0
1413.397622	791.0
1413.92571	803.0
1414.453742	802.0
1414.981718	801.0
1415.50964	811.0
1416.037506	807.0
1416.565316	793.0
1417.093072	802.0
1417.620772	794.0
1418.148416	807.0
1418.676005	794.0
1419.203539	807.0
1419.731018	793.0
1420.258441	800.0
1420.785809	787.0
1421.313122	804.0
1421.840379	803.0
1422.367582	795.0
1422.894728	792.0
1423.42182	814.0
1423.948856	791.0
1424.475837	784.0
1425.002762	788.0
1425.529633	796.0
1426.056448	783.0
1426.583207	795.0
1427.109912	783.0
1427.636561	781.0
1428.163155	793.0
1428.689694	787.0
1429.216177	793.0
1429.742605	794.0
1430.268978	794.0
1430.795296	793.0
1431.321558	788.0
1431.847765	793.0
1432.373917	790.0
1432.900014	790.0
1433.426056	790.0
1433.952042	794.0
1434.477973	800.0
1435.003849	797.0
1435.529669	799.0
1436.055435	791.0
1436.581145	800.0
1437.1068	795.0
1437.632399	798.0
1438.157944	779.0
1438.683433	801.0
1439.208868	795.0
1439.734247	784.0
1440.25957	797.0
1440.784839	792.0
1441.310053	803.0
1441.835211	796.0
1442.360314	788.0
1442.885362	805.0
1443.410355	792.0
1443.935292	795.0
1444.460175	790.0
1444.985002	784.0
1445.509774	790.0
1446.034491	807.0
1446.559153	799.0
1447.08376	801.0
1447.608312	790.0
1448.132808	778.0
1448.65725	798.0
1449.181636	798.0
1449.705967	806.0
1450.230243	788.0
1450.754464	793.0
1451.27863	797.0
1451.802741	793.0
1452.326797	787.0
1452.850797	783.0
1453.374743	794.0
1453.898633	795.0
1454.422468	786.0
1454.946249	779.0
1455.469974	784.0
1455.993644	790.0
1456.517259	783.0
1457.040819	795.0
1457.564324	786.0
1458.087773	791.0
1458.611168	780.0
1459.134508	792.0
1459.657793	795.0
1460.181022	782.0
1460.704197	791.0
1461.227316	789.0
1461.750381	791.0
1462.27339	784.0
1462.796345	789.0
1463.319244	797.0
1463.842089	791.0
1464.364878	807.0
1464.887613	783.0
1465.410292	793.0
1465.932916	784.0
1466.455486	797.0
1466.978	789.0
1467.50046	793.0
1468.022864	789.0
1468.545214	787.0
1469.067508	783.0
1469.589748	785.0
1470.111932	789.0
1470.634062	791.0
1471.156136	793.0
1471.678156	786.0
1472.20012	807.0
1472.72203	790.0
1473.243885	781.0
1473.765685	786.0
1474.28743	788.0
1474.80912	788.0
1475.330755	795.0
1475.852335	789.0
1476.37386	793.0
1476.89533	787.0
1477.416745	787.0
1477.938106	781.0
1478.459411	802.0
1478.980662	789.0
1479.501857	795.0
1480.022998	776.0
1480.544084	801.0
1481.065115	787.0
1481.586091	784.0
1482.107012	786.0
1482.627878	786.0
1483.14869	791.0
1483.669446	779.0
1484.190148	794.0
1484.710794	788.0
1485.231386	787.0
1485.751923	794.0
1486.272406	776.0
1486.792833	791.0
1487.313205	792.0
1487.833523	792.0
1488.353786	783.0
1488.873994	794.0
1489.394147	789.0
1489.914245	795.0
1490.434288	789.0
1490.954277	790.0
1491.474211	791.0
1491.99409	777.0
1492.513914	776.0
1493.033683	792.0
1493.553398	774.0
1494.073057	786.0
1494.592662	779.0
1495.112212	783.0
1495.631708	780.0
1496.151148	777.0
1496.670534	784.0
1497.189865	786.0
1497.709141	787.0
1498.228362	797.0
1498.747529	788.0
1499.266641	781.0
1499.785698	798.0
1500.3047	788.0
1500.823648	784.0
1501.34254	781.0
1501.861379	783.0
1502.380162	780.0
1502.89889	783.0
1503.417564	773.0
1503.936183	782.0
1504.454748	777.0
1504.973257	790.0
1505.491712	782.0
1506.010112	785.0
1506.528458	785.0
1507.046748	789.0
1507.564984	784.0
1508.083166	785.0
1508.601292	777.0
1509.119364	788.0
1509.637381	776.0
1510.155344	783.0
1510.673252	785.0
1511.191105	781.0
1511.708903	789.0
1512.226647	787.0
1512.744336	778.0
1513.261971	781.0
1513.77955	791.0
1514.297076	793.0
1514.814546	783.0
1515.331962	780.0
1515.849323	783.0
1516.366629	779.0
1516.883881	788.0
1517.401078	790.0
1517.918221	785.0
1518.435309	780.0
1518.952342	785.0
1519.469321	790.0
1519.986245	782.0
1520.503114	769.0
1521.019929	789.0
1521.536689	780.0
1522.053395	770.0
1522.570046	780.0
1523.086642	794.0
1523.603184	772.0
1524.119671	780.0
1524.636103	775.0
1525.152481	785.0
1525.668805	783.0
1526.185073	786.0
1526.701288	773.0
1527.217447	792.0
1527.733552	790.0
1528.249603	779.0
1528.765599	782.0
1529.28154	785.0
1529.797427	791.0
1530.313259	770.0
1530.829037	795.0
1531.34476	785.0
1531.860429	782.0
1532.376043	783.0
1532.891602	789.0
1533.407107	795.0
1533.922558	791.0
1534.437954	787.0
1534.953295	804.0
1535.468582	778.0
1535.983815	786.0
1536.498993	773.0
1537.014116	772.0
1537.529185	799.0
1538.044199	779.0
1538.559159	783.0
1539.074064	771.0
1539.588915	789.0
1540.103712	782.0
1540.618454	774.0
1541.133141	769.0
1541.647774	777.0
1542.162353	792.0
1542.676877	781.0
1543.191346	774.0
1543.705761	795.0
1544.220122	776.0
1544.734428	783.0
1545.24868	798.0
1545.762877	787.0
1546.27702	782.0
1546.791109	760.0
1547.305143	769.0
1547.819122	771.0
1548.333047	781.0
1548.846918	762.0
1549.360734	785.0
1549.874496	778.0
1550.388204	781.0
1550.901857	772.0
1551.415455	770.0
1551.929	776.0
1552.442489	788.0
1552.955925	776.0
1553.469306	782.0
1553.982632	775.0
1554.495905	792.0
1555.009123	778.0
1555.522286	789.0
1556.035395	782.0
1556.54845	786.0
1557.06145	773.0
1557.574396	780.0
1558.087288	772.0
1558.600125	784.0
1559.112908	786.0
1559.625637	787.0
1560.138311	782.0
1560.650931	777.0
1561.163497	788.0
1561.676008	778.0
1562.188465	781.0
1562.700867	775.0
1563.213216	775.0
1563.725509	784.0
1564.237749	783.0
1564.749934	774.0
1565.262065	784.0
1565.774142	777.0
1566.286164	781.0
1566.798132	791.0
1567.310046	774.0
1567.821906	777.0
1568.333711	776.0
1568.845462	789.0
1569.357158	783.0
1569.868801	774.0
1570.380389	784.0
1570.891922	766.0
1571.403402	779.0
1571.914827	765.0
1572.426198	769.0
1572.937515	787.0
1573.448777	772.0
1573.959985	780.0
1574.471139	769.0
1574.982239	773.0
1575.493285	773.0
1576.004276	773.0
1576.515213	777.0
1577.026096	778.0
1577.536924	775.0
1578.047698	784.0
1578.558419	771.0
1579.069084	782.0
1579.579696	780.0
1580.090254	776.0
1580.600757	776.0
1581.111206	774.0
1581.621601	771.0
1582.131941	770.0
1582.642228	779.0
1583.15246	772.0
1583.662638	772.0
1584.172762	763.0
1584.682832	770.0
1585.192847	775.0
1585.702809	783.0
1586.212716	779.0
1586.722569	781.0
1587.232368	779.0
1587.742113	778.0
1588.251803	773.0
1588.76144	789.0
1589.271022	779.0
1589.78055	781.0
1590.290024	768.0
1590.799444	784.0
1591.30881	774.0
1591.818121	774.0
1592.327379	789.0
