1042.414189	790.25
1042.980685	786.0
1043.547124	789.5
1044.113505	785.75
1044.679828	783.5
1045.246093	782.0
1045.8123	783.0
1046.378449	778.75
1046.94454	780.75
1047.510573	783.5
1048.076548	779.5
1048.642465	782.25
1049.208325	776.75
1049.774126	771.0
1050.339869	772.0
1050.905555	775.5
1051.471183	771.75
1052.036752	766.25
1052.602264	765.25
1053.167718	764.75
1053.733114	762.25
1054.298452	762.5
1054.863733	763.75
1055.428955	758.75
1055.994119	764.0
1056.559226	761.25
1057.124275	766.5
1057.689266	761.75
1058.254199	758.25
1058.819074	767.25
1059.383891	759.25
1059.94865	762.0
1060.513352	755.75
1061.077996	759.75
1061.642582	757.0
1062.20711	758.75
1062.77158	757.25
1063.335992	760.0
1063.900347	754.75
1064.464643	750.75
1065.028882	757.25
1065.593063	756.5
1066.157187	755.5
1066.721252	767.25
1067.28526	754.75
1067.84921	755.0
1068.413102	753.5
1068.976936	756.25
1069.540713	756.5
1070.104431	767.0
1070.668092	756.0
1071.231696	755.5
1071.795241	754.0
1072.358729	756.75
1072.922159	758.75
1073.485531	759.0
1074.048845	750.5
1074.612102	760.5
1075.175301	749.75
1075.738442	753.25
1076.301525	760.0
1076.864551	759.5
1077.427519	761.5
1077.990429	755.5
1078.553281	749.25
1079.116076	756.75
1079.678813	763.75
1080.241492	752.5
1080.804114	750.25
1081.366678	759.5
1081.929184	758.75
1082.491633	763.0
1083.054024	748.0
1083.616357	758.0
1084.178632	761.0
1084.74085	763.0
1085.30301	754.5
1085.865113	753.5
1086.427158	758.75
1086.989145	760.75
1087.551074	757.5
1088.112946	761.0
1088.67476	755.5
1089.236517	754.5
1089.798216	759.25
1090.359857	758.5
1090.92144	757.0
1091.482966	753.0
1092.044435	753.5
1092.605845	754.25
1093.167199	762.25
1093.728494	756.0
1094.289732	758.75
1094.850912	754.75
1095.412035	766.25
1095.9731	757.25
1096.534107	753.75
1097.095057	759.25
1097.65595	760.75
1098.216784	758.5
1098.777561	753.25
1099.338281	751.5
1099.898943	758.0
1100.459547	756.5
1101.020094	755.0
1101.580584	752.75
1102.141015	750.5
1102.701389	751.0
1103.261706	753.5
1103.821965	751.25
1104.382167	749.75
1104.942311	746.5
1105.502397	749.0
1106.062426	751.75
1106.622398	749.0
1107.182312	752.25
1107.742168	752.5
1108.301967	752.25
1108.861708	753.0
1109.421392	752.75
1109.981019	751.5
1110.540587	751.0
1111.100099	747.75
1111.659553	754.75
1112.218949	743.25
1112.778288	754.25
1113.33757	749.25
1113.896794	749.5
1114.45596	750.0
1115.015069	755.25
1115.574121	749.5
1116.133115	746.75
1116.692052	754.25
1117.250931	753.25
1117.809753	751.25
1118.368517	751.0
1118.927224	751.75
1119.485873	746.0
1120.044465	754.25
1120.603	755.5
1121.161477	749.5
1121.719897	748.5
1122.278259	755.75
1122.836564	755.0
1123.394812	756.25
1123.953002	751.75
1124.511135	746.0
1125.06921	755.0
1125.627228	756.25
1126.185189	759.25
1126.743092	754.0
1127.300938	755.5
1127.858726	760.25
1128.416457	764.75
1128.974131	763.5
1129.531748	763.5
1130.089307	756.5
1130.646808	754.75
1131.204252	756.75
1131.761639	762.5
1132.318969	747.0
1132.876241	754.5
1133.433456	751.0
1133.990614	753.25
1134.547714	757.25
1135.104757	759.75
1135.661743	751.0
1136.218671	752.75
1136.775542	753.25
1137.332356	761.75
1137.889112	754.75
1138.445811	746.75
1139.002453	749.0
1139.559037	750.75
1140.115565	750.0
1140.672035	754.0
1141.228447	755.0
1141.784803	753.75
1142.341101	755.5
1142.897342	752.0
1143.453525	754.5
1144.009651	750.25
1144.565721	754.25
1145.121732	750.0
1145.677687	754.25
1146.233584	751.5
1146.789424	763.25
1147.345207	750.25
1147.900933	756.0
1148.456601	752.75
1149.012212	758.0
1149.567766	748.75
1150.123263	756.5
1150.678702	748.75
1151.234085	759.75
1151.78941	753.5
1152.344678	754.75
1152.899888	741.5
1153.455042	755.5
1154.010138	754.75
1154.565177	752.5
1155.120159	750.75
1155.675084	749.25
1156.229951	756.0
1156.784762	758.0
1157.339515	759.75
1157.894211	750.5
1158.44885	760.75
1159.003432	760.75
1159.557956	760.5
1160.112424	757.0
1160.666834	758.5
1161.221187	756.5
1161.775483	765.75
1162.329722	756.5
1162.883904	755.75
1163.438029	755.25
1163.992096	762.5
1164.546107	753.0
1165.10006	752.5
1165.653956	752.25
1166.207795	755.0
1166.761577	756.0
1167.315302	752.75
1167.86897	752.5
1168.422581	757.75
1168.976134	749.25
1169.529631	752.0
1170.08307	748.75
1170.636453	751.5
1171.189778	753.0
1171.743046	753.25
1172.296257	754.5
1172.849412	748.0
1173.402509	753.0
1173.955549	751.75
1174.508532	752.25
1175.061458	755.75
1175.614327	748.25
1176.167138	755.5
1176.719893	755.0
1177.272591	751.25
1177.825232	749.5
1178.377816	751.25
1178.930342	749.75
1179.482812	752.0
1180.035225	752.0
1180.587581	748.25
1181.139879	746.5
1181.692121	745.0
1182.244306	745.5
1182.796434	753.0
1183.348504	759.5
1183.900518	751.5
1184.452475	752.75
1185.004375	751.0
1185.556218	749.25
1186.108004	748.0
1186.659733	749.0
1187.211405	748.0
1187.76302	756.0
1188.314578	754.25
1188.866079	745.25
1189.417523	749.25
1189.96891	748.25
1190.520241	750.25
1191.071514	751.25
1191.622731	751.75
1192.17389	749.25
1192.724993	750.5
1193.276039	769.0
1193.827027	744.5
1194.377959	749.75
1194.928834	748.0
1195.479653	751.25
1196.030414	751.0
1196.581118	753.75
1197.131766	749.5
1197.682356	758.5
1198.23289	747.5
1198.783367	751.75
1199.333786	751.5
1199.88415	759.5
1200.434456	750.25
1200.984705	753.25
1201.534898	751.0
1202.085033	749.0
1202.635112	755.25
1203.185134	753.5
1203.735099	750.25
1204.285007	752.0
1204.834859	747.5
1205.384653	757.75
1205.934391	749.25
1206.484072	750.5
1207.033696	747.75
1207.583263	753.25
1208.132774	752.25
1208.682228	757.5
1209.231624	748.0
1209.780965	754.0
1210.330248	747.5
1210.879474	753.5
1211.428644	752.75
1211.977757	746.25
1212.526813	747.5
1213.075813	755.5
1213.624755	751.75
1214.173641	748.0
1214.72247	753.25
1215.271242	755.25
1215.819958	754.25
1216.368617	754.0
1216.917219	751.0
1217.465764	755.5
1218.014253	747.0
1218.562685	748.5
1219.11106	750.25
1219.659378	750.0
1220.20764	749.25
1220.755845	754.75
1221.303993	754.75
1221.852085	750.75
1222.400119	749.5
1222.948097	746.25
1223.496019	750.75
1224.043883	748.75
1224.591691	752.5
1225.139443	750.5
1225.687137	751.0
1226.234775	750.25
1226.782357	750.75
1227.329881	749.5
1227.877349	753.25
1228.42476	752.75
1228.972115	755.5
1229.519413	757.25
1230.066654	754.5
1230.613839	756.5
1231.160967	750.25
1231.708038	753.5
1232.255053	744.0
1232.802011	754.0
1233.348912	746.25
1233.895757	746.0
1234.442545	748.75
1234.989277	744.75
1235.535951	748.25
1236.08257	752.25
1236.629131	751.25
1237.175636	748.5
1237.722085	749.0
1238.268477	752.0
1238.814812	754.0
1239.361091	750.25
1239.907313	746.5
1240.453478	752.75
1240.999587	747.0
1241.54564	752.75
1242.091636	750.5
1242.637575	757.25
1243.183457	742.0
1243.729284	748.5
1244.275053	748.75
1244.820766	750.75
1245.366423	749.75
1245.912022	750.75
1246.457566	747.25
1247.003053	746.5
1247.548483	753.75
1248.093857	751.0
1248.639174	753.5
1249.184435	748.75
1249.729639	755.0
1250.274787	747.75
1250.819878	747.75
1251.364912	748.75
1251.909891	746.75
1252.454812	754.0
1252.999677	756.5
1253.544486	752.0
1254.089238	751.25
1254.633934	745.75
1255.178573	751.5
1255.723156	748.0
1256.267682	746.0
1256.812152	748.5
1257.356565	748.0
1257.900922	743.75
1258.445223	749.75
1258.989467	754.0
1259.533654	747.0
1260.077785	761.25
1260.62186	747.5
1261.165878	751.25
1261.70984	753.75
1262.253745	741.75
1262.797594	746.25
1263.341386	750.5
1263.885123	753.25
1264.428802	753.0
1264.972425	752.75
1265.515992	767.0
1266.059503	758.25
1266.602957	752.5
1267.146354	754.5
1267.689696	752.5
1268.23298	745.5
1268.776209	749.5
1269.319381	751.0
1269.862497	752.5
1270.405556	744.75
1270.948559	753.0
1271.491506	747.25
1272.034396	752.0
1272.57723	752.75
1273.120007	742.5
1273.662728	749.25
1274.205393	750.75
1274.748002	754.0
1275.290554	749.0
1275.83305	753.75
1276.375489	759.25
1276.917872	1359.25
1277.460199	1916.75
1278.544684	753.25
1279.086842	749.75
1279.628943	755.75
1280.170989	743.5
1280.712978	751.0
1281.25491	748.75
1281.796787	756.75
1282.338607	750.0
1282.880371	757.0
1283.422078	758.5
1283.963729	767.0
1284.505324	781.75
1285.046863	826.5
1285.588345	879.5
1286.129772	867.0
1286.671142	793.5
1287.212455	767.0
1287.753713	752.25
1288.294914	754.25
1288.836059	755.75
1289.377147	752.75
1289.91818	752.75
1290.459156	747.25
1291.000076	750.0
1291.54094	758.25
1292.081747	749.5
1292.622499	750.25
1293.163194	754.0
1293.703833	749.5
1294.244415	748.5
1294.784942	745.75
1295.325412	752.25
1295.865826	750.25
1296.406184	755.0
1296.946486	748.0
1297.486731	750.25
1298.026921	751.25
1298.567054	749.0
1299.107131	751.75
1299.647152	750.5
1300.187116	750.25
1300.727025	754.25
1301.266877	747.5
1301.806673	749.0
1302.346413	748.75
1302.886097	747.25
1303.425725	753.25
1303.965297	751.5
1304.504812	750.25
1305.044272	748.25
1305.583675	748.25
1306.123022	748.75
1306.662313	746.75
1307.201548	752.0
1307.740727	744.75
1308.279849	751.0
1308.818916	749.5
1309.357926	745.5
1309.896881	751.25
1310.435779	748.0
1310.974621	747.5
1311.513407	748.5
1312.052137	751.75
1312.590811	743.0
1313.129429	753.0
1313.667991	745.25
1314.206497	746.25
1314.744946	749.25
1315.28334	746.5
1315.821678	753.0
1316.359959	752.0
1316.898184	743.25
1317.436354	751.0
1317.974467	750.5
1318.512525	747.5
1319.050526	756.5
1319.588471	744.5
1320.12636	740.25
1320.664194	754.75
1321.201971	745.25
1321.739692	745.0
1322.277357	748.25
1322.814967	745.0
1323.35252	749.5
1323.890017	754.0
1324.427458	744.75
1324.964843	751.25
1325.502173	751.0
1326.039446	755.75
1326.576663	750.5
1327.113824	750.75
1327.65093	750.25
1328.187979	747.5
1328.724972	753.25
1329.26191	746.75
1329.798791	746.5
1330.335617	752.25
1330.872386	747.0
1331.4091	745.25
1331.945758	743.75
1332.48236	750.0
1333.018905	735.25
1333.555395	749.25
1334.091829	751.5
1334.628207	748.0
1335.164529	755.25
1335.700796	746.0
1336.237006	743.5
1336.77316	746.25
1337.309259	749.5
1337.845301	751.25
1338.381288	743.75
1338.917219	745.75
1339.453094	751.0
1339.988913	750.25
1340.524676	746.75
1341.060383	749.75
1341.596034	743.5
1342.13163	748.75
1342.66717	750.0
1343.202653	746.5
1343.738081	747.5
1344.273453	747.25
1344.80877	744.25
1345.34403	746.25
1345.879235	750.75
1346.414383	747.25
1346.949476	745.5
1347.484513	745.5
1348.019494	749.75
1348.55442	749.75
1349.089289	748.25
1349.624103	749.25
1350.158861	746.75
1350.693563	750.75
1351.228209	749.75
1351.7628	750.25
1352.297334	750.75
1352.831813	752.75
1353.366236	749.25
1353.900604	749.5
1354.434915	751.0
1354.969171	747.25
1355.503371	755.25
1356.037515	745.0
1356.571604	748.0
1357.105636	749.5
1357.639613	747.5
1358.173535	755.25
1358.7074	751.5
1359.24121	747.5
1359.774964	744.75
1360.308662	749.5
1360.842304	751.75
1361.375891	750.25
1361.909422	747.75
1362.442897	745.5
1362.976317	741.5
1363.50968	747.75
1364.042989	753.25
1364.576241	745.0
1365.109438	747.75
1365.642579	754.0
1366.175664	753.25
1366.708693	743.75
1367.241667	749.0
1367.774585	750.25
1368.307448	747.75
1368.840255	751.0
1369.373006	748.75
1369.905701	752.25
1370.438341	752.75
1370.970925	752.75
1371.503454	755.0
1372.035926	743.25
1372.568344	751.5
1373.100705	748.75
1373.633011	745.75
1374.165261	747.0
1374.697456	750.25
1375.229595	753.0
1375.761678	747.5
1376.293705	752.5
1376.825677	754.25
1377.357594	753.25
1377.889455	749.75
1378.42126	746.75
1378.953009	751.5
1379.484703	748.75
1380.016342	752.5
1380.547924	749.5
1381.079452	746.75
1381.610923	751.25
1382.142339	755.0
1382.673699	750.5
1383.205004	752.25
1383.736253	754.0
1384.267447	746.25
1384.798585	752.75
1385.329668	752.25
1385.860695	756.0
1386.391666	759.75
1386.922582	761.0
1387.453442	773.0
1387.984247	789.75
1388.514996	869.0
1389.04569	1020.25
1389.576328	932.5
1390.10691	799.0
1390.637437	766.5
1391.167909	754.75
1391.698325	754.0
1392.228685	751.5
1392.75899	753.5
1393.28924	740.75
1393.819434	748.25
1394.349572	755.5
1394.879655	756.0
1395.409683	751.25
1395.939655	755.75
1396.469571	750.75
1396.999432	747.75
1397.529237	749.0
1398.058987	751.5
1398.588682	748.5
1399.118321	750.25
1399.647905	748.75
1400.177433	745.25
1400.706906	756.75
1401.236323	752.75
1401.765685	751.0
1402.294991	752.5
1402.824242	749.25
1403.353437	755.0
1403.882577	748.0
1404.411662	753.0
1404.940691	752.25
1405.469665	750.5
1405.998583	750.75
1406.527446	753.5
1407.056253	754.0
1407.585005	756.75
1408.113702	751.25
1408.642343	753.75
1409.170929	751.25
1409.69946	761.25
1410.227935	765.5
1410.756354	767.5
1411.284719	759.5
1411.813028	758.5
1412.341281	757.25
1412.869479	753.75
1413.397622	753.5
1413.92571	750.5
1414.453742	754.0
1414.981718	751.0
1415.50964	764.0
1416.037506	753.0
1416.565316	749.25
1417.093072	747.0
1417.620772	757.75
1418.148416	751.0
1418.676005	748.25
1419.203539	748.75
1419.731018	749.25
1420.258441	752.0
1420.785809	749.5
1421.313122	748.0
1421.840379	745.25
1422.367582	749.0
1422.894728	750.25
1423.42182	752.75
1423.948856	746.25
1424.475837	736.5
1425.002762	751.0
1425.529633	747.25
1426.056448	750.25
1426.583207	749.0
1427.109912	748.0
1427.636561	755.25
1428.163155	756.0
1428.689694	752.25
1429.216177	753.25
1429.742605	751.0
1430.268978	750.75
1430.795296	755.0
1431.321558	756.25
1431.847765	756.0
1432.373917	754.25
1432.900014	747.75
1433.426056	742.0
1433.952042	742.75
1434.477973	748.75
1435.003849	750.25
1435.529669	748.5
1436.055435	749.5
1436.581145	754.25
1437.1068	747.75
1437.632399	750.25
1438.157944	744.5
1438.683433	750.25
1439.208868	751.0
1439.734247	746.75
1440.25957	748.0
1440.784839	745.75
1441.310053	754.25
1441.835211	751.5
1442.360314	752.25
1442.885362	749.75
1443.410355	750.25
1443.935292	745.0
1444.460175	752.75
1444.985002	751.75
1445.509774	753.5
1446.034491	747.25
1446.559153	746.75
1447.08376	751.0
1447.608312	750.25
1448.132808	742.5
1448.65725	756.75
1449.181636	755.75
1449.705967	753.25
1450.230243	747.0
1450.754464	752.25
1451.27863	749.25
1451.802741	753.25
1452.326797	749.0
1452.850797	749.75
1453.374743	749.75
1453.898633	748.5
1454.422468	752.75
1454.946249	747.5
1455.469974	752.5
1455.993644	747.25
1456.517259	753.5
1457.040819	751.25
1457.564324	748.0
1458.087773	754.0
1458.611168	751.25
1459.134508	751.25
1459.657793	751.25
1460.181022	747.75
1460.704197	747.25
1461.227316	753.25
1461.750381	750.0
1462.27339	753.0
1462.796345	743.5
1463.319244	752.75
1463.842089	749.25
1464.364878	748.75
1464.887613	750.75
1465.410292	745.75
1465.932916	747.5
1466.455486	753.0
1466.978	753.0
1467.50046	749.75
1468.022864	750.0
1468.545214	746.0
1469.067508	757.5
1469.589748	751.0
1470.111932	749.75
1470.634062	746.5
1471.156136	746.25
1471.678156	742.75
1472.20012	749.0
1472.72203	748.5
1473.243885	748.5
1473.765685	748.25
1474.28743	753.75
1474.80912	749.5
1475.330755	745.5
1475.852335	743.25
1476.37386	754.0
1476.89533	749.0
1477.416745	743.5
1477.938106	754.25
1478.459411	754.0
1478.980662	752.5
1479.501857	749.75
1480.022998	748.0
1480.544084	747.0
1481.065115	746.75
1481.586091	749.0
1482.107012	750.0
1482.627878	753.75
1483.14869	744.75
1483.669446	743.75
1484.190148	748.0
1484.710794	747.75
1485.231386	747.75
1485.751923	753.25
1486.272406	748.25
1486.792833	748.0
1487.313205	750.5
1487.833523	755.0
1488.353786	751.5
1488.873994	744.75
1489.394147	745.25
1489.914245	746.0
1490.434288	746.5
1490.954277	748.25
1491.474211	751.5
1491.99409	748.0
1492.513914	748.5
1493.033683	749.5
1493.553398	749.75
1494.073057	748.0
1494.592662	749.25
1495.112212	751.0
1495.631708	751.0
1496.151148	751.25
1496.670534	754.0
1497.189865	749.5
1497.709141	749.75
1498.228362	758.5
1498.747529	751.5
1499.266641	750.75
1499.785698	755.25
1500.3047	751.0
1500.823648	747.0
1501.34254	752.75
1501.861379	753.5
1502.380162	748.75
1502.89889	748.5
1503.417564	743.75
1503.936183	752.5
1504.454748	750.25
1504.973257	748.0
1505.491712	746.5
1506.010112	748.25
1506.528458	744.25
1507.046748	748.75
1507.564984	749.75
1508.083166	746.75
1508.601292	742.5
1509.119364	747.5
1509.637381	750.0
1510.155344	752.5
1510.673252	756.0
1511.191105	747.5
1511.708903	744.25
1512.226647	751.25
1512.744336	744.25
1513.261971	750.0
1513.77955	749.75
1514.297076	753.5
1514.814546	749.0
1515.331962	755.0
1515.849323	749.0
1516.366629	754.25
1516.883881	746.5
1517.401078	746.75
1517.918221	747.75
1518.435309	751.75
1518.952342	746.5
1519.469321	747.0
1519.986245	745.75
1520.503114	750.25
1521.019929	746.0
1521.536689	754.75
1522.053395	749.25
1522.570046	751.75
1523.086642	745.5
1523.603184	743.5
1524.119671	748.75
1524.636103	748.0
1525.152481	747.5
1525.668805	749.75
1526.185073	750.75
1526.701288	744.5
1527.217447	746.25
1527.733552	749.0
1528.249603	750.75
1528.765599	749.0
1529.28154	749.0
1529.797427	745.75
1530.313259	744.25
1530.829037	749.75
1531.34476	751.25
1531.860429	748.0
1532.376043	746.75
1532.891602	752.0
1533.407107	745.5
1533.922558	751.25
1534.437954	749.0
1534.953295	747.75
1535.468582	745.75
1535.983815	751.75
1536.498993	744.5
1537.014116	751.0
1537.529185	748.0
1538.044199	745.5
1538.559159	749.75
1539.074064	750.75
1539.588915	750.75
1540.103712	745.5
1540.618454	742.25
1541.133141	745.0
1541.647774	753.75
1542.162353	749.75
1542.676877	750.25
1543.191346	745.5
1543.705761	740.75
1544.220122	744.5
1544.734428	747.5
1545.24868	753.25
1545.762877	747.25
1546.27702	752.25
1546.791109	753.0
1547.305143	751.0
1547.819122	751.5
1548.333047	747.5
1548.846918	749.5
1549.360734	750.5
1549.874496	750.0
1550.388204	748.5
1550.901857	747.5
1551.415455	745.0
1551.929	750.25
1552.442489	750.0
1552.955925	747.75
1553.469306	745.0
1553.982632	751.75
1554.495905	754.25
1555.009123	748.5
1555.522286	746.75
1556.035395	752.0
1556.54845	745.0
1557.06145	743.75
1557.574396	746.0
1558.087288	748.0
1558.600125	753.0
1559.112908	753.5
1559.625637	749.75
1560.138311	748.75
1560.650931	746.75
1561.163497	750.0
1561.676008	749.0
1562.188465	748.5
1562.700867	753.75
1563.213216	750.75
1563.725509	752.75
1564.237749	746.0
1564.749934	744.0
1565.262065	752.75
1565.774142	741.75
1566.286164	750.5
1566.798132	756.0
1567.310046	749.0
1567.821906	750.0
1568.333711	755.75
1568.845462	745.25
1569.357158	750.25
1569.868801	747.75
1570.380389	756.5
1570.891922	746.75
1571.403402	746.5
1571.914827	745.25
1572.426198	756.0
1572.937515	745.75
1573.448777	749.25
1573.959985	745.25
1574.471139	752.5
1574.982239	754.75
1575.493285	746.0
1576.004276	750.0
1576.515213	747.25
1577.026096	745.75
1577.536924	749.0
1578.047698	755.5
1578.558419	752.5
1579.069084	751.0
1579.579696	751.0
1580.090254	745.75
1580.600757	753.5
1581.111206	746.5
1581.621601	756.25
1582.131941	752.25
1582.642228	757.0
1583.15246	753.5
1583.662638	746.25
1584.172762	748.5
1584.682832	749.25
1585.192847	753.0
1585.702809	746.0
1586.212716	748.25
1586.722569	747.75
1587.232368	755.75
1587.742113	755.25
1588.251803	751.0
1588.76144	748.5
1589.271022	752.25
1589.78055	744.25
1590.290024	745.5
1590.799444	746.75
1591.30881	749.75
1591.818121	750.25
1592.327379	749.0
