1042.414189	696.5999756
1042.980685	691.5999756
1043.547124	689.7999878
1044.113505	690.4000244
1044.679828	687.7999878
1045.246093	692.4000244
1045.8123	688.2000122
1046.378449	685.7999878
1046.94454	686.7999878
1047.510573	683.0
1048.076548	685.7999878
1048.642465	681.5999756
1049.208325	680.5999756
1049.774126	684.4000244
1050.339869	680.5999756
1050.905555	683.5999756
1051.471183	678.2000122
1052.036752	681.0
1052.602264	680.2000122
1053.167718	681.0
1053.733114	682.2000122
1054.298452	677.2000122
1054.863733	680.7999878
1055.428955	679.0
1055.994119	678.4000244
1056.559226	677.5999756
1057.124275	678.7999878
1057.689266	677.7999878
1058.254199	679.7999878
1058.819074	678.4000244
1059.383891	679.7999878
1059.94865	679.0
1060.513352	675.2000122
1061.077996	675.5999756
1061.642582	676.0
1062.20711	677.5999756
1062.77158	677.7999878
1063.335992	674.7999878
1063.900347	675.0
1064.464643	674.2000122
1065.028882	675.2000122
1065.593063	677.4000244
1066.157187	676.2000122
1066.721252	670.7999878
1067.28526	674.2000122
1067.84921	677.0
1068.413102	675.7999878
1068.976936	674.4000244
1069.540713	677.5999756
1070.104431	684.2000122
1070.668092	674.7999878
1071.231696	674.4000244
1071.795241	675.4000244
1072.358729	674.5999756
1072.922159	675.5999756
1073.485531	673.7999878
1074.048845	675.2000122
1074.612102	674.2000122
1075.175301	672.5999756
1075.738442	675.5999756
1076.301525	673.4000244
1076.864551	674.7999878
1077.427519	677.0
1077.990429	672.7999878
1078.553281	674.0
1079.116076	675.7999878
1079.678813	674.5999756
1080.241492	675.4000244
1080.804114	674.0
1081.366678	674.7999878
1081.929184	674.0
1082.491633	675.4000244
1083.054024	674.0
1083.616357	676.2000122
1084.178632	672.4000244
1084.74085	676.4000244
1085.30301	674.5999756
1085.865113	675.4000244
1086.427158	674.0
1086.989145	673.5999756
1087.551074	672.7999878
1088.112946	673.7999878
1088.67476	672.4000244
1089.236517	674.7999878
1089.798216	677.0
1090.359857	675.7999878
1090.92144	675.7999878
1091.482966	672.7999878
1092.044435	673.7999878
1092.605845	676.5999756
1093.167199	672.5999756
1093.728494	672.0
1094.289732	676.4000244
1094.850912	671.4000244
1095.412035	682.7999878
1095.9731	673.2000122
1096.534107	673.0
1097.095057	680.4000244
1097.65595	671.4000244
1098.216784	674.0
1098.777561	671.7999878
1099.338281	674.5999756
1099.898943	676.4000244
1100.459547	671.4000244
1101.020094	676.7999878
1101.580584	675.0
1102.141015	671.2000122
1102.701389	672.4000244
1103.261706	671.0
1103.821965	671.2000122
1104.382167	671.0
1104.942311	672.0
1105.502397	673.0
1106.062426	675.0
1106.622398	673.7999878
1107.182312	675.2000122
1107.742168	672.5999756
1108.301967	673.0
1108.861708	674.5999756
1109.421392	670.5999756
1109.981019	672.2000122
1110.540587	673.0
1111.100099	673.7999878
1111.659553	673.0
1112.218949	671.4000244
1112.778288	674.4000244
1113.33757	673.4000244
1113.896794	669.2000122
1114.45596	675.0
1115.015069	674.2000122
1115.574121	671.4000244
1116.133115	674.4000244
1116.692052	671.0
1117.250931	672.5999756
1117.809753	674.5999756
1118.368517	673.2000122
1118.927224	673.7999878
1119.485873	672.7999878
1120.044465	673.0
1120.603	673.5999756
1121.161477	671.2000122
1121.719897	672.7999878
1122.278259	675.2000122
1122.836564	672.7999878
1123.394812	671.5999756
1123.953002	673.5999756
1124.511135	673.2000122
1125.06921	673.2000122
1125.627228	672.4000244
1126.185189	671.0
1126.743092	671.4000244
1127.300938	673.4000244
1127.858726	676.5999756
1128.416457	672.4000244
1128.974131	674.4000244
1129.531748	672.5999756
1130.089307	674.7999878
1130.646808	673.7999878
1131.204252	673.2000122
1131.761639	674.0
1132.318969	673.4000244
1132.876241	671.2000122
1133.433456	674.4000244
1133.990614	670.5999756
1134.547714	673.2000122
1135.104757	673.7999878
1135.661743	669.5999756
1136.218671	672.2000122
1136.775542	672.4000244
1137.332356	673.4000244
1137.889112	673.4000244
1138.445811	672.0
1139.002453	672.2000122
1139.559037	668.7999878
1140.115565	673.4000244
1140.672035	674.0
1141.228447	670.2000122
1141.784803	675.2000122
1142.341101	673.7999878
1142.897342	673.0
1143.453525	672.5999756
1144.009651	673.4000244
1144.565721	672.7999878
1145.121732	670.7999878
1145.677687	670.4000244
1146.233584	673.2000122
1146.789424	673.4000244
1147.345207	674.2000122
1147.900933	674.7999878
1148.456601	674.2000122
1149.012212	675.4000244
1149.567766	674.2000122
1150.123263	675.4000244
1150.678702	674.2000122
1151.234085	673.2000122
1151.78941	670.0
1152.344678	669.0
1152.899888	674.0
1153.455042	672.4000244
1154.010138	673.5999756
1154.565177	671.4000244
1155.120159	670.4000244
1155.675084	670.7999878
1156.229951	673.2000122
1156.784762	672.7999878
1157.339515	673.7999878
1157.894211	675.2000122
1158.44885	672.2000122
1159.003432	673.7999878
1159.557956	674.2000122
1160.112424	674.7999878
1160.666834	673.7999878
1161.221187	674.7999878
1161.775483	672.2000122
1162.329722	673.5999756
1162.883904	672.4000244
1163.438029	673.4000244
1163.992096	674.5999756
1164.546107	674.0
1165.10006	670.4000244
1165.653956	674.5999756
1166.207795	670.5999756
1166.761577	676.4000244
1167.315302	676.4000244
1167.86897	673.0
1168.422581	673.2000122
1168.976134	673.2000122
1169.529631	673.5999756
1170.08307	672.2000122
1170.636453	674.4000244
1171.189778	673.4000244
1171.743046	672.7999878
1172.296257	675.0
1172.849412	671.5999756
1173.402509	672.0
1173.955549	672.2000122
1174.508532	672.2000122
1175.061458	672.4000244
1175.614327	673.5999756
1176.167138	672.2000122
1176.719893	671.5999756
1177.272591	673.0
1177.825232	674.7999878
1178.377816	671.7999878
1178.930342	671.2000122
1179.482812	671.4000244
1180.035225	672.5999756
1180.587581	676.2000122
1181.139879	669.5999756
1181.692121	671.5999756
1182.244306	671.2000122
1182.796434	671.4000244
1183.348504	671.7999878
1183.900518	674.7999878
1184.452475	675.7999878
1185.004375	679.0
1185.556218	673.5999756
1186.108004	673.5999756
1186.659733	672.4000244
1187.211405	674.0
1187.76302	672.4000244
1188.314578	673.2000122
1188.866079	670.4000244
1189.417523	674.0
1189.96891	672.0
1190.520241	670.7999878
1191.071514	673.2000122
1191.622731	674.0
1192.17389	673.5999756
1192.724993	669.2000122
1193.276039	691.0
1193.827027	670.7999878
1194.377959	674.5999756
1194.928834	671.4000244
1195.479653	674.0
1196.030414	671.0
1196.581118	671.2000122
1197.131766	672.7999878
1197.682356	672.5999756
1198.23289	672.5999756
1198.783367	673.0
1199.333786	675.2000122
1199.88415	674.5999756
1200.434456	669.7999878
1200.984705	670.7999878
1201.534898	670.5999756
1202.085033	671.4000244
1202.635112	672.0
1203.185134	672.2000122
1203.735099	672.7999878
1204.285007	675.0
1204.834859	675.0
1205.384653	674.7999878
1205.934391	672.7999878
1206.484072	672.2000122
1207.033696	671.2000122
1207.583263	675.4000244
1208.132774	673.4000244
1208.682228	670.7999878
1209.231624	672.4000244
1209.780965	674.0
1210.330248	673.2000122
1210.879474	674.5999756
1211.428644	670.7999878
1211.977757	673.4000244
1212.526813	672.0
1213.075813	675.4000244
1213.624755	671.0
1214.173641	674.2000122
1214.72247	674.2000122
1215.271242	672.2000122
1215.819958	670.7999878
1216.368617	675.0
1216.917219	676.7999878
1217.465764	675.5999756
1218.014253	671.4000244
1218.562685	677.0
1219.11106	679.2000122
1219.659378	672.0
1220.20764	673.0
1220.755845	671.4000244
1221.303993	670.7999878
1221.852085	673.5999756
1222.400119	675.0
1222.948097	674.0
1223.496019	673.4000244
1224.043883	677.5999756
1225.687137	676.2000122
1226.234775	672.4000244
1226.782357	674.2000122
1227.329881	668.7999878
1227.877349	672.5999756
1228.42476	673.7999878
1228.972115	673.0
1229.519413	672.0
1230.066654	671.4000244
1230.613839	672.7999878
1231.160967	672.7999878
1231.708038	672.7999878
1232.255053	674.2000122
1232.802011	671.2000122
1233.348912	671.4000244
1233.895757	674.5999756
1234.442545	674.7999878
1234.989277	674.4000244
1235.535951	672.2000122
1236.08257	671.2000122
1236.629131	675.7999878
1237.175636	668.4000244
1237.722085	673.0
1238.268477	672.0
1238.814812	671.7999878
1239.361091	676.5999756
1239.907313	669.7999878
1240.453478	671.0
1240.999587	675.7999878
1241.54564	673.4000244
1242.091636	672.2000122
1242.637575	672.0
1243.183457	674.4000244
1243.729284	674.7999878
1244.275053	673.5999756
1244.820766	674.7999878
1245.366423	672.2000122
1245.912022	673.4000244
1246.457566	672.5999756
1247.003053	675.2000122
1247.548483	672.4000244
1248.093857	671.2000122
1248.639174	673.0
1249.184435	673.4000244
1249.729639	673.5999756
1250.274787	672.7999878
1250.819878	676.7999878
1251.364912	676.7999878
1251.909891	671.5999756
1252.454812	672.4000244
1252.999677	676.7999878
1253.544486	671.2000122
1254.089238	673.0
1254.633934	674.0
1255.178573	675.7999878
1255.723156	674.5999756
1256.267682	674.7999878
1256.812152	678.7999878
1257.356565	680.5999756
1257.900922	676.4000244
1258.445223	676.7999878
1258.989467	678.5999756
1259.533654	680.2000122
1260.077785	683.2000122
1260.62186	681.7999878
1261.165878	682.2000122
1261.70984	684.4000244
1262.253745	678.7999878
1262.797594	679.4000244
1263.341386	678.4000244
1263.885123	683.0
1264.428802	675.2000122
1264.972425	677.2000122
1265.515992	677.7999878
1266.059503	677.5999756
1266.602957	678.5999756
1267.146354	680.2000122
1267.689696	677.7999878
1268.23298	681.5999756
1268.776209	677.4000244
1269.319381	675.5999756
1269.862497	675.4000244
1270.405556	677.5999756
1270.948559	674.0
1271.491506	675.5999756
1272.034396	680.0
1272.57723	677.4000244
1273.120007	675.4000244
1273.662728	679.0
1274.205393	679.2000122
1274.748002	680.2000122
1275.290554	681.2000122
1275.83305	681.0
1276.375489	682.0
1276.917872	682.0
1277.460199	683.5999756
1278.00247	685.2000122
1278.544684	692.7999878
1279.086842	694.4000244
1279.628943	703.7999878
1280.170989	731.2000122
1280.712978	781.2000122
1281.25491	852.5999756
1281.796787	864.0
1282.338607	793.7999878
1282.880371	732.0
1283.422078	709.5999756
1283.963729	699.0
1284.505324	692.7999878
1285.046863	686.0
1285.588345	684.2000122
1286.129772	681.5999756
1286.671142	681.4000244
1287.212455	677.4000244
1287.753713	680.4000244
1288.294914	679.0
1288.836059	678.5999756
1289.377147	677.5999756
1289.91818	677.0
1290.459156	673.4000244
1291.000076	675.5999756
1291.54094	675.0
1292.081747	674.0
1292.622499	675.0
1293.163194	674.4000244
1293.703833	675.5999756
1294.244415	674.4000244
1294.784942	675.7999878
1295.325412	678.0
1295.865826	674.2000122
1296.406184	676.2000122
1296.946486	674.7999878
1297.486731	678.4000244
1298.026921	672.0
1298.567054	674.4000244
1299.107131	671.2000122
1299.647152	674.4000244
1300.187116	673.2000122
1300.727025	672.2000122
1301.266877	671.2000122
1301.806673	675.5999756
1302.346413	674.4000244
1302.886097	674.4000244
1303.425725	675.4000244
1303.965297	675.4000244
1304.504812	674.2000122
1305.044272	674.0
1305.583675	676.0
1306.123022	670.7999878
1306.662313	674.0
1307.201548	676.5999756
1307.740727	672.2000122
1308.279849	673.2000122
1308.818916	674.0
1309.357926	675.0
1309.896881	675.5999756
1310.435779	676.0
1310.974621	672.2000122
1311.513407	674.7999878
1312.052137	673.2000122
1312.590811	675.0
1313.129429	676.5999756
1313.667991	671.2000122
1314.206497	672.0
1314.744946	675.4000244
1315.28334	674.2000122
1315.821678	672.2000122
1316.359959	675.7999878
1316.898184	669.7999878
1317.436354	673.0
1317.974467	674.5999756
1318.512525	671.0
1319.050526	673.4000244
1319.588471	672.2000122
1320.12636	673.7999878
1320.664194	670.2000122
1321.201971	676.0
1321.739692	674.4000244
1322.277357	671.4000244
1322.814967	674.0
1323.35252	674.5999756
1323.890017	674.5999756
1324.427458	672.2000122
1324.964843	674.0
1325.502173	671.5999756
1326.039446	676.7999878
1326.576663	673.5999756
1327.113824	673.2000122
1327.65093	673.0
1328.187979	674.0
1328.724972	671.7999878
1329.26191	672.7999878
1329.798791	675.4000244
1330.335617	674.2000122
1330.872386	673.4000244
1331.4091	673.7999878
1331.945758	674.7999878
1332.48236	675.7999878
1333.018905	674.5999756
1333.555395	673.4000244
1334.091829	671.5999756
1334.628207	674.0
1335.164529	673.7999878
1335.700796	672.4000244
1336.237006	673.0
1336.77316	673.0
1337.309259	674.7999878
1337.845301	675.4000244
1338.381288	673.4000244
1338.917219	674.7999878
1339.453094	670.2000122
1339.988913	674.5999756
1340.524676	673.0
1341.060383	671.7999878
1341.596034	674.2000122
1342.13163	672.5999756
1342.66717	672.7999878
1343.202653	671.0
1343.738081	675.7999878
1344.273453	675.0
1344.80877	671.0
1345.34403	674.7999878
1345.879235	675.7999878
1346.414383	673.7999878
1346.949476	670.5999756
1347.484513	675.7999878
1348.019494	674.5999756
1348.55442	671.5999756
1349.089289	670.2000122
1349.624103	672.4000244
1350.158861	677.2000122
1350.693563	671.7999878
1351.228209	672.7999878
1351.7628	676.2000122
1352.297334	674.2000122
1352.831813	674.4000244
1353.366236	672.4000244
1353.900604	674.0
1354.434915	674.7999878
1354.969171	679.2000122
1355.503371	676.2000122
1356.037515	678.0
1356.571604	674.7999878
1357.105636	672.5999756
1357.639613	674.5999756
1358.173535	672.4000244
1358.7074	675.0
1359.24121	672.2000122
1359.774964	675.5999756
1360.308662	675.2000122
1360.842304	672.2000122
1361.375891	677.4000244
1361.909422	674.4000244
1362.442897	674.7999878
1362.976317	675.0
1363.50968	676.7999878
1364.042989	672.7999878
1364.576241	676.7999878
1365.109438	675.0
1365.642579	674.7999878
1366.175664	674.5999756
1366.708693	674.4000244
1367.241667	677.0
1367.774585	676.7999878
1368.307448	678.4000244
1368.840255	677.4000244
1369.373006	682.2000122
1369.905701	678.0
1370.438341	677.7999878
1370.970925	676.2000122
1371.503454	675.4000244
1372.035926	679.0
1372.568344	674.7999878
1373.100705	679.0
1373.633011	677.2000122
1374.165261	676.5999756
1374.697456	677.2000122
1375.229595	677.2000122
1375.761678	677.5999756
1376.293705	681.2000122
1376.825677	680.7999878
1377.357594	679.0
1377.889455	678.2000122
1378.42126	680.2000122
1378.953009	681.5999756
1379.484703	682.0
1380.016342	679.0
1380.547924	682.0
1381.079452	683.2000122
1381.610923	686.0
1382.142339	689.0
1382.673699	689.7999878
1383.205004	692.4000244
1383.736253	700.0
1384.267447	711.5999756
1384.798585	736.7999878
1385.329668	767.5999756
1385.860695	855.0
1386.391666	985.7999878
1386.922582	1037.0
1387.453442	915.2000122
1387.984247	800.7999878
1388.514996	741.4000244
1389.04569	715.4000244
1389.576328	704.0
1390.10691	699.0
1390.637437	689.0
1391.167909	686.4000244
1391.698325	686.2000122
1392.228685	686.5999756
1392.75899	681.2000122
1393.28924	680.4000244
1393.819434	682.7999878
1394.349572	678.5999756
1394.879655	677.5999756
1395.409683	676.2000122
1395.939655	679.4000244
1396.469571	680.4000244
1396.999432	678.2000122
1397.529237	678.0
1398.058987	676.2000122
1398.588682	678.4000244
1399.118321	676.5999756
1399.647905	676.5999756
1400.177433	678.4000244
1400.706906	679.0
1401.236323	679.2000122
1401.765685	678.7999878
1402.294991	680.2000122
1402.824242	676.4000244
1403.353437	680.5999756
1403.882577	680.7999878
1404.411662	679.7999878
1404.940691	680.5999756
1405.469665	679.0
1405.998583	681.5999756
1406.527446	682.5999756
1407.056253	684.2000122
1407.585005	685.2000122
1408.113702	684.2000122
1408.642343	687.7999878
1409.170929	686.0
1409.69946	680.5999756
1410.227935	681.2000122
1410.756354	680.2000122
1411.284719	678.2000122
1411.813028	678.5999756
1412.341281	677.5999756
1412.869479	676.0
1413.397622	674.5999756
1413.92571	675.4000244
1414.453742	676.0
1414.981718	674.0
1415.50964	684.0
1416.037506	670.7999878
1416.565316	672.5999756
1417.093072	673.7999878
1417.620772	675.7999878
1418.148416	674.7999878
1418.676005	673.5999756
1419.203539	675.5999756
1419.731018	673.2000122
1420.258441	675.5999756
1420.785809	670.2000122
1421.313122	673.5999756
1421.840379	673.5999756
1422.367582	669.2000122
1422.894728	673.0
1423.42182	672.2000122
1423.948856	672.0
1424.475837	678.0
1425.002762	671.4000244
1425.529633	674.4000244
1426.056448	672.0
1426.583207	672.5999756
1427.109912	673.7999878
1427.636561	674.0
1428.163155	671.4000244
1428.689694	674.4000244
1429.216177	673.2000122
1429.742605	673.5999756
1430.268978	673.7999878
1430.795296	674.7999878
1431.321558	672.2000122
1431.847765	672.5999756
1432.373917	671.4000244
1432.900014	671.5999756
1433.426056	673.5999756
1433.952042	670.0
1434.477973	671.5999756
1435.003849	673.0
1435.529669	672.0
1436.055435	671.7999878
1436.581145	672.7999878
1437.1068	671.2000122
1437.632399	672.4000244
1438.157944	672.5999756
1438.683433	673.4000244
1439.208868	673.2000122
1439.734247	672.7999878
1440.25957	671.2000122
1440.784839	671.2000122
1441.310053	676.0
1441.835211	675.0
1442.360314	673.0
1442.885362	674.4000244
1443.410355	671.0
1443.935292	673.4000244
1444.460175	671.0
1444.985002	674.5999756
1445.509774	674.5999756
1446.034491	670.4000244
1446.559153	671.0
1447.08376	672.4000244
1447.608312	672.7999878
1448.132808	673.4000244
1448.65725	672.0
1449.181636	669.2000122
1449.705967	673.5999756
1450.230243	670.4000244
1450.754464	671.5999756
1451.27863	669.4000244
1451.802741	670.5999756
1452.326797	668.2000122
1452.850797	672.0
1453.374743	675.5999756
1453.898633	672.7999878
1454.422468	670.7999878
1454.946249	669.4000244
1455.469974	669.7999878
1455.993644	671.4000244
1456.517259	672.2000122
1457.040819	672.2000122
1457.564324	673.4000244
1458.087773	671.5999756
1458.611168	670.5999756
1459.134508	673.0
1459.657793	672.4000244
1460.181022	674.5999756
1460.704197	672.4000244
1461.227316	671.2000122
1461.750381	674.2000122
1462.27339	673.4000244
1462.796345	680.4000244
1463.319244	681.0
1463.842089	672.2000122
1464.364878	673.4000244
1464.887613	672.4000244
1465.410292	672.4000244
1465.932916	672.7999878
1466.455486	671.4000244
1466.978	669.7999878
1467.50046	669.7999878
1468.022864	672.4000244
1468.545214	670.5999756
1469.067508	668.4000244
1469.589748	671.2000122
1470.111932	670.4000244
1470.634062	674.0
1471.156136	672.2000122
1471.678156	672.2000122
1472.20012	670.7999878
1472.72203	667.5999756
1473.243885	669.4000244
1473.765685	672.0
1474.28743	669.5999756
1474.80912	671.2000122
1475.330755	670.4000244
1475.852335	670.5999756
1476.37386	672.2000122
1476.89533	672.4000244
1477.416745	671.2000122
1477.938106	671.2000122
1478.459411	673.2000122
1478.980662	672.4000244
1479.501857	670.4000244
1480.022998	671.4000244
1480.544084	671.7999878
1481.065115	671.7999878
1481.586091	669.2000122
1482.107012	673.7999878
1482.627878	671.5999756
1483.14869	672.2000122
1483.669446	668.7999878
1484.190148	668.2000122
1484.710794	669.0
1485.231386	671.7999878
1485.751923	672.5999756
1486.272406	673.2000122
1486.792833	673.2000122
1487.313205	673.2000122
1487.833523	670.5999756
1488.353786	669.5999756
1488.873994	669.5999756
1489.394147	672.2000122
1489.914245	671.4000244
1490.434288	669.4000244
1490.954277	672.4000244
1491.474211	673.4000244
1491.99409	671.7999878
1492.513914	671.5999756
1493.033683	671.2000122
1493.553398	673.0
1494.073057	670.4000244
1494.592662	671.0
1495.112212	671.5999756
1495.631708	669.2000122
1496.151148	672.7999878
1496.670534	676.0
1497.189865	673.2000122
1497.709141	670.4000244
1498.228362	671.7999878
1498.747529	671.5999756
1499.266641	669.7999878
1499.785698	677.2000122
1500.3047	671.4000244
1500.823648	671.2000122
1501.34254	667.7999878
1501.861379	670.2000122
1502.380162	674.4000244
1502.89889	670.5999756
1503.417564	672.4000244
1503.936183	672.2000122
1504.454748	670.0
1504.973257	667.7999878
1505.491712	671.7999878
1506.010112	670.2000122
1506.528458	668.5999756
1507.046748	670.5999756
1507.564984	672.0
1508.083166	671.0
1508.601292	670.4000244
1509.119364	670.4000244
1509.637381	671.5999756
1510.155344	669.5999756
1510.673252	681.2000122
1511.191105	674.7999878
1511.708903	669.7999878
1512.226647	668.5999756
1512.744336	669.7999878
1513.261971	670.7999878
1513.77955	670.2000122
1514.297076	667.4000244
1514.814546	670.2000122
1515.331962	670.4000244
1515.849323	671.4000244
1516.366629	673.0
1516.883881	669.4000244
1517.401078	671.0
1517.918221	672.0
1518.435309	672.2000122
1518.952342	673.7999878
1519.469321	671.5999756
1519.986245	671.4000244
1520.503114	669.4000244
1521.019929	672.5999756
1521.536689	671.5999756
1522.053395	671.2000122
1522.570046	672.0
1523.086642	671.5999756
1523.603184	669.2000122
1524.119671	672.2000122
1524.636103	672.5999756
1525.152481	669.5999756
1525.668805	675.5999756
1526.185073	680.7999878
1526.701288	674.5999756
1527.217447	669.2000122
1527.733552	671.4000244
1528.249603	673.5999756
1528.765599	671.4000244
1529.28154	667.5999756
1529.797427	671.7999878
1530.313259	670.5999756
1530.829037	669.2000122
1531.34476	668.7999878
1531.860429	671.5999756
1532.376043	673.4000244
1532.891602	670.2000122
1533.407107	669.0
1533.922558	670.2000122
1534.437954	675.7999878
1534.953295	671.0
1535.468582	669.5999756
1535.983815	672.4000244
1536.498993	669.5999756
1537.014116	672.7999878
1537.529185	667.4000244
1538.044199	673.7999878
1538.559159	671.5999756
1539.074064	668.7999878
1539.588915	669.4000244
1540.103712	668.2000122
1540.618454	671.2000122
1541.133141	672.5999756
1541.647774	671.5999756
1542.162353	669.2000122
1542.676877	671.2000122
1543.191346	672.5999756
1543.705761	670.4000244
1544.220122	671.4000244
1544.734428	669.7999878
1545.24868	672.5999756
1545.762877	671.5999756
1546.27702	671.2000122
1546.791109	673.0
1547.305143	670.2000122
1547.819122	672.0
1548.333047	669.2000122
1548.846918	670.4000244
1549.360734	671.5999756
1549.874496	670.4000244
1550.388204	670.5999756
1550.901857	669.2000122
1551.415455	670.7999878
1551.929	671.4000244
1552.442489	671.7999878
1552.955925	671.7999878
1553.469306	669.7999878
1553.982632	672.5999756
1554.495905	671.4000244
1555.009123	671.7999878
1555.522286	671.2000122
1556.035395	669.2000122
1556.54845	669.0
1557.06145	668.2000122
1557.574396	670.5999756
1558.087288	670.0
1558.600125	672.2000122
1559.112908	670.0
1559.625637	671.2000122
1560.138311	670.5999756
1560.650931	673.4000244
1561.163497	672.2000122
1561.676008	671.4000244
1562.188465	666.2000122
1562.700867	670.5999756
1563.213216	672.2000122
1563.725509	670.7999878
1564.237749	672.2000122
1564.749934	670.4000244
1565.262065	671.0
1565.774142	673.7999878
1566.286164	672.0
1566.798132	673.2000122
1567.310046	672.4000244
1567.821906	671.4000244
1568.333711	674.4000244
1568.845462	671.2000122
1569.357158	672.2000122
1569.868801	671.0
1570.380389	671.0
1570.891922	670.4000244
1571.403402	671.2000122
1571.914827	670.5999756
1572.426198	671.4000244
1572.937515	671.4000244
1573.448777	669.4000244
1573.959985	669.7999878
1574.471139	666.5999756
1574.982239	670.0
1575.493285	673.4000244
1576.004276	674.2000122
1576.515213	671.5999756
1577.026096	670.5999756
1577.536924	669.4000244
1578.047698	671.7999878
1578.558419	670.5999756
1579.069084	670.0
1579.579696	669.4000244
1580.090254	671.2000122
1580.600757	671.4000244
1581.111206	669.4000244
1581.621601	672.5999756
1582.131941	673.0
1582.642228	669.7999878
1583.15246	669.4000244
1583.662638	668.7999878
1584.172762	670.7999878
1584.682832	670.2000122
1585.192847	671.0
1585.702809	670.7999878
1586.212716	669.2000122
1586.722569	671.0
1587.232368	669.4000244
1587.742113	671.5999756
1588.251803	669.4000244
1588.76144	669.0
1589.271022	671.2000122
1589.78055	670.5999756
1590.290024	670.5999756
1590.799444	671.5999756
1591.30881	672.0
1591.818121	670.7999878
1592.327379	671.7999878
