1042.414189	772.25
1042.980685	775.75
1043.547124	769.5
1044.113505	769.5
1044.679828	769.75
1045.246093	774.75
1045.8123	770.0
1046.378449	768.0
1046.94454	773.0
1047.510573	770.75
1048.076548	768.5
1048.642465	764.25
1049.208325	763.25
1049.774126	764.0
1050.339869	761.0
1050.905555	770.5
1051.471183	759.75
1052.036752	761.0
1052.602264	764.5
1053.167718	762.5
1053.733114	767.0
1054.298452	762.75
1054.863733	765.25
1055.428955	759.0
1055.994119	763.0
1056.559226	764.75
1057.124275	761.75
1057.689266	755.0
1058.254199	762.0
1058.819074	763.0
1059.383891	756.0
1059.94865	760.75
1060.513352	753.75
1061.077996	759.25
1061.642582	755.25
1062.20711	761.25
1062.77158	754.5
1063.335992	758.25
1063.900347	749.75
1064.464643	758.5
1065.028882	750.75
1065.593063	757.75
1066.157187	757.5
1066.721252	753.75
1067.28526	757.5
1067.84921	754.5
1068.413102	755.0
1068.976936	757.5
1069.540713	756.0
1070.104431	762.25
1070.668092	748.75
1071.231696	754.25
1071.795241	755.5
1072.358729	752.5
1072.922159	751.75
1073.485531	751.25
1074.048845	754.5
1074.612102	751.75
1075.175301	749.75
1075.738442	747.75
1076.301525	752.25
1076.864551	751.5
1077.427519	746.5
1077.990429	751.5
1078.553281	752.5
1079.116076	753.25
1079.678813	756.25
1080.241492	750.75
1080.804114	754.0
1081.366678	748.75
1081.929184	747.75
1082.491633	753.25
1083.054024	747.5
1083.616357	756.0
1084.178632	750.5
1084.74085	751.75
1085.30301	744.75
1085.865113	751.25
1086.427158	750.0
1086.989145	744.0
1087.551074	751.25
1088.112946	750.75
1088.67476	746.75
1089.236517	748.5
1089.798216	748.0
1090.359857	750.75
1090.92144	749.5
1091.482966	748.5
1092.044435	746.25
1092.605845	746.0
1093.167199	750.75
1093.728494	741.0
1094.289732	745.0
1094.850912	747.25
1095.412035	755.25
1095.9731	742.75
1096.534107	746.5
1097.095057	754.0
1097.65595	747.5
1098.216784	748.75
1098.777561	738.5
1099.338281	742.25
1099.898943	747.5
1100.459547	745.5
1101.020094	742.0
1101.580584	743.75
1102.141015	742.0
1102.701389	743.25
1103.261706	742.75
1103.821965	748.0
1104.382167	741.0
1104.942311	739.75
1105.502397	742.5
1106.062426	741.5
1106.622398	744.0
1107.182312	740.5
1107.742168	742.75
1108.301967	739.75
1108.861708	737.75
1109.421392	741.75
1109.981019	743.5
1110.540587	742.75
1111.100099	737.75
1111.659553	743.25
1112.218949	740.5
1112.778288	740.25
1113.33757	741.25
1113.896794	734.0
1114.45596	735.25
1115.015069	737.25
1115.574121	737.75
1116.133115	738.25
1116.692052	737.25
1117.250931	737.0
1117.809753	739.0
1118.368517	739.75
1118.927224	736.5
1119.485873	736.0
1120.044465	736.75
1120.603	730.75
1121.161477	733.5
1121.719897	739.0
1122.278259	732.5
1122.836564	739.25
1123.394812	740.0
1123.953002	738.75
1124.511135	735.5
1125.06921	739.5
1125.627228	734.75
1126.185189	737.5
1126.743092	735.25
1127.300938	739.0
1127.858726	738.25
1128.416457	734.5
1128.974131	737.0
1129.531748	730.5
1130.089307	738.25
1130.646808	733.0
1131.204252	737.25
1131.761639	738.25
1132.318969	742.25
1132.876241	734.5
1133.433456	732.25
1133.990614	734.5
1134.547714	735.25
1135.104757	730.75
1135.661743	729.0
1136.218671	736.5
1136.775542	732.5
1137.332356	732.25
1137.889112	735.0
1138.445811	737.0
1139.002453	732.0
1139.559037	732.5
1140.115565	728.0
1140.672035	734.75
1141.228447	737.0
1141.784803	730.75
1142.341101	731.25
1142.897342	730.0
1143.453525	737.25
1144.009651	734.25
1144.565721	733.5
1145.121732	733.25
1145.677687	738.75
1146.233584	731.75
1146.789424	733.25
1147.345207	736.25
1147.900933	736.25
1148.456601	725.75
1149.012212	734.0
1149.567766	730.25
1150.123263	734.75
1150.678702	738.5
1151.234085	732.75
1151.78941	730.75
1152.344678	734.25
1152.899888	738.0
1153.455042	732.75
1154.010138	733.75
1154.565177	730.25
1155.120159	738.0
1155.675084	731.5
1156.229951	734.75
1156.784762	730.0
1157.339515	736.75
1157.894211	728.0
1158.44885	731.75
1159.003432	726.0
1159.557956	730.0
1160.112424	736.0
1160.666834	730.75
1161.221187	730.75
1161.775483	732.25
1162.329722	734.0
1162.883904	734.5
1163.438029	732.25
1163.992096	730.5
1164.546107	733.5
1165.10006	731.25
1165.653956	732.0
1166.207795	735.75
1166.761577	730.25
1167.315302	739.25
1167.86897	729.5
1168.422581	734.5
1168.976134	731.0
1169.529631	730.75
1170.08307	735.0
1170.636453	726.5
1171.189778	735.0
1171.743046	727.75
1172.296257	728.5
1172.849412	729.5
1173.402509	730.75
1173.955549	731.25
1174.508532	729.25
1175.061458	734.75
1175.614327	732.25
1176.167138	728.25
1176.719893	723.75
1177.272591	728.75
1177.825232	732.5
1178.377816	729.75
1178.930342	731.25
1179.482812	734.25
1180.035225	728.5
1180.587581	727.5
1181.139879	730.25
1181.692121	727.5
1182.244306	732.0
1182.796434	734.0
1183.348504	731.25
1183.900518	729.75
1184.452475	725.0
1185.004375	729.25
1185.556218	726.75
1186.108004	730.0
1186.659733	731.5
1187.211405	726.75
1187.76302	728.75
1188.314578	732.5
1188.866079	731.25
1189.417523	723.0
1189.96891	731.5
1190.520241	726.75
1191.071514	736.0
1191.622731	727.75
1192.17389	730.0
1192.724993	727.5
1193.276039	749.5
1193.827027	732.75
1194.377959	731.0
1194.928834	728.75
1195.479653	726.5
1196.030414	728.0
1196.581118	730.25
1197.131766	731.0
1197.682356	731.75
1198.23289	725.5
1198.783367	724.5
1199.333786	731.25
1199.88415	723.25
1200.434456	728.75
1200.984705	727.25
1201.534898	729.5
1202.085033	727.25
1202.635112	726.75
1203.185134	732.25
1203.735099	725.75
1204.285007	721.25
1204.834859	734.75
1205.384653	730.25
1205.934391	726.0
1206.484072	724.25
1207.033696	733.5
1207.583263	725.0
1208.132774	724.5
1208.682228	728.0
1209.231624	727.25
1209.780965	726.75
1210.330248	728.25
1210.879474	724.5
1211.428644	728.0
1211.977757	733.25
1212.526813	734.75
1213.075813	720.5
1213.624755	729.0
1214.173641	727.0
1214.72247	726.75
1215.271242	727.0
1215.819958	731.0
1216.368617	729.5
1216.917219	727.5
1217.465764	728.5
1218.014253	730.75
1218.562685	731.75
1219.11106	726.5
1219.659378	727.75
1220.20764	732.0
1220.755845	725.5
1221.303993	728.25
1221.852085	726.5
1222.400119	723.0
1222.948097	730.25
1223.496019	729.5
1224.043883	726.25
1224.591691	731.25
1225.139443	726.75
1225.687137	728.25
1226.234775	729.0
1226.782357	728.75
1227.329881	727.0
1227.877349	730.75
1228.42476	723.75
1228.972115	725.5
1229.519413	732.75
1230.066654	726.5
1230.613839	724.75
1231.160967	726.0
1231.708038	730.5
1232.255053	731.75
1232.802011	729.25
1233.348912	724.0
1233.895757	726.5
1234.442545	734.0
1234.989277	725.0
1235.535951	726.75
1236.08257	727.0
1236.629131	725.75
1237.175636	724.25
1237.722085	724.0
1238.268477	724.5
1238.814812	727.75
1239.361091	726.0
1239.907313	725.75
1240.453478	725.5
1240.999587	729.0
1241.54564	729.25
1242.091636	724.5
1242.637575	733.25
1243.183457	727.75
1243.729284	728.0
1244.275053	727.0
1244.820766	729.25
1245.366423	729.75
1245.912022	728.0
1246.457566	732.5
1247.003053	727.0
1247.548483	729.75
1248.093857	726.25
1248.639174	729.5
1249.184435	723.25
1249.729639	729.5
1250.274787	729.25
1250.819878	723.5
1251.364912	729.5
1251.909891	723.5
1252.454812	727.25
1252.999677	731.0
1253.544486	728.5
1254.089238	724.5
1254.633934	732.5
1255.178573	729.25
1255.723156	724.5
1256.267682	726.75
1256.812152	726.0
1257.356565	730.75
1257.900922	726.5
1258.445223	728.75
1258.989467	723.75
1259.533654	731.5
1260.077785	735.75
1260.62186	724.75
1261.165878	726.75
1261.70984	728.25
1262.253745	729.25
1262.797594	729.25
1263.341386	734.5
1263.885123	732.75
1264.428802	734.25
1264.972425	745.25
1265.515992	745.0
1266.059503	745.5
1266.602957	733.75
1267.146354	731.5
1267.689696	732.5
1268.23298	732.5
1268.776209	725.75
1269.319381	722.75
1269.862497	725.75
1270.405556	730.0
1270.948559	729.25
1271.491506	730.25
1272.034396	727.75
1272.57723	726.5
1273.120007	730.25
1273.662728	724.0
1274.205393	730.0
1274.748002	724.25
1275.290554	730.25
1275.83305	724.25
1276.375489	726.25
1276.917872	728.75
1277.460199	729.25
1278.00247	727.0
1278.544684	727.5
1279.086842	722.75
1279.628943	724.75
1280.170989	729.75
1280.712978	733.75
1281.25491	727.75
1281.796787	732.25
1282.338607	726.25
1282.880371	736.0
1283.422078	733.25
1283.963729	744.0
1284.505324	769.25
1285.046863	844.5
1285.588345	957.25
1286.129772	896.75
1286.671142	788.0
1287.212455	750.5
1287.753713	732.75
1288.294914	730.0
1288.836059	731.5
1289.377147	725.0
1289.91818	729.5
1290.459156	729.0
1291.000076	724.5
1291.54094	728.75
1292.081747	728.0
1292.622499	728.25
1293.163194	725.25
1293.703833	726.75
1294.244415	726.5
1294.784942	729.5
1295.325412	726.0
1295.865826	729.25
1296.406184	724.5
1296.946486	722.75
1297.486731	723.75
1298.026921	726.0
1298.567054	727.5
1299.107131	723.25
1299.647152	729.0
1300.187116	723.75
1300.727025	729.0
1301.266877	725.25
1301.806673	728.25
1302.346413	728.75
1302.886097	724.75
1303.425725	726.0
1303.965297	726.75
1304.504812	722.75
1305.044272	728.0
1305.583675	724.75
1306.123022	728.0
1306.662313	727.0
1307.201548	724.0
1307.740727	729.25
1308.279849	723.75
1308.818916	724.0
1309.357926	724.75
1309.896881	730.75
1310.435779	729.5
1310.974621	726.75
1311.513407	725.75
1312.052137	729.25
1312.590811	724.25
1313.129429	721.5
1313.667991	722.25
1314.206497	729.0
1314.744946	726.5
1315.28334	724.25
1315.821678	723.0
1316.359959	720.75
1316.898184	724.5
1317.436354	724.25
1317.974467	727.5
1318.512525	724.25
1319.050526	720.5
1319.588471	725.75
1320.12636	729.5
1320.664194	726.0
1321.201971	725.75
1321.739692	729.5
1322.277357	723.75
1322.814967	722.25
1323.35252	730.5
1323.890017	732.25
1324.427458	722.75
1324.964843	721.5
1325.502173	728.75
1326.039446	725.0
1326.576663	729.75
1327.113824	727.5
1327.65093	727.75
1328.187979	720.5
1328.724972	732.25
1329.26191	730.75
1329.798791	726.75
1330.335617	722.5
1330.872386	721.75
1331.4091	723.25
1331.945758	723.75
1332.48236	722.5
1333.018905	727.75
1333.555395	725.25
1334.091829	721.25
1334.628207	732.0
1335.164529	722.0
1335.700796	730.25
1336.237006	726.0
1336.77316	726.25
1337.309259	728.25
1337.845301	725.5
1338.381288	730.25
1338.917219	727.0
1339.453094	724.5
1339.988913	723.25
1340.524676	730.5
1341.060383	727.75
1341.596034	725.25
1342.13163	724.75
1342.66717	723.5
1343.202653	720.5
1343.738081	727.75
1344.273453	731.0
1344.80877	726.0
1345.34403	730.75
1345.879235	722.75
1346.414383	723.0
1346.949476	723.5
1347.484513	723.5
1348.019494	725.0
1348.55442	727.0
1349.089289	722.25
1349.624103	722.25
1350.158861	724.75
1350.693563	727.25
1351.228209	721.0
1351.7628	721.25
1352.297334	722.75
1352.831813	728.5
1353.366236	728.5
1353.900604	726.75
1354.434915	722.5
1354.969171	729.25
1355.503371	727.75
1356.037515	727.75
1356.571604	717.0
1357.105636	721.75
1357.639613	727.0
1358.173535	725.25
1358.7074	727.5
1359.24121	726.25
1359.774964	731.25
1360.308662	726.5
1360.842304	725.0
1361.375891	723.75
1361.909422	727.75
1362.442897	720.75
1362.976317	726.0
1363.50968	726.5
1364.042989	727.5
1364.576241	727.25
1365.109438	724.75
1365.642579	721.5
1366.175664	728.75
1366.708693	723.5
1367.241667	723.5
1367.774585	722.75
1368.307448	727.75
1368.840255	727.25
1369.373006	723.5
1369.905701	724.0
1370.438341	732.5
1370.970925	731.5
1371.503454	733.5
1372.035926	730.25
1372.568344	724.5
1373.100705	725.75
1373.633011	725.25
1374.165261	728.25
1374.697456	729.0
1375.229595	731.75
1375.761678	725.25
1376.293705	727.5
1376.825677	724.75
1377.357594	729.5
1377.889455	730.25
1378.42126	723.75
1378.953009	722.0
1379.484703	725.0
1380.016342	728.5
1380.547924	725.75
1381.079452	731.5
1381.610923	725.5
1382.142339	724.75
1382.673699	726.0
1383.205004	729.75
1383.736253	725.5
1384.267447	727.25
1384.798585	728.25
1385.329668	728.25
1385.860695	741.75
1386.391666	737.0
1386.922582	741.25
1387.453442	753.0
1387.984247	792.5
1388.514996	951.75
1389.04569	1135.75
1389.576328	942.5
1390.10691	779.5
1390.637437	747.75
1391.167909	735.25
1391.698325	729.25
1392.228685	730.75
1392.75899	730.25
1393.28924	724.25
1393.819434	732.75
1394.349572	722.0
1394.879655	726.5
1395.409683	728.25
1395.939655	732.0
1396.469571	723.5
1396.999432	722.75
1397.529237	731.5
1398.058987	730.75
1398.588682	725.25
1399.118321	728.75
1399.647905	726.25
1400.177433	721.5
1400.706906	722.0
1401.236323	728.75
1401.765685	726.25
1402.294991	724.0
1402.824242	723.5
1403.353437	729.5
1403.882577	724.5
1404.411662	722.75
1404.940691	724.5
1405.469665	724.0
1405.998583	729.25
1406.527446	725.75
1407.056253	729.75
1407.585005	721.75
1408.113702	726.75
1408.642343	733.0
1409.170929	733.25
1409.69946	750.0
1410.227935	767.75
1410.756354	760.5
1411.284719	740.75
1411.813028	726.5
1412.341281	731.75
1412.869479	728.5
1413.397622	724.75
1413.92571	728.75
1414.453742	726.25
1414.981718	728.0
1415.50964	730.25
1416.037506	729.25
1416.565316	725.75
1417.093072	730.0
1417.620772	728.5
1418.148416	725.5
1418.676005	722.0
1419.203539	728.0
1419.731018	723.75
1420.258441	726.75
1420.785809	729.25
1421.313122	721.25
1421.840379	727.75
1422.367582	725.5
1422.894728	728.25
1423.42182	725.5
1423.948856	725.5
1424.475837	727.75
1425.002762	728.25
1425.529633	734.25
1426.056448	723.75
1426.583207	724.25
1427.109912	727.5
1427.636561	726.75
1428.163155	723.5
1428.689694	727.75
1429.216177	727.5
1429.742605	722.75
1430.268978	723.25
1430.795296	722.25
1431.321558	728.75
1431.847765	720.5
1432.373917	724.5
1432.900014	727.25
1433.426056	725.75
1433.952042	722.0
1434.477973	726.75
1435.003849	726.25
1435.529669	725.0
1436.055435	727.5
1436.581145	728.25
1437.1068	730.0
1437.632399	730.5
1438.157944	723.0
1438.683433	727.25
1439.208868	723.0
1439.734247	726.5
1440.25957	729.0
1440.784839	724.0
1441.310053	723.25
1441.835211	728.75
1442.360314	721.25
1442.885362	723.5
1443.410355	725.5
1443.935292	724.25
1444.460175	728.0
1444.985002	725.0
1445.509774	729.5
1446.034491	729.75
1446.559153	724.5
1447.08376	729.0
1447.608312	729.0
1448.132808	725.5
1448.65725	726.25
1449.181636	727.25
1449.705967	731.75
1450.230243	725.5
1450.754464	723.25
1451.27863	730.75
1451.802741	726.5
1452.326797	727.5
1452.850797	720.75
1453.374743	722.75
1453.898633	727.0
1454.422468	726.5
1454.946249	725.0
1455.469974	725.25
1455.993644	729.75
1456.517259	725.75
1457.040819	719.0
1457.564324	721.25
1458.087773	727.25
1458.611168	725.25
1459.134508	718.5
1459.657793	725.75
1460.181022	723.25
1460.704197	729.75
1461.227316	730.75
1461.750381	727.0
1462.27339	728.75
1462.796345	745.0
1463.842089	729.5
1464.364878	731.75
1464.887613	724.25
1465.410292	727.75
1465.932916	724.25
1466.455486	725.5
1466.978	723.0
1467.50046	725.5
1468.022864	724.5
1468.545214	722.0
1469.067508	725.0
1469.589748	723.75
1470.111932	727.5
1470.634062	726.5
1471.156136	723.0
1471.678156	727.75
1472.20012	723.0
1472.72203	718.25
1473.243885	728.5
1473.765685	726.5
1474.28743	725.0
1474.80912	727.5
1475.330755	723.5
1475.852335	721.25
1476.37386	723.25
1476.89533	725.25
1477.416745	722.25
1477.938106	722.75
1478.459411	725.5
1478.980662	728.5
1479.501857	726.25
1480.022998	721.75
1480.544084	718.25
1481.065115	724.25
1481.586091	725.5
1482.107012	726.5
1482.627878	722.25
1483.14869	719.75
1483.669446	719.5
1484.190148	725.0
1484.710794	720.5
1485.231386	722.0
1485.751923	724.75
1486.272406	724.25
1486.792833	723.25
1487.313205	724.0
1487.833523	723.0
1488.353786	730.25
1488.873994	722.25
1489.394147	726.25
1489.914245	722.0
1490.434288	721.5
1490.954277	725.75
1491.474211	723.25
1491.99409	716.5
1492.513914	727.0
1493.033683	724.75
1493.553398	722.75
1494.073057	724.25
1494.592662	724.0
1495.112212	726.0
1495.631708	720.25
1496.151148	726.0
1496.670534	723.5
1497.189865	723.75
1497.709141	722.75
1498.228362	724.75
1498.747529	722.25
1499.266641	730.25
1499.785698	726.0
1500.3047	720.5
1500.823648	729.0
1501.34254	726.5
1501.861379	726.25
1502.380162	721.75
1502.89889	717.25
1503.417564	727.25
1503.936183	722.5
1504.454748	725.0
1504.973257	722.0
1505.491712	726.5
1506.010112	722.0
1506.528458	720.25
1507.046748	720.25
1507.564984	722.0
1508.083166	721.0
1508.601292	726.5
1509.119364	728.75
1509.637381	722.0
1510.155344	723.0
1510.673252	731.0
1511.191105	725.5
1511.708903	723.0
1512.226647	726.5
1512.744336	724.0
1513.261971	722.75
1513.77955	720.25
1514.297076	726.0
1514.814546	722.5
1515.331962	722.25
1515.849323	724.0
1516.366629	723.75
1516.883881	723.0
1517.401078	723.5
1517.918221	723.0
1518.435309	722.25
1518.952342	720.25
1519.469321	720.25
1519.986245	724.0
1520.503114	723.25
1521.019929	724.5
1521.536689	718.75
1522.053395	718.5
1522.570046	725.0
1523.086642	722.5
1523.603184	720.75
1524.119671	728.5
1524.636103	724.75
1525.152481	722.5
1525.668805	733.0
1526.701288	734.0
1527.217447	722.0
1527.733552	722.5
1528.249603	726.0
1528.765599	722.75
1529.28154	720.25
1529.797427	716.5
1530.313259	722.25
1530.829037	723.75
1531.34476	726.5
1531.860429	726.0
1532.376043	723.75
1532.891602	722.0
1533.407107	722.5
1533.922558	720.75
1534.437954	724.5
1534.953295	727.5
1535.468582	722.0
1535.983815	717.75
1536.498993	718.5
1537.014116	722.0
1537.529185	723.25
1538.044199	726.25
1538.559159	724.25
1539.074064	726.25
1539.588915	722.75
1540.103712	724.25
1540.618454	725.75
1541.133141	724.25
1541.647774	725.5
1542.162353	715.5
1542.676877	727.25
1543.191346	726.0
1543.705761	727.25
1544.220122	724.25
1544.734428	724.25
1545.24868	727.5
1545.762877	721.5
1546.27702	722.0
1546.791109	720.75
1547.305143	723.25
1547.819122	723.5
1548.333047	727.5
1548.846918	722.5
1549.360734	726.25
1549.874496	724.75
1550.388204	718.5
1550.901857	725.5
1551.415455	729.75
1551.929	721.25
1552.442489	722.0
1552.955925	722.75
1553.469306	721.0
1553.982632	724.5
1554.495905	722.75
1555.009123	726.75
1555.522286	726.25
1556.035395	719.0
1556.54845	725.5
1557.06145	723.0
1557.574396	719.75
1558.087288	729.0
1558.600125	729.0
1559.112908	724.25
1559.625637	724.25
1560.138311	724.0
1560.650931	721.5
1561.163497	722.0
1561.676008	728.75
1562.188465	729.0
1562.700867	724.5
1563.213216	731.25
1563.725509	726.0
1564.237749	720.5
1564.749934	728.0
1565.262065	726.25
1565.774142	730.5
1566.286164	728.25
1566.798132	725.75
1567.310046	728.5
1567.821906	726.75
1568.333711	733.25
1568.845462	733.0
1569.357158	724.5
1569.868801	722.5
1570.380389	730.5
1570.891922	725.5
1571.403402	726.0
1571.914827	721.75
1572.426198	721.0
1572.937515	724.75
1573.448777	726.25
1573.959985	722.0
1574.471139	726.5
1574.982239	721.0
1575.493285	723.5
1576.004276	722.25
1576.515213	724.25
1577.026096	721.75
1577.536924	724.75
1578.047698	726.0
1578.558419	721.0
1579.069084	718.5
1579.579696	726.0
1580.090254	722.75
1580.600757	725.5
1581.111206	726.5
1581.621601	727.5
1582.131941	727.25
1582.642228	725.0
1583.15246	722.75
1583.662638	724.75
1584.172762	725.5
1584.682832	726.5
1585.192847	722.5
1585.702809	721.25
1586.212716	726.5
1586.722569	724.0
1587.232368	720.75
1587.742113	728.25
1588.251803	730.25
1588.76144	721.25
1589.271022	723.5
1589.78055	725.0
1590.290024	722.75
1590.799444	723.25
1591.30881	727.0
1591.818121	725.25
1592.327379	726.25
