1042.414189	742.75
1042.980685	743.0
1043.547124	745.25
1044.113505	739.25
1044.679828	740.25
1045.246093	732.0
1045.8123	739.75
1046.378449	741.5
1046.94454	735.75
1047.510573	734.75
1048.076548	737.0
1048.642465	734.5
1049.208325	737.5
1049.774126	726.75
1050.339869	734.0
1050.905555	738.75
1051.471183	732.75
1052.036752	733.25
1052.602264	730.5
1053.167718	734.25
1053.733114	732.0
1054.298452	728.5
1054.863733	734.0
1055.428955	732.5
1055.994119	734.5
1056.559226	730.0
1057.124275	728.0
1057.689266	728.5
1058.254199	726.75
1058.819074	735.0
1059.383891	729.0
1059.94865	725.75
1060.513352	725.5
1061.077996	730.75
1061.642582	724.5
1062.20711	724.0
1062.77158	727.5
1063.335992	726.75
1063.900347	726.0
1064.464643	722.5
1065.028882	727.75
1065.593063	728.0
1066.157187	728.0
1066.721252	726.25
1067.28526	724.0
1067.84921	724.0
1068.413102	723.25
1068.976936	723.25
1069.540713	718.75
1070.104431	733.75
1070.668092	722.25
1071.231696	720.0
1071.795241	724.75
1072.358729	722.75
1072.922159	722.25
1073.485531	722.25
1074.048845	723.0
1074.612102	714.75
1075.175301	723.75
1075.738442	724.75
1076.301525	722.0
1076.864551	728.0
1077.427519	725.5
1077.990429	726.5
1078.553281	724.25
1079.116076	726.0
1079.678813	724.0
1080.241492	722.0
1080.804114	724.25
1081.366678	718.75
1081.929184	722.5
1082.491633	723.5
1083.054024	721.75
1083.616357	719.5
1084.178632	723.5
1084.74085	721.75
1085.30301	719.0
1085.865113	720.25
1086.427158	724.25
1086.989145	718.5
1087.551074	725.25
1088.112946	717.75
1088.67476	719.0
1089.236517	717.75
1089.798216	717.25
1090.359857	719.75
1090.92144	720.0
1091.482966	719.0
1092.044435	724.75
1092.605845	726.75
1093.167199	719.75
1093.728494	716.5
1094.289732	720.0
1094.850912	717.75
1095.412035	727.25
1095.9731	716.25
1096.534107	719.5
1097.095057	726.25
1097.65595	717.5
1098.216784	719.25
1098.777561	720.5
1099.338281	717.0
1099.898943	719.5
1100.459547	717.75
1101.020094	715.25
1101.580584	714.75
1102.141015	711.0
1102.701389	715.0
1103.261706	716.25
1103.821965	712.25
1104.382167	710.25
1104.942311	711.75
1105.502397	716.25
1106.062426	717.0
1106.622398	715.5
1107.182312	717.25
1107.742168	714.0
1108.301967	711.0
1108.861708	713.5
1109.421392	712.25
1109.981019	716.5
1110.540587	712.75
1111.100099	718.25
1111.659553	711.0
1112.218949	710.25
1112.778288	713.0
1113.33757	714.75
1113.896794	714.75
1114.45596	712.5
1115.015069	710.25
1115.574121	707.75
1116.133115	711.0
1116.692052	712.0
1117.250931	711.5
1117.809753	710.5
1118.368517	709.5
1118.927224	710.5
1119.485873	714.75
1120.044465	707.25
1120.603	712.5
1121.161477	709.75
1121.719897	713.75
1122.278259	707.25
1122.836564	709.5
1123.394812	709.25
1123.953002	710.25
1124.511135	712.0
1125.06921	709.25
1125.627228	711.25
1126.185189	706.0
1126.743092	706.5
1127.300938	705.25
1127.858726	710.75
1128.416457	707.75
1128.974131	704.25
1129.531748	709.25
1130.089307	713.0
1130.646808	707.5
1131.204252	704.5
1131.761639	705.5
1132.318969	709.0
1132.876241	706.5
1133.433456	703.5
1133.990614	707.5
1134.547714	707.5
1135.104757	709.0
1135.661743	706.75
1136.218671	708.75
1136.775542	710.5
1137.332356	707.75
1137.889112	710.5
1138.445811	709.25
1139.002453	704.0
1139.559037	709.25
1140.115565	702.75
1140.672035	711.75
1141.228447	704.5
1141.784803	708.75
1142.341101	709.75
1142.897342	706.5
1143.453525	709.25
1144.009651	709.75
1144.565721	705.25
1145.121732	707.5
1145.677687	709.5
1146.233584	709.5
1146.789424	707.5
1147.345207	708.25
1147.900933	706.5
1148.456601	707.25
1149.012212	708.75
1149.567766	705.5
1150.123263	703.75
1150.678702	702.75
1151.234085	702.0
1151.78941	704.5
1152.344678	706.75
1152.899888	704.5
1153.455042	705.0
1154.010138	707.25
1154.565177	710.0
1155.120159	702.25
1155.675084	707.25
1156.229951	704.0
1156.784762	706.75
1157.339515	708.75
1157.894211	703.5
1158.44885	705.5
1159.003432	707.5
1159.557956	705.75
1160.112424	702.75
1160.666834	710.75
1161.221187	711.5
1161.775483	706.75
1162.329722	708.75
1162.883904	702.0
1163.438029	707.75
1163.992096	708.0
1164.546107	707.25
1165.10006	709.75
1165.653956	702.75
1166.207795	708.0
1166.761577	707.0
1167.315302	707.75
1167.86897	705.75
1168.422581	707.75
1168.976134	702.75
1169.529631	708.75
1170.08307	705.5
1170.636453	700.0
1171.189778	703.25
1171.743046	703.75
1172.296257	703.0
1172.849412	704.5
1173.402509	704.0
1173.955549	702.5
1174.508532	703.75
1175.061458	700.0
1175.614327	704.75
1176.167138	703.0
1176.719893	709.5
1177.272591	705.0
1177.825232	704.75
1178.377816	700.0
1178.930342	698.0
1179.482812	709.5
1180.035225	701.75
1180.587581	701.5
1181.139879	705.0
1181.692121	701.5
1182.244306	700.5
1182.796434	699.75
1183.348504	706.5
1183.900518	703.75
1184.452475	701.0
1185.004375	701.0
1185.556218	703.0
1186.108004	704.0
1186.659733	701.25
1187.211405	704.5
1187.76302	702.0
1188.314578	705.0
1188.866079	705.75
1189.417523	707.25
1189.96891	700.25
1190.520241	702.5
1191.071514	699.0
1191.622731	706.25
1192.17389	700.0
1192.724993	702.0
1193.276039	726.25
1193.827027	703.25
1194.377959	701.75
1194.928834	702.75
1195.479653	706.0
1196.030414	704.25
1196.581118	705.25
1197.131766	700.25
1197.682356	705.0
1198.23289	701.5
1198.783367	704.0
1199.333786	697.5
1199.88415	700.25
1200.434456	704.5
1200.984705	698.75
1201.534898	705.25
1202.085033	703.0
1202.635112	704.5
1203.185134	702.25
1203.735099	698.25
1204.285007	702.25
1204.834859	700.25
1205.384653	703.0
1205.934391	700.0
1206.484072	703.25
1207.033696	705.25
1207.583263	700.75
1208.132774	703.25
1208.682228	703.25
1209.231624	701.0
1209.780965	705.0
1210.330248	703.0
1210.879474	701.25
1211.428644	698.5
1211.977757	700.75
1212.526813	706.0
1213.075813	700.0
1213.624755	704.75
1214.173641	701.0
1214.72247	703.5
1215.271242	699.5
1215.819958	703.0
1216.368617	703.0
1216.917219	702.75
1217.465764	699.75
1218.014253	701.75
1218.562685	704.5
1219.11106	698.0
1219.659378	700.5
1220.20764	703.0
1220.755845	701.75
1221.303993	700.25
1221.852085	698.75
1222.400119	701.0
1222.948097	701.75
1223.496019	704.0
1224.043883	700.25
1224.591691	701.75
1225.139443	699.0
1225.687137	703.25
1226.234775	701.75
1226.782357	702.75
1227.329881	704.25
1227.877349	702.75
1228.42476	700.75
1228.972115	700.0
1229.519413	703.5
1230.066654	700.0
1230.613839	696.0
1231.160967	697.5
1231.708038	708.0
1232.255053	700.75
1232.802011	704.75
1233.348912	702.0
1233.895757	703.0
1234.442545	699.0
1234.989277	704.0
1235.535951	699.5
1236.08257	705.5
1236.629131	702.5
1237.175636	703.0
1237.722085	701.0
1238.268477	699.25
1238.814812	700.5
1239.361091	702.5
1239.907313	704.75
1240.453478	700.0
1240.999587	698.5
1241.54564	701.25
1242.091636	704.0
1242.637575	703.75
1243.183457	698.75
1243.729284	700.0
1244.275053	704.0
1244.820766	699.5
1245.366423	700.5
1245.912022	700.25
1246.457566	704.75
1247.003053	705.25
1247.548483	701.25
1248.093857	704.0
1248.639174	699.0
1249.184435	702.25
1249.729639	699.0
1250.274787	702.0
1250.819878	703.25
1251.364912	700.0
1251.909891	700.25
1252.454812	695.25
1252.999677	702.75
1253.544486	700.75
1254.089238	708.0
1254.633934	699.25
1255.178573	698.75
1255.723156	702.0
1256.267682	697.75
1256.812152	703.0
1257.356565	703.5
1257.900922	699.5
1258.445223	697.5
1258.989467	700.75
1259.533654	704.5
1260.077785	717.25
1260.62186	700.75
1261.165878	698.75
1261.70984	703.75
1262.253745	703.0
1262.797594	701.0
1263.341386	703.5
1263.885123	706.25
1264.428802	706.5
1264.972425	720.5
1265.515992	716.25
1266.059503	711.5
1266.602957	704.5
1267.146354	701.5
1267.689696	701.0
1268.23298	703.75
1268.776209	700.0
1269.319381	700.25
1269.862497	699.5
1270.405556	701.0
1270.948559	706.5
1271.491506	703.75
1272.034396	700.0
1272.57723	703.5
1273.120007	699.75
1273.662728	702.0
1274.205393	701.75
1274.748002	699.75
1275.290554	703.25
1275.83305	702.25
1276.375489	699.75
1276.917872	700.25
1277.460199	702.75
1278.00247	699.0
1278.544684	696.0
1279.086842	700.75
1279.628943	698.5
1280.170989	700.5
1280.712978	704.5
1281.25491	702.25
1281.796787	702.25
1282.338607	705.75
1282.880371	703.0
1283.422078	710.25
1283.963729	719.0
1284.505324	732.25
1285.046863	796.25
1285.588345	866.75
1286.129772	816.25
1286.671142	741.25
1287.212455	714.5
1287.753713	707.0
1288.294914	708.5
1288.836059	696.25
1289.377147	703.0
1289.91818	695.0
1290.459156	700.75
1291.000076	701.25
1291.54094	700.0
1292.081747	704.0
1292.622499	702.75
1293.163194	703.5
1293.703833	697.5
1294.244415	702.0
1294.784942	701.0
1295.325412	699.75
1295.865826	701.5
1296.406184	698.0
1296.946486	699.75
1297.486731	695.5
1298.026921	702.25
1298.567054	697.0
1299.107131	700.0
1299.647152	704.75
1300.187116	700.75
1300.727025	698.5
1301.266877	699.5
1301.806673	703.75
1302.346413	703.0
1302.886097	701.25
1303.425725	699.25
1303.965297	698.0
1304.504812	702.25
1305.044272	700.75
1305.583675	698.25
1306.123022	699.75
1306.662313	697.75
1307.201548	698.25
1307.740727	697.75
1308.279849	699.5
1308.818916	702.25
1309.357926	700.5
1309.896881	700.0
1310.435779	699.0
1310.974621	697.25
1311.513407	703.0
1312.052137	699.0
1312.590811	703.75
1313.129429	698.5
1313.667991	699.25
1314.206497	701.0
1314.744946	699.0
1315.28334	694.75
1315.821678	702.25
1316.359959	706.0
1316.898184	701.5
1317.436354	700.25
1317.974467	700.0
1318.512525	698.25
1319.050526	696.75
1319.588471	699.25
1320.12636	700.5
1320.664194	700.25
1321.201971	703.25
1321.739692	700.25
1322.277357	699.5
1322.814967	699.5
1323.35252	696.75
1323.890017	709.25
1324.427458	695.25
1324.964843	703.25
1325.502173	700.5
1326.039446	700.25
1326.576663	700.75
1327.113824	697.25
1327.65093	697.75
1328.187979	700.75
1328.724972	700.0
1329.26191	701.0
1329.798791	700.0
1330.335617	698.75
1330.872386	695.0
1331.4091	697.0
1331.945758	695.5
1332.48236	698.0
1333.018905	695.75
1333.555395	701.25
1334.091829	697.0
1334.628207	699.5
1335.164529	701.5
1335.700796	697.25
1336.237006	700.25
1336.77316	697.5
1337.309259	698.25
1337.845301	695.75
1338.381288	701.5
1338.917219	702.5
1339.453094	695.75
1339.988913	701.5
1340.524676	699.5
1341.060383	701.0
1341.596034	699.25
1342.13163	703.75
1342.66717	702.5
1343.202653	697.0
1343.738081	704.25
1344.273453	701.25
1344.80877	696.5
1345.34403	701.25
1345.879235	703.25
1346.414383	702.0
1346.949476	701.5
1347.484513	695.25
1348.019494	699.75
1348.55442	698.0
1349.089289	699.5
1349.624103	698.5
1350.158861	699.25
1350.693563	697.75
1351.228209	700.75
1351.7628	700.25
1352.297334	699.25
1352.831813	704.25
1353.366236	698.5
1353.900604	697.25
1354.434915	700.0
1354.969171	700.5
1355.503371	700.5
1356.037515	696.0
1356.571604	702.0
1357.105636	703.75
1357.639613	701.25
1358.173535	698.5
1358.7074	701.0
1359.24121	701.0
1359.774964	699.5
1360.308662	699.5
1360.842304	698.75
1361.375891	699.0
1361.909422	698.75
1362.442897	700.25
1362.976317	698.5
1363.50968	696.25
1364.042989	696.75
1364.576241	697.75
1365.109438	698.5
1365.642579	700.75
1366.175664	696.75
1366.708693	702.0
1367.241667	698.25
1367.774585	694.0
1368.307448	702.0
1368.840255	699.75
1369.373006	699.5
1369.905701	697.5
1370.438341	706.75
1370.970925	702.0
1371.503454	700.75
1372.035926	698.5
1372.568344	700.75
1373.100705	698.5
1373.633011	700.0
1374.165261	699.0
1374.697456	694.25
1375.229595	699.0
1375.761678	697.25
1376.293705	702.5
1376.825677	699.0
1377.357594	705.0
1377.889455	698.75
1378.42126	700.5
1378.953009	701.0
1379.484703	700.5
1380.016342	701.5
1380.547924	703.75
1381.079452	700.25
1381.610923	700.5
1382.142339	699.75
1382.673699	699.75
1383.205004	700.5
1383.736253	694.25
1384.267447	701.0
1384.798585	704.0
1385.329668	703.0
1385.860695	704.75
1386.391666	705.5
1386.922582	712.75
1387.453442	717.25
1387.984247	748.5
1388.514996	878.5
1389.04569	1005.25
1389.576328	846.25
1390.10691	739.0
1390.637437	715.0
1391.167909	707.25
1391.698325	700.75
1392.228685	701.5
1392.75899	698.5
1393.28924	702.75
1393.819434	701.0
1394.349572	696.25
1394.879655	699.0
1395.409683	698.25
1395.939655	701.0
1396.469571	703.0
1396.999432	693.75
1397.529237	699.75
1398.058987	701.5
1398.588682	700.75
1399.118321	694.25
1399.647905	700.25
1400.177433	695.75
1400.706906	703.75
1401.236323	697.0
1401.765685	699.75
1402.294991	696.25
1402.824242	699.75
1403.353437	699.75
1403.882577	697.5
1404.411662	703.0
1404.940691	695.5
1405.469665	699.5
1405.998583	699.5
1406.527446	703.75
1407.056253	699.25
1407.585005	704.5
1408.113702	706.5
1408.642343	702.25
1409.170929	703.0
1409.69946	718.0
1410.227935	727.25
1410.756354	726.5
1411.284719	707.5
1411.813028	705.5
1412.341281	700.25
1412.869479	701.0
1413.397622	702.25
1413.92571	694.0
1414.453742	703.75
1414.981718	701.0
1415.50964	709.5
1416.037506	702.5
1416.565316	697.0
1417.093072	698.5
1417.620772	699.0
1418.148416	696.25
1418.676005	700.25
1419.203539	699.25
1419.731018	699.0
1420.258441	698.75
1420.785809	698.5
1421.313122	696.25
1421.840379	700.25
1422.367582	703.25
1422.894728	697.75
1423.42182	702.25
1423.948856	699.0
1424.475837	703.25
1425.002762	696.75
1425.529633	698.5
1426.056448	701.25
1426.583207	701.25
1427.109912	698.5
1427.636561	697.5
1428.163155	697.0
1428.689694	697.5
1429.216177	700.75
1429.742605	698.75
1430.268978	702.0
1430.795296	699.75
1431.321558	700.75
1431.847765	702.0
1432.373917	699.25
1432.900014	700.0
1433.426056	696.5
1433.952042	699.5
1434.477973	697.25
1435.003849	697.75
1435.529669	697.25
1436.055435	699.5
1436.581145	702.75
1437.1068	692.25
1437.632399	698.5
1438.157944	703.0
1438.683433	697.5
1439.208868	694.5
1439.734247	696.0
1440.25957	700.25
1440.784839	701.25
1441.310053	699.25
1441.835211	700.5
1442.360314	697.75
1442.885362	701.75
1443.410355	696.5
1443.935292	695.5
1444.460175	698.5
1444.985002	694.75
1445.509774	699.75
1446.034491	696.25
1446.559153	701.25
1447.08376	698.75
1447.608312	696.25
1448.132808	700.75
1448.65725	696.0
1449.181636	694.75
1449.705967	700.75
1450.230243	698.75
1450.754464	698.5
1451.27863	698.25
1451.802741	700.0
1452.326797	695.75
1452.850797	698.75
1453.374743	695.5
1453.898633	699.5
1454.422468	697.25
1454.946249	694.25
1455.469974	701.5
1455.993644	696.75
1456.517259	699.75
1457.040819	693.25
1457.564324	699.75
1458.087773	698.25
1458.611168	697.5
1459.134508	697.0
1459.657793	695.0
1460.181022	701.75
1460.704197	697.5
1461.227316	703.25
1461.750381	697.0
1462.27339	701.5
1462.796345	721.75
1463.319244	725.0
1463.842089	700.0
1464.364878	694.75
1464.887613	700.0
1465.410292	697.75
1465.932916	698.0
1466.455486	697.75
1466.978	698.0
1467.50046	697.0
1468.022864	699.25
1468.545214	699.25
1469.067508	692.75
1469.589748	700.25
1470.111932	698.75
1470.634062	698.75
1471.156136	696.75
1471.678156	697.5
1472.20012	699.75
1472.72203	697.0
1473.243885	698.25
1473.765685	700.25
1474.28743	699.0
1474.80912	699.25
1475.330755	697.75
1475.852335	694.75
1476.37386	692.25
1476.89533	694.75
1477.416745	696.75
1477.938106	695.0
1478.459411	698.25
1478.980662	697.75
1479.501857	699.0
1480.022998	697.75
1480.544084	699.0
1481.065115	701.5
1481.586091	697.25
1482.107012	695.0
1482.627878	701.25
1483.14869	695.5
1483.669446	696.5
1484.190148	701.75
1484.710794	693.75
1485.231386	697.25
1485.751923	695.75
1486.272406	698.0
1486.792833	699.75
1487.313205	697.5
1487.833523	695.75
1488.353786	697.5
1488.873994	700.25
1489.394147	700.5
1489.914245	696.25
1490.434288	698.0
1490.954277	693.0
1491.474211	696.75
1491.99409	699.25
1492.513914	699.0
1493.033683	695.5
1493.553398	697.75
1494.073057	703.0
1494.592662	700.5
1495.112212	695.25
1495.631708	697.25
1496.151148	696.75
1496.670534	694.75
1497.189865	696.0
1497.709141	695.25
1498.228362	692.25
1498.747529	700.25
1499.266641	695.0
1499.785698	705.5
1500.3047	699.25
1500.823648	696.75
1501.34254	695.75
1501.861379	696.75
1502.380162	693.5
1502.89889	698.0
1503.417564	696.0
1503.936183	694.5
1504.454748	696.25
1504.973257	695.5
1505.491712	697.25
1506.010112	695.5
1506.528458	696.75
1507.046748	696.75
1507.564984	693.75
1508.083166	696.0
1508.601292	697.5
1509.119364	692.0
1509.637381	694.75
1510.155344	699.25
1510.673252	705.0
1511.191105	698.25
1511.708903	699.75
1512.226647	703.5
1512.744336	699.0
1513.261971	695.25
1513.77955	696.75
1514.297076	697.25
1514.814546	695.75
1515.331962	695.0
1515.849323	693.25
1516.366629	698.0
1516.883881	696.5
1517.401078	699.25
1517.918221	699.75
1518.435309	696.75
1518.952342	695.5
1519.469321	701.5
1519.986245	698.0
1520.503114	698.5
1521.019929	694.25
1521.536689	697.75
1522.053395	698.5
1522.570046	703.0
1523.086642	694.5
1523.603184	696.0
1524.119671	699.0
1524.636103	696.75
1525.152481	699.75
1525.668805	705.75
1526.701288	702.25
1527.217447	697.75
1527.733552	699.75
1528.249603	695.0
1528.765599	694.25
1529.28154	697.75
1529.797427	698.5
1530.313259	698.5
1530.829037	699.75
1531.34476	697.5
1531.860429	700.5
1532.376043	697.5
1532.891602	702.75
1533.407107	695.25
1533.922558	698.25
1534.437954	701.25
1534.953295	698.5
1535.468582	698.5
1535.983815	698.0
1536.498993	693.5
1537.014116	698.25
1537.529185	698.0
1538.044199	697.0
1538.559159	698.25
1539.074064	696.75
1539.588915	694.0
1540.103712	696.5
1540.618454	695.5
1541.133141	693.25
1541.647774	693.0
1542.162353	695.5
1542.676877	697.5
1543.191346	695.0
1543.705761	694.75
1544.220122	693.75
1544.734428	701.25
1545.24868	695.75
1545.762877	700.5
1546.27702	697.25
1546.791109	693.25
1547.305143	696.0
1547.819122	699.0
1548.333047	698.75
1548.846918	697.0
1549.360734	695.75
1549.874496	696.5
1550.388204	703.25
1550.901857	695.25
1551.415455	693.25
1551.929	697.0
1552.442489	701.5
1552.955925	696.75
1553.469306	701.25
1553.982632	696.75
1554.495905	695.0
1555.009123	698.75
1555.522286	700.25
1556.035395	696.75
1556.54845	697.75
1557.06145	699.5
1557.574396	696.5
1558.087288	695.0
1558.600125	696.25
1559.112908	696.0
1559.625637	693.75
1560.138311	699.5
1560.650931	694.75
1561.163497	697.75
1561.676008	699.5
1562.188465	698.0
1562.700867	696.5
1563.213216	701.5
1563.725509	696.25
1564.237749	701.75
1564.749934	702.0
1565.262065	696.0
1565.774142	697.0
1566.286164	697.75
1566.798132	701.0
1567.310046	701.75
1567.821906	701.75
1568.333711	701.5
1568.845462	697.5
1569.357158	698.75
1569.868801	698.25
1570.380389	695.25
1570.891922	698.75
1571.403402	699.0
1571.914827	698.0
1572.426198	695.5
1572.937515	701.5
1573.448777	702.0
1573.959985	693.0
1574.471139	696.5
1574.982239	695.5
1575.493285	699.0
1576.004276	700.0
1576.515213	692.75
1577.026096	701.0
1577.536924	702.5
1578.047698	695.5
1578.558419	696.5
1579.069084	696.25
1579.579696	698.0
1580.090254	698.0
1580.600757	696.75
1581.111206	695.75
1581.621601	701.0
1582.131941	693.0
1582.642228	700.75
1583.15246	698.25
1583.662638	698.25
1584.172762	697.75
1584.682832	697.5
1585.192847	699.0
1585.702809	696.75
1586.212716	694.5
1586.722569	695.0
1587.232368	698.75
1587.742113	693.0
1588.251803	694.5
1588.76144	696.75
1589.271022	697.75
1589.78055	698.0
1590.290024	695.5
1590.799444	693.25
1591.30881	694.5
1591.818121	698.5
1592.327379	694.0
