1042.414189	861.5
1042.980685	865.25
1043.547124	863.75
1044.113505	858.25
1044.679828	853.0
1045.246093	851.25
1045.8123	860.75
1046.378449	850.0
1046.94454	842.0
1047.510573	851.75
1048.076548	842.5
1048.642465	844.0
1049.208325	849.5
1049.774126	850.5
1050.339869	841.75
1050.905555	857.25
1051.471183	841.25
1052.036752	844.25
1052.602264	840.25
1053.167718	834.0
1053.733114	851.0
1054.298452	837.75
1054.863733	840.0
1055.428955	841.5
1055.994119	846.5
1056.559226	842.75
1057.124275	839.5
1057.689266	838.5
1058.254199	839.25
1058.819074	832.0
1059.383891	826.75
1059.94865	841.25
1060.513352	837.75
1061.077996	842.0
1061.642582	840.25
1062.20711	833.5
1062.77158	831.75
1063.335992	830.75
1063.900347	835.25
1064.464643	830.0
1065.028882	832.5
1065.593063	832.0
1066.157187	833.5
1066.721252	824.0
1067.28526	814.5
1067.84921	818.0
1068.413102	828.0
1068.976936	818.25
1069.540713	824.75
1070.104431	825.25
1070.668092	815.25
1071.231696	821.25
1071.795241	821.5
1072.358729	813.75
1072.922159	821.75
1073.485531	811.25
1074.048845	817.5
1074.612102	808.5
1075.175301	810.75
1075.738442	818.5
1076.301525	810.25
1076.864551	812.5
1077.427519	800.5
1077.990429	810.0
1078.553281	806.25
1079.116076	805.25
1079.678813	810.25
1080.241492	812.75
1080.804114	803.75
1081.366678	807.75
1081.929184	807.0
1082.491633	810.75
1083.054024	803.75
1083.616357	802.0
1084.178632	803.25
1084.74085	807.25
1085.30301	798.75
1085.865113	811.0
1086.427158	802.25
1086.989145	806.25
1087.551074	800.5
1088.112946	794.25
1088.67476	794.25
1089.236517	797.0
1089.798216	792.0
1090.359857	794.0
1090.92144	790.5
1091.482966	798.25
1092.044435	800.5
1092.605845	795.25
1093.167199	798.25
1093.728494	788.75
1094.289732	790.25
1094.850912	793.0
1095.412035	797.5
1095.9731	794.25
1096.534107	789.0
1097.095057	795.25
1097.65595	787.25
1098.216784	791.5
1098.777561	784.0
1099.338281	785.0
1099.898943	788.0
1100.459547	786.5
1101.020094	788.0
1101.580584	784.75
1102.141015	781.0
1102.701389	780.5
1103.261706	787.75
1103.821965	793.5
1104.382167	782.75
1104.942311	782.75
1105.502397	783.0
1106.062426	786.75
1106.622398	787.0
1107.182312	787.5
1107.742168	781.5
1108.301967	781.25
1108.861708	783.25
1109.421392	788.25
1109.981019	786.0
1110.540587	779.25
1111.100099	781.5
1111.659553	780.25
1112.218949	782.0
1112.778288	782.0
1113.33757	780.75
1113.896794	780.5
1114.45596	780.75
1115.015069	778.25
1115.574121	771.0
1116.133115	782.25
1116.692052	775.0
1117.250931	778.25
1117.809753	773.0
1118.368517	777.25
1118.927224	775.5
1119.485873	767.25
1120.044465	772.0
1120.603	768.25
1121.161477	773.5
1121.719897	769.5
1122.278259	775.0
1122.836564	775.0
1123.394812	773.0
1123.953002	769.75
1124.511135	770.0
1125.06921	768.5
1125.627228	774.25
1126.185189	777.0
1126.743092	772.0
1127.300938	772.0
1127.858726	776.75
1128.416457	772.0
1128.974131	762.75
1129.531748	775.5
1130.089307	766.75
1130.646808	769.0
1131.204252	773.75
1131.761639	766.75
1132.318969	765.0
1132.876241	764.5
1133.433456	769.0
1133.990614	770.0
1134.547714	765.25
1135.104757	768.75
1135.661743	765.75
1136.218671	765.75
1136.775542	768.25
1137.332356	764.5
1137.889112	765.0
1138.445811	764.75
1139.002453	765.5
1139.559037	765.0
1140.115565	759.75
1140.672035	763.25
1141.228447	766.25
1141.784803	768.5
1142.341101	760.25
1142.897342	766.0
1143.453525	763.5
1144.009651	768.25
1144.565721	765.5
1145.121732	766.75
1145.677687	765.25
1146.233584	764.5
1146.789424	763.75
1147.345207	766.0
1147.900933	761.25
1148.456601	761.75
1149.012212	761.0
1149.567766	768.25
1150.123263	759.5
1150.678702	762.5
1151.234085	762.5
1151.78941	768.5
1152.344678	762.75
1152.899888	762.75
1153.455042	763.0
1154.010138	766.75
1154.565177	764.75
1155.120159	765.0
1155.675084	759.75
1156.229951	764.25
1156.784762	762.25
1157.339515	767.5
1157.894211	760.5
1158.44885	763.5
1159.003432	765.75
1159.557956	763.5
1160.112424	761.0
1160.666834	756.5
1161.221187	761.0
1161.775483	758.75
1162.329722	766.25
1162.883904	757.0
1163.438029	757.5
1163.992096	762.25
1164.546107	760.5
1165.10006	762.0
1165.653956	753.0
1166.207795	762.75
1166.761577	757.75
1167.315302	762.0
1167.86897	754.75
1168.422581	766.5
1168.976134	757.75
1169.529631	754.5
1170.08307	757.75
1170.636453	756.25
1171.189778	755.5
1171.743046	758.25
1172.296257	759.75
1172.849412	757.0
1173.402509	759.0
1173.955549	758.75
1174.508532	759.0
1175.061458	755.0
1175.614327	759.0
1176.167138	761.25
1176.719893	752.25
1177.272591	750.5
1177.825232	757.0
1178.377816	756.75
1178.930342	755.0
1179.482812	754.75
1180.035225	757.0
1180.587581	757.25
1181.139879	754.0
1181.692121	753.75
1182.244306	750.75
1182.796434	753.75
1183.348504	759.25
1183.900518	754.5
1184.452475	755.5
1185.004375	754.75
1185.556218	751.75
1186.108004	752.5
1186.659733	754.0
1187.211405	759.0
1187.76302	750.75
1188.314578	757.0
1188.866079	756.0
1189.417523	755.0
1189.96891	753.0
1190.520241	753.25
1191.071514	749.5
1191.622731	754.0
1192.17389	746.75
1192.724993	752.0
1193.276039	773.25
1193.827027	759.75
1194.377959	757.25
1194.928834	754.0
1195.479653	754.25
1196.030414	752.25
1196.581118	755.75
1197.131766	751.0
1197.682356	753.5
1198.23289	754.25
1198.783367	750.25
1199.333786	760.0
1199.88415	747.75
1200.434456	748.5
1200.984705	750.0
1201.534898	749.25
1202.085033	748.0
1202.635112	749.25
1203.185134	746.5
1203.735099	744.75
1204.285007	752.25
1204.834859	755.0
1205.384653	754.25
1205.934391	750.5
1206.484072	751.25
1207.033696	745.5
1207.583263	750.25
1208.132774	751.5
1208.682228	751.0
1209.231624	747.75
1209.780965	748.0
1210.330248	744.5
1210.879474	751.75
1211.428644	754.75
1211.977757	744.0
1212.526813	748.75
1213.075813	755.75
1213.624755	750.75
1214.173641	752.25
1214.72247	745.25
1215.271242	752.25
1215.819958	749.5
1216.368617	747.75
1216.917219	751.25
1217.465764	745.0
1218.014253	752.0
1218.562685	745.5
1219.11106	749.5
1219.659378	747.0
1220.20764	745.75
1220.755845	754.0
1221.303993	752.25
1221.852085	748.5
1222.400119	746.25
1222.948097	761.75
1223.496019	752.75
1224.043883	749.25
1224.591691	751.5
1225.139443	752.75
1225.687137	757.5
1226.234775	742.5
1226.782357	748.0
1227.329881	751.75
1227.877349	749.5
1228.42476	746.5
1228.972115	751.25
1229.519413	750.75
1230.066654	747.75
1230.613839	748.25
1231.160967	748.75
1231.708038	748.25
1232.255053	746.5
1232.802011	754.25
1233.348912	746.25
1233.895757	747.5
1234.442545	757.5
1234.989277	744.25
1235.535951	754.0
1236.08257	747.5
1236.629131	751.75
1237.175636	751.25
1237.722085	744.75
1238.268477	747.75
1238.814812	751.25
1239.361091	753.5
1239.907313	741.75
1240.453478	749.0
1240.999587	748.75
1241.54564	748.25
1242.091636	750.0
1242.637575	751.25
1243.183457	745.0
1243.729284	748.75
1244.275053	749.5
1244.820766	747.75
1245.366423	751.5
1245.912022	749.25
1246.457566	750.25
1247.003053	752.0
1247.548483	750.25
1248.093857	751.5
1248.639174	742.75
1249.184435	740.5
1249.729639	746.5
1250.274787	748.5
1250.819878	754.25
1251.364912	746.5
1251.909891	744.0
1252.454812	747.0
1252.999677	749.0
1253.544486	752.0
1254.089238	751.5
1254.633934	746.25
1255.178573	751.25
1255.723156	751.25
1256.267682	749.5
1256.812152	749.0
1257.356565	749.25
1257.900922	746.25
1258.445223	754.5
1258.989467	740.25
1259.533654	745.5
1260.077785	756.5
1260.62186	749.0
1261.165878	749.5
1261.70984	747.25
1262.253745	745.5
1262.797594	747.0
1263.341386	743.75
1263.885123	743.5
1264.428802	744.0
1264.972425	748.25
1265.515992	755.75
1266.059503	762.0
1266.602957	744.25
1267.146354	749.5
1267.689696	744.0
1268.23298	755.0
1268.776209	747.0
1269.319381	746.0
1269.862497	749.5
1270.405556	743.75
1270.948559	751.5
1271.491506	741.75
1272.034396	747.5
1272.57723	740.5
1273.120007	743.0
1273.662728	747.5
1274.205393	743.0
1274.748002	747.5
1275.290554	741.5
1275.83305	749.5
1276.375489	747.5
1276.917872	751.5
1277.460199	741.5
1278.00247	744.75
1278.544684	743.75
1279.086842	744.0
1279.628943	739.75
1280.170989	744.5
1280.712978	743.0
1281.25491	742.25
1281.796787	747.75
1282.338607	750.25
1282.880371	746.0
1283.422078	745.0
1283.963729	740.5
1284.505324	744.75
1285.046863	745.75
1285.588345	758.25
1286.129772	834.5
1286.671142	901.5
1287.212455	783.0
1287.753713	754.25
1288.294914	742.0
1288.836059	749.25
1289.377147	741.75
1289.91818	745.5
1290.459156	740.0
1291.000076	744.25
1291.54094	745.75
1292.081747	743.25
1292.622499	743.0
1293.163194	753.0
1293.703833	744.0
1294.244415	744.0
1294.784942	737.75
1295.325412	741.75
1295.865826	743.0
1296.406184	744.0
1296.946486	746.25
1297.486731	743.25
1298.026921	746.0
1298.567054	743.75
1299.107131	744.5
1299.647152	739.75
1300.187116	743.75
1300.727025	743.75
1301.266877	740.75
1301.806673	739.0
1302.346413	748.5
1302.886097	740.75
1303.425725	742.0
1303.965297	745.0
1304.504812	746.0
1305.044272	738.75
1305.583675	750.5
1306.123022	743.75
1306.662313	746.25
1307.201548	744.75
1307.740727	744.5
1308.279849	741.25
1308.818916	742.25
1309.357926	741.0
1309.896881	743.75
1310.435779	744.5
1310.974621	744.75
1311.513407	746.75
1312.052137	742.25
1312.590811	745.0
1313.129429	742.25
1313.667991	741.0
1314.206497	739.5
1314.744946	745.75
1315.28334	746.5
1315.821678	738.25
1316.359959	736.25
1316.898184	739.5
1317.436354	745.25
1317.974467	745.0
1318.512525	734.75
1319.050526	747.5
1319.588471	745.75
1320.12636	749.75
1320.664194	742.0
1321.201971	738.5
1321.739692	741.0
1322.277357	743.0
1322.814967	745.75
1323.35252	743.0
1323.890017	746.75
1324.427458	736.25
1324.964843	739.25
1325.502173	750.75
1326.039446	737.25
1326.576663	744.0
1327.113824	737.0
1327.65093	749.75
1328.187979	739.75
1328.724972	744.0
1329.26191	742.5
1329.798791	737.0
1330.335617	740.0
1330.872386	745.0
1331.4091	747.25
1331.945758	744.5
1332.48236	741.75
1333.018905	738.0
1333.555395	740.0
1334.091829	734.5
1334.628207	742.5
1335.164529	742.5
1335.700796	738.0
1336.237006	743.0
1336.77316	742.25
1337.309259	749.75
1337.845301	746.75
1338.381288	738.75
1338.917219	744.25
1339.453094	744.25
1339.988913	741.0
1340.524676	745.25
1341.060383	734.5
1341.596034	740.5
1342.13163	745.75
1342.66717	745.0
1343.202653	746.5
1343.738081	744.25
1344.273453	742.5
1344.80877	740.25
1345.34403	745.5
1345.879235	745.0
1346.414383	742.25
1346.949476	738.75
1347.484513	741.5
1348.019494	739.25
1348.55442	743.5
1349.089289	746.0
1349.624103	741.25
1350.158861	739.75
1350.693563	741.75
1351.228209	743.5
1351.7628	742.75
1352.297334	738.75
1352.831813	738.0
1353.366236	741.25
1353.900604	740.0
1354.434915	744.75
1354.969171	747.0
1355.503371	741.75
1356.037515	741.75
1356.571604	741.0
1357.105636	742.75
1357.639613	745.5
1358.173535	746.75
1358.7074	739.5
1359.24121	739.0
1359.774964	738.25
1360.308662	740.5
1360.842304	745.0
1361.375891	746.25
1361.909422	738.5
1362.442897	741.5
1362.976317	744.0
1363.50968	740.5
1364.042989	744.25
1364.576241	740.0
1365.109438	746.0
1365.642579	743.5
1366.175664	738.0
1366.708693	749.75
1367.774585	747.75
1368.307448	747.75
1368.840255	741.75
1369.373006	737.0
1369.905701	740.0
1370.438341	742.75
1370.970925	746.5
1371.503454	742.75
1372.035926	736.75
1372.568344	748.0
1373.100705	738.5
1373.633011	742.0
1374.165261	742.5
1374.697456	744.0
1375.229595	740.75
1375.761678	742.5
1376.293705	741.5
1376.825677	740.0
1377.357594	743.0
1377.889455	742.5
1378.42126	738.75
1378.953009	738.75
1379.484703	739.5
1380.016342	738.25
1380.547924	741.0
1381.079452	748.0
1381.610923	742.75
1382.142339	741.5
1382.673699	746.25
1383.205004	736.75
1383.736253	741.25
1384.267447	740.75
1384.798585	741.25
1385.329668	739.5
1385.860695	742.25
1386.391666	738.75
1386.922582	743.5
1387.453442	744.25
1387.984247	745.0
1388.514996	752.0
1389.04569	838.75
1389.576328	1002.25
1390.10691	828.75
1390.637437	749.75
1391.167909	746.0
1391.698325	745.25
1392.228685	742.5
1392.75899	738.75
1393.28924	740.75
1393.819434	743.0
1394.349572	741.25
1394.879655	743.0
1395.409683	742.5
1395.939655	741.75
1396.469571	738.75
1396.999432	733.5
1397.529237	743.25
1398.058987	746.0
1398.588682	739.0
1399.118321	740.5
1399.647905	738.75
1400.177433	736.0
1400.706906	738.25
1401.236323	737.75
1401.765685	745.5
1402.294991	744.0
1402.824242	742.0
1403.353437	740.0
1403.882577	739.75
1404.411662	744.25
1404.940691	742.0
1405.469665	745.5
1405.998583	738.75
1406.527446	735.75
1407.056253	737.5
1407.585005	740.0
1408.113702	742.25
1408.642343	738.25
1409.170929	740.25
1409.69946	739.5
1410.227935	751.75
1410.756354	765.5
1411.284719	762.25
1411.813028	743.75
1412.341281	739.5
1412.869479	743.5
1413.397622	742.25
1413.92571	741.5
1414.453742	737.25
1414.981718	746.25
1415.50964	753.75
1416.037506	741.75
1416.565316	739.75
1417.093072	740.0
1417.620772	742.0
1418.148416	745.75
1418.676005	742.25
1419.203539	742.0
1419.731018	749.0
1420.258441	732.0
1420.785809	747.0
1421.313122	746.75
1421.840379	740.5
1422.367582	737.5
1422.894728	743.0
1423.42182	737.75
1423.948856	737.25
1424.475837	753.25
1425.002762	739.75
1425.529633	744.0
1426.056448	741.0
1426.583207	742.5
1427.109912	742.5
1427.636561	741.0
1428.163155	744.5
1428.689694	739.25
1429.216177	735.5
1429.742605	744.75
1430.268978	740.5
1430.795296	742.75
1431.321558	745.0
1431.847765	744.75
1432.373917	744.5
1432.900014	742.0
1433.426056	741.5
1433.952042	743.25
1434.477973	742.75
1435.003849	742.75
1435.529669	742.75
1436.055435	735.5
1436.581145	737.0
1437.1068	738.5
1437.632399	739.0
1438.157944	740.25
1438.683433	742.25
1439.208868	741.0
1439.734247	737.75
1440.25957	732.5
1440.784839	745.0
1441.310053	736.75
1441.835211	734.0
1442.360314	746.25
1442.885362	740.0
1443.410355	746.25
1443.935292	738.5
1444.460175	744.75
1444.985002	744.75
1445.509774	742.75
1446.034491	735.25
1446.559153	743.25
1447.08376	742.0
1447.608312	739.75
1448.132808	739.75
1448.65725	743.25
1449.181636	739.75
1449.705967	738.75
1450.230243	738.5
1450.754464	745.25
1451.27863	741.0
1451.802741	744.5
1452.326797	741.5
1452.850797	739.75
1453.374743	737.75
1453.898633	735.5
1454.422468	738.0
1454.946249	740.0
1455.469974	744.0
1455.993644	737.5
1456.517259	743.5
1457.040819	739.5
1457.564324	740.75
1458.087773	739.0
1458.611168	745.0
1459.134508	745.5
1459.657793	739.75
1460.181022	739.0
1460.704197	741.25
1461.227316	744.5
1461.750381	743.0
1462.27339	745.75
1462.796345	755.75
1463.319244	762.25
1463.842089	744.5
1464.364878	738.25
1464.887613	738.5
1465.410292	734.5
1465.932916	737.75
1466.455486	745.25
1466.978	739.5
1467.50046	739.75
1468.022864	743.5
1468.545214	744.5
1469.067508	738.75
1469.589748	737.5
1470.111932	737.5
1470.634062	739.5
1471.156136	739.75
1471.678156	735.75
1472.20012	735.75
1472.72203	739.0
1473.243885	741.0
1473.765685	741.0
1474.28743	738.0
1474.80912	739.5
1475.330755	740.25
1475.852335	738.0
1476.37386	737.75
1476.89533	733.0
1477.416745	743.75
1477.938106	739.75
1478.459411	742.75
1478.980662	743.0
1479.501857	736.5
1480.022998	746.0
1480.544084	738.75
1481.065115	738.75
1481.586091	738.5
1482.107012	736.25
1482.627878	734.0
1483.14869	734.25
1483.669446	739.75
1484.190148	735.0
1484.710794	735.75
1485.231386	741.25
1485.751923	742.5
1486.272406	741.75
1486.792833	740.0
1487.313205	744.5
1487.833523	734.25
1488.353786	734.0
1488.873994	741.5
1489.394147	737.0
1489.914245	738.75
1490.434288	737.75
1490.954277	737.75
1491.474211	738.0
1491.99409	741.25
1492.513914	738.25
1493.033683	741.25
1493.553398	737.0
1494.073057	741.25
1494.592662	736.75
1495.112212	739.0
1495.631708	738.5
1496.151148	740.25
1496.670534	745.25
1497.189865	741.75
1497.709141	735.75
1498.228362	738.75
1498.747529	740.5
1499.266641	740.75
1499.785698	746.25
1500.3047	738.75
1500.823648	736.75
1501.34254	734.5
1501.861379	738.75
1502.380162	740.75
1502.89889	738.25
1503.417564	738.5
1503.936183	736.25
1504.454748	742.25
1504.973257	739.25
1505.491712	735.0
1506.010112	739.25
1506.528458	741.0
1507.046748	741.5
1507.564984	736.25
1508.083166	736.5
1508.601292	734.75
1509.119364	741.25
1509.637381	734.25
1510.155344	733.0
1510.673252	751.0
1511.191105	738.0
1511.708903	734.5
1512.226647	740.0
1512.744336	739.75
1513.261971	739.75
1513.77955	742.75
1514.297076	740.0
1514.814546	742.75
1515.331962	737.0
1515.849323	733.75
1516.366629	736.75
1516.883881	737.5
1517.401078	735.75
1517.918221	739.0
1518.435309	740.0
1518.952342	735.0
1519.469321	745.0
1519.986245	739.75
1520.503114	737.25
1521.019929	738.25
1521.536689	740.75
1522.053395	740.5
1522.570046	736.0
1523.086642	742.5
1523.603184	741.25
1524.119671	734.25
1524.636103	733.25
1525.152481	737.5
1525.668805	740.0
1526.185073	753.5
1526.701288	745.25
1527.217447	740.75
1527.733552	737.25
1528.249603	739.0
1528.765599	734.25
1529.28154	744.0
1529.797427	744.25
1530.313259	741.25
1530.829037	735.25
1531.34476	733.5
1531.860429	741.25
1532.376043	739.75
1532.891602	733.25
1533.407107	735.0
1533.922558	741.25
1534.437954	739.5
1534.953295	740.0
1535.468582	739.5
1535.983815	731.75
1536.498993	736.75
1537.014116	737.75
1537.529185	738.0
1538.044199	744.0
1538.559159	741.25
1539.074064	741.75
1539.588915	739.75
1540.103712	737.75
1540.618454	734.25
1541.133141	735.75
1541.647774	739.0
1542.162353	735.75
1542.676877	737.0
1543.191346	736.75
1543.705761	735.75
1544.220122	738.0
1544.734428	740.5
1545.24868	737.5
1545.762877	738.25
1546.27702	739.5
1546.791109	739.0
1547.305143	736.75
1547.819122	739.5
1548.333047	734.25
1548.846918	741.25
1549.360734	737.25
1549.874496	736.5
1550.388204	735.75
1550.901857	738.75
1551.415455	743.25
1551.929	742.5
1552.442489	744.5
1552.955925	737.5
1553.469306	738.0
1553.982632	740.0
1554.495905	737.5
1555.009123	741.5
1555.522286	740.75
1556.035395	732.5
1556.54845	740.0
1557.06145	737.25
1557.574396	738.0
1558.087288	737.0
1558.600125	737.25
1559.112908	742.5
1559.625637	742.0
1560.138311	736.0
1560.650931	740.5
1561.163497	738.25
1561.676008	740.25
1562.188465	738.5
1562.700867	740.75
1563.213216	735.5
1563.725509	738.5
1564.237749	740.75
1564.749934	736.5
1565.262065	742.5
1565.774142	739.5
1566.286164	738.25
1566.798132	746.5
1567.310046	740.5
1567.821906	737.75
1568.333711	737.75
1568.845462	738.25
1569.357158	740.5
1569.868801	738.0
1570.380389	737.25
1570.891922	742.0
1571.403402	736.25
1571.914827	742.25
1572.426198	738.75
1572.937515	737.25
1573.448777	737.75
1573.959985	734.75
1574.471139	741.5
1574.982239	734.0
1575.493285	738.5
1576.004276	736.25
1576.515213	738.5
1577.026096	740.0
1577.536924	736.25
1578.047698	735.75
1578.558419	736.75
1579.069084	735.5
1579.579696	739.5
1580.090254	742.0
1580.600757	737.5
1581.111206	734.0
1581.621601	738.0
1582.131941	737.0
1582.642228	737.25
1583.15246	742.25
1583.662638	738.75
1584.172762	739.5
1584.682832	739.0
1585.192847	732.25
1585.702809	738.75
1586.212716	737.0
1586.722569	742.0
1587.232368	738.25
1587.742113	730.75
1588.251803	743.0
1588.76144	743.25
1589.271022	736.25
1589.78055	737.5
1590.290024	739.5
1590.799444	739.25
1591.30881	736.5
1591.818121	735.75
