1042.980685	858.25
1043.547124	862.25
1044.113505	867.75
1044.679828	860.5
1045.246093	863.75
1045.8123	858.75
1046.378449	865.0
1046.94454	862.25
1047.510573	858.25
1048.076548	857.25
1048.642465	851.5
1049.208325	847.0
1049.774126	858.0
1050.339869	852.0
1050.905555	852.5
1051.471183	842.75
1052.036752	845.0
1052.602264	852.5
1053.167718	851.25
1053.733114	848.0
1054.298452	846.0
1054.863733	851.75
1055.428955	847.5
1055.994119	845.0
1056.559226	846.75
1057.124275	838.0
1057.689266	838.25
1058.254199	840.25
1058.819074	837.25
1059.383891	844.25
1059.94865	833.75
1060.513352	841.75
1061.077996	836.75
1061.642582	836.75
1062.20711	836.0
1062.77158	835.0
1063.335992	839.5
1063.900347	836.25
1064.464643	840.0
1065.028882	836.5
1065.593063	838.25
1066.157187	835.5
1066.721252	824.75
1067.28526	825.75
1067.84921	822.5
1068.413102	824.5
1068.976936	830.0
1069.540713	825.25
1070.104431	835.5
1070.668092	826.25
1071.231696	824.25
1071.795241	822.25
1072.358729	819.0
1072.922159	819.5
1073.485531	818.0
1074.048845	826.0
1074.612102	815.75
1075.175301	814.75
1075.738442	818.25
1076.301525	815.5
1076.864551	808.0
1077.427519	812.75
1077.990429	817.5
1078.553281	813.0
1079.116076	806.5
1079.678813	815.0
1080.241492	807.5
1080.804114	807.5
1081.366678	812.75
1081.929184	813.75
1082.491633	806.25
1083.054024	815.25
1083.616357	803.25
1084.178632	811.25
1084.74085	807.0
1085.30301	816.75
1085.865113	802.0
1086.427158	806.0
1086.989145	808.0
1087.551074	806.75
1088.112946	803.25
1088.67476	796.5
1089.236517	801.5
1089.798216	801.5
1090.359857	802.5
1090.92144	805.0
1091.482966	803.5
1092.044435	795.25
1092.605845	800.5
1093.167199	798.5
1093.728494	798.5
1094.289732	793.75
1094.850912	795.0
1095.412035	805.0
1095.9731	796.25
1096.534107	798.75
1097.095057	792.75
1097.65595	793.25
1098.216784	792.25
1098.777561	789.0
1099.338281	792.25
1099.898943	798.75
1100.459547	794.75
1101.020094	796.0
1101.580584	782.75
1102.141015	794.75
1102.701389	790.75
1103.261706	793.0
1103.821965	785.25
1104.382167	786.75
1104.942311	785.5
1105.502397	782.5
1106.062426	790.0
1106.622398	790.25
1107.182312	784.25
1107.742168	786.0
1108.301967	776.75
1108.861708	791.0
1109.421392	782.25
1109.981019	780.5
1110.540587	785.0
1111.100099	779.75
1111.659553	785.5
1112.218949	784.75
1112.778288	777.75
1113.33757	778.75
1113.896794	788.75
1114.45596	776.0
1115.015069	780.0
1115.574121	774.25
1116.133115	778.25
1116.692052	780.0
1117.250931	782.25
1117.809753	779.5
1118.368517	781.75
1118.927224	772.0
1119.485873	775.25
1120.044465	774.25
1120.603	774.5
1121.161477	774.5
1121.719897	778.25
1122.278259	773.5
1122.836564	772.0
1123.394812	769.25
1123.953002	782.25
1124.511135	771.25
1125.06921	774.25
1125.627228	772.75
1126.185189	769.0
1126.743092	771.75
1127.300938	774.25
1127.858726	770.75
1128.416457	774.0
1128.974131	772.75
1129.531748	772.25
1130.089307	769.5
1130.646808	764.25
1131.204252	765.75
1131.761639	771.75
1132.318969	765.0
1132.876241	766.5
1133.433456	766.75
1133.990614	770.25
1134.547714	774.25
1135.104757	765.0
1135.661743	768.0
1136.218671	773.0
1136.775542	763.5
1137.332356	762.5
1137.889112	766.0
1138.445811	768.25
1139.002453	771.0
1139.559037	771.75
1140.115565	769.0
1140.672035	767.0
1141.228447	763.0
1141.784803	766.25
1142.341101	764.25
1142.897342	768.0
1143.453525	764.5
1144.009651	771.0
1144.565721	767.25
1145.121732	768.5
1145.677687	766.25
1146.233584	761.75
1146.789424	760.0
1147.345207	765.0
1147.900933	766.75
1148.456601	765.5
1149.012212	765.75
1149.567766	764.5
1150.123263	764.0
1150.678702	764.0
1151.234085	768.25
1151.78941	769.0
1152.344678	764.5
1152.899888	764.5
1153.455042	758.25
1154.010138	769.25
1154.565177	759.25
1155.120159	764.75
1155.675084	764.0
1156.229951	764.5
1156.784762	765.75
1157.339515	762.25
1157.894211	751.75
1158.44885	766.0
1159.003432	760.5
1159.557956	769.0
1160.112424	765.25
1160.666834	760.5
1161.221187	767.0
1161.775483	763.25
1162.329722	760.25
1162.883904	762.5
1163.438029	761.5
1163.992096	764.75
1164.546107	757.25
1165.10006	762.75
1165.653956	764.0
1166.207795	759.25
1166.761577	764.75
1167.315302	764.75
1167.86897	761.5
1168.422581	760.5
1168.976134	767.5
1169.529631	758.0
1170.08307	761.25
1170.636453	759.75
1171.189778	764.0
1171.743046	756.5
1172.296257	756.75
1172.849412	753.75
1173.402509	756.25
1173.955549	761.0
1174.508532	761.25
1175.061458	757.75
1175.614327	762.5
1176.167138	751.75
1176.719893	756.75
1177.272591	763.0
1177.825232	759.25
1178.377816	752.75
1178.930342	759.75
1179.482812	757.75
1180.035225	758.25
1180.587581	760.0
1181.139879	756.0
1181.692121	755.75
1182.244306	755.0
1182.796434	762.5
1183.348504	756.75
1183.900518	761.25
1184.452475	765.25
1185.004375	755.5
1185.556218	760.0
1186.108004	760.25
1186.659733	757.75
1187.211405	757.75
1187.76302	753.0
1188.314578	751.75
1188.866079	754.0
1189.417523	752.25
1189.96891	754.25
1190.520241	749.0
1191.071514	749.75
1191.622731	755.75
1192.17389	757.25
1192.724993	755.25
1193.276039	774.75
1193.827027	751.25
1194.377959	749.75
1194.928834	757.25
1195.479653	757.25
1196.030414	745.75
1196.581118	755.25
1197.131766	747.75
1197.682356	748.75
1198.23289	754.0
1198.783367	750.75
1199.333786	754.0
1199.88415	748.0
1200.434456	752.75
1200.984705	755.5
1201.534898	751.0
1202.085033	752.75
1202.635112	756.0
1203.185134	749.75
1203.735099	756.5
1204.285007	752.25
1204.834859	756.0
1205.384653	754.75
1205.934391	752.0
1206.484072	750.75
1207.033696	758.5
1207.583263	752.0
1208.132774	749.75
1208.682228	752.25
1209.231624	752.0
1209.780965	757.0
1210.330248	752.5
1210.879474	751.5
1211.428644	754.75
1211.977757	752.25
1212.526813	752.0
1213.075813	753.0
1213.624755	747.5
1214.173641	753.0
1214.72247	755.0
1215.271242	744.0
1215.819958	744.25
1216.368617	751.75
1216.917219	750.25
1217.465764	747.0
1218.014253	747.75
1218.562685	754.25
1219.11106	752.25
1219.659378	749.25
1220.20764	763.25
1220.755845	748.75
1221.303993	754.75
1221.852085	749.25
1222.400119	754.5
1222.948097	750.5
1223.496019	754.5
1224.043883	748.25
1224.591691	751.0
1225.139443	754.0
1225.687137	751.25
1226.234775	746.5
1226.782357	750.75
1227.329881	754.5
1227.877349	750.0
1228.42476	750.75
1228.972115	747.75
1229.519413	743.5
1230.066654	751.0
1230.613839	750.5
1231.160967	743.25
1231.708038	751.0
1232.255053	748.25
1232.802011	749.25
1233.348912	749.75
1233.895757	746.5
1234.442545	753.0
1234.989277	748.75
1235.535951	749.0
1236.08257	748.75
1236.629131	749.0
1237.175636	751.0
1237.722085	741.0
1238.268477	746.25
1238.814812	751.75
1239.361091	750.5
1239.907313	749.75
1240.453478	746.0
1240.999587	746.5
1241.54564	748.0
1242.091636	753.75
1242.637575	752.5
1243.183457	746.25
1243.729284	754.25
1244.275053	746.25
1244.820766	747.75
1245.366423	752.75
1245.912022	751.0
1246.457566	746.0
1247.003053	745.5
1247.548483	747.5
1248.093857	754.25
1248.639174	749.0
1249.184435	753.25
1249.729639	752.0
1250.274787	744.25
1250.819878	750.75
1251.364912	743.25
1251.909891	747.75
1252.454812	745.75
1252.999677	752.0
1253.544486	751.5
1254.089238	746.0
1254.633934	748.0
1255.178573	755.0
1255.723156	750.25
1256.267682	752.0
1256.812152	747.75
1257.356565	749.25
1257.900922	750.0
1258.445223	752.0
1258.989467	745.25
1259.533654	750.5
1260.077785	760.5
1260.62186	745.0
1261.165878	744.0
1261.70984	752.0
1262.253745	747.75
1262.797594	747.25
1263.341386	751.0
1263.885123	742.5
1264.428802	747.75
1264.972425	753.75
1265.515992	752.75
1266.059503	756.75
1266.602957	755.5
1267.146354	753.25
1267.689696	752.0
1268.23298	752.5
1268.776209	749.5
1269.319381	750.0
1269.862497	752.5
1270.405556	743.0
1270.948559	749.5
1271.491506	748.75
1272.034396	742.5
1272.57723	747.5
1273.120007	744.25
1273.662728	749.5
1274.205393	745.0
1274.748002	747.75
1275.290554	749.0
1275.83305	751.0
1276.375489	750.5
1276.917872	743.5
1277.460199	750.25
1278.00247	741.75
1278.544684	749.5
1279.086842	741.25
1279.628943	748.0
1280.170989	742.25
1280.712978	748.25
1281.25491	742.75
1281.796787	747.25
1282.338607	744.0
1282.880371	743.0
1283.422078	743.0
1283.963729	752.0
1284.505324	750.75
1285.046863	749.5
1285.588345	761.75
1286.129772	839.5
1286.671142	906.0
1287.212455	794.0
1287.753713	756.5
1288.294914	741.75
1288.836059	747.0
1289.377147	748.25
1289.91818	744.0
1290.459156	741.75
1291.000076	750.75
1291.54094	742.25
1292.081747	744.75
1292.622499	746.5
1293.163194	751.25
1293.703833	741.75
1294.244415	743.5
1294.784942	742.0
1295.325412	746.0
1295.865826	747.25
1296.406184	747.25
1296.946486	745.0
1297.486731	747.25
1298.026921	747.25
1298.567054	748.5
1299.107131	742.0
1299.647152	741.75
1300.187116	748.25
1300.727025	744.5
1301.266877	749.25
1301.806673	742.25
1302.346413	750.0
1302.886097	741.5
1303.425725	744.25
1303.965297	745.25
1304.504812	744.75
1305.044272	745.5
1305.583675	746.25
1306.123022	749.75
1306.662313	749.75
1307.201548	749.0
1307.740727	744.25
1308.279849	746.75
1308.818916	744.75
1309.357926	745.5
1309.896881	743.0
1310.435779	743.75
1310.974621	750.0
1311.513407	747.5
1312.052137	747.0
1312.590811	750.5
1313.129429	744.75
1313.667991	751.75
1314.206497	739.75
1314.744946	744.25
1315.28334	743.0
1315.821678	744.0
1316.359959	741.0
1316.898184	744.5
1317.436354	744.5
1317.974467	741.25
1318.512525	748.25
1319.050526	747.25
1319.588471	744.5
1320.12636	749.25
1320.664194	748.25
1321.201971	745.75
1321.739692	745.25
1322.277357	745.25
1322.814967	746.0
1323.35252	744.5
1323.890017	748.0
1324.427458	748.0
1324.964843	741.25
1325.502173	740.75
1326.039446	747.25
1326.576663	743.0
1327.113824	747.25
1327.65093	746.25
1328.187979	742.0
1328.724972	743.0
1329.26191	745.5
1329.798791	748.75
1330.335617	742.5
1330.872386	746.0
1331.4091	744.75
1331.945758	747.5
1332.48236	745.25
1333.018905	742.25
1333.555395	746.5
1334.091829	745.75
1334.628207	749.25
1335.164529	742.75
1335.700796	743.0
1336.237006	743.5
1336.77316	744.75
1337.309259	742.5
1337.845301	740.5
1338.381288	747.25
1338.917219	744.5
1339.453094	743.25
1339.988913	746.25
1340.524676	743.25
1341.060383	742.5
1341.596034	740.25
1342.13163	743.0
1342.66717	745.75
1343.202653	743.75
1343.738081	741.25
1344.273453	741.0
1344.80877	742.5
1345.34403	741.25
1345.879235	744.75
1346.414383	744.0
1346.949476	744.75
1347.484513	743.0
1348.019494	741.75
1348.55442	748.0
1349.089289	742.0
1349.624103	744.25
1350.158861	743.5
1350.693563	748.0
1351.228209	742.5
1351.7628	749.25
1352.297334	740.75
1352.831813	743.25
1353.366236	745.5
1353.900604	746.25
1354.434915	744.0
1354.969171	743.25
1355.503371	746.5
1356.037515	750.5
1356.571604	744.75
1357.105636	740.25
1357.639613	741.0
1358.173535	743.75
1358.7074	746.75
1359.24121	750.25
1359.774964	742.75
1360.308662	747.5
1360.842304	742.5
1361.375891	740.5
1361.909422	741.0
1362.442897	739.25
1362.976317	747.0
1363.50968	745.5
1364.042989	738.5
1364.576241	746.0
1365.109438	743.0
1365.642579	747.0
1366.175664	742.5
1366.708693	743.25
1367.241667	738.25
1367.774585	743.75
1368.307448	737.5
1368.840255	748.0
1369.373006	743.75
1369.905701	750.25
1370.438341	748.75
1370.970925	745.0
1371.503454	745.25
1372.035926	748.75
1372.568344	743.25
1373.100705	742.25
1373.633011	740.5
1374.165261	752.0
1374.697456	740.25
1375.229595	739.0
1375.761678	746.5
1376.293705	744.5
1376.825677	744.5
1377.357594	746.0
1377.889455	743.75
1378.42126	738.75
1378.953009	743.25
1379.484703	743.75
1380.016342	741.75
1380.547924	746.25
1381.079452	737.0
1381.610923	747.25
1382.142339	742.0
1382.673699	745.25
1383.205004	740.25
1383.736253	744.0
1384.267447	744.5
1384.798585	743.25
1385.329668	739.0
1385.860695	746.0
1386.391666	747.75
1386.922582	739.75
1387.453442	750.0
1387.984247	749.75
1388.514996	752.5
1389.04569	833.75
1389.576328	1007.25
1390.10691	820.5
1390.637437	752.5
1391.167909	747.5
1391.698325	740.75
1392.228685	746.5
1392.75899	746.25
1393.28924	744.75
1393.819434	748.0
1394.349572	749.25
1394.879655	744.5
1395.409683	749.75
1395.939655	741.5
1396.469571	746.25
1396.999432	747.5
1397.529237	745.75
1398.058987	741.0
1398.588682	746.5
1399.118321	742.0
1399.647905	746.75
1400.177433	746.75
1400.706906	740.75
1401.236323	742.75
1401.765685	745.0
1402.294991	744.0
1402.824242	741.25
1403.353437	742.5
1403.882577	751.0
1404.411662	741.25
1404.940691	741.75
1405.469665	748.75
1405.998583	745.0
1406.527446	740.75
1407.056253	741.25
1407.585005	744.25
1408.113702	744.25
1408.642343	748.25
1409.170929	741.25
1409.69946	744.75
1410.227935	754.0
1410.756354	771.0
1411.284719	751.25
1411.813028	752.5
1412.341281	740.0
1412.869479	743.5
1413.397622	749.25
1413.92571	740.0
1414.453742	746.75
1414.981718	748.5
1415.50964	759.75
1416.037506	740.75
1416.565316	740.25
1417.093072	744.25
1417.620772	743.25
1418.148416	741.5
1418.676005	743.5
1419.203539	742.0
1419.731018	747.75
1420.258441	746.0
1420.785809	747.5
1421.313122	739.25
1421.840379	746.5
1422.367582	745.75
1422.894728	745.0
1423.42182	741.5
1423.948856	740.75
1424.475837	742.0
1425.002762	748.0
1425.529633	744.75
1426.056448	744.75
1426.583207	748.75
1427.109912	739.5
1427.636561	737.5
1428.163155	741.75
1428.689694	742.0
1429.216177	746.0
1429.742605	738.25
1430.268978	744.25
1430.795296	740.5
1431.321558	745.25
1431.847765	743.5
1432.373917	743.0
1432.900014	741.75
1433.426056	741.25
1433.952042	739.25
1434.477973	744.5
1435.003849	740.25
1435.529669	741.25
1436.055435	736.75
1436.581145	742.75
1437.1068	743.5
1437.632399	744.0
1438.157944	745.25
1438.683433	741.5
1439.208868	740.5
1439.734247	736.75
1440.25957	741.5
1440.784839	741.0
1441.310053	746.0
1441.835211	738.0
1442.360314	742.25
1442.885362	742.5
1443.410355	747.75
1443.935292	740.5
1444.460175	740.5
1444.985002	746.0
1445.509774	741.5
1446.034491	744.75
1446.559153	737.5
1447.08376	743.0
1447.608312	741.75
1448.132808	737.0
1448.65725	746.25
1449.181636	741.75
1449.705967	745.75
1450.230243	741.0
1450.754464	740.25
1451.27863	743.25
1451.802741	737.0
1452.326797	742.5
1452.850797	743.25
1453.374743	744.75
1453.898633	739.0
1454.422468	748.0
1454.946249	748.5
1455.469974	741.5
1455.993644	739.25
1456.517259	740.5
1457.040819	742.0
1457.564324	742.75
1458.087773	741.5
1458.611168	751.0
1459.134508	744.25
1459.657793	746.5
1460.181022	741.0
1460.704197	748.0
1461.227316	743.0
1461.750381	747.0
1462.27339	744.0
1462.796345	750.25
1463.319244	762.75
1463.842089	748.25
1464.364878	738.25
1464.887613	742.0
1465.410292	741.25
1465.932916	739.75
1466.455486	745.75
1466.978	746.5
1467.50046	740.25
1468.022864	743.25
1468.545214	734.25
1469.067508	741.5
1469.589748	740.75
1470.111932	744.25
1470.634062	737.5
1471.156136	738.5
1471.678156	742.5
1472.20012	737.0
1472.72203	745.75
1473.243885	744.5
1473.765685	742.5
1474.28743	740.0
1474.80912	743.0
1475.330755	738.25
1475.852335	739.0
1476.37386	740.0
1476.89533	739.75
1477.416745	743.5
1477.938106	741.0
1478.459411	739.25
1478.980662	739.0
1479.501857	743.25
1480.022998	742.25
1480.544084	737.5
1481.065115	738.75
1481.586091	747.0
1482.107012	740.75
1482.627878	742.75
1483.14869	741.25
1483.669446	739.0
1484.190148	734.5
1484.710794	741.0
1485.231386	745.75
1485.751923	743.5
1486.272406	743.5
1486.792833	737.75
1487.313205	737.75
1487.833523	738.25
1488.353786	739.0
1488.873994	740.0
1489.394147	742.5
1489.914245	745.5
1490.434288	739.5
1490.954277	737.25
1491.474211	739.25
1491.99409	737.75
1492.513914	742.5
1493.033683	743.5
1493.553398	743.25
1494.073057	743.75
1494.592662	742.0
1495.112212	742.0
1495.631708	746.5
1496.151148	745.0
1496.670534	736.5
1497.189865	743.75
1497.709141	738.5
1498.228362	741.25
1498.747529	743.25
1499.266641	740.5
1499.785698	749.0
1500.3047	742.0
1500.823648	734.75
1501.34254	743.0
1501.861379	739.0
1502.380162	739.0
1502.89889	743.5
1503.417564	742.5
1503.936183	737.75
1504.454748	742.75
1504.973257	740.75
1505.491712	740.5
1506.010112	740.0
1506.528458	738.5
1507.046748	744.25
1507.564984	743.75
1508.083166	733.25
1508.601292	738.25
1509.119364	744.0
1509.637381	739.5
1510.155344	738.25
1510.673252	748.75
1511.191105	741.25
1511.708903	737.5
1512.226647	738.25
1512.744336	741.0
1513.261971	742.5
1513.77955	740.75
1514.297076	745.75
1514.814546	742.75
1515.331962	743.0
1515.849323	741.25
1516.366629	739.0
1516.883881	740.0
1517.401078	743.75
1517.918221	738.0
1518.435309	738.0
1518.952342	745.0
1519.469321	738.25
1519.986245	740.75
1520.503114	742.25
1521.019929	733.5
1521.536689	737.5
1522.053395	734.25
1522.570046	743.0
1523.086642	738.25
1523.603184	738.75
1524.119671	738.5
1524.636103	739.5
1525.152481	736.75
1525.668805	750.0
1526.185073	755.75
1526.701288	741.5
1527.217447	742.25
1527.733552	732.5
1528.249603	742.25
1528.765599	737.0
1529.28154	741.75
1529.797427	742.5
1530.313259	744.25
1530.829037	740.75
1531.34476	740.0
1531.860429	739.75
1532.376043	739.25
1532.891602	739.25
1533.407107	742.0
1533.922558	741.0
1534.437954	740.25
1534.953295	736.25
1535.468582	737.0
1535.983815	745.25
1536.498993	737.75
1537.014116	739.25
1537.529185	746.0
1538.044199	736.0
1538.559159	740.75
1539.074064	745.0
1539.588915	739.5
1540.103712	739.75
1540.618454	738.75
1541.133141	739.0
1541.647774	736.5
1542.162353	735.0
1542.676877	736.75
1543.191346	742.25
1543.705761	737.75
1544.220122	743.0
1544.734428	739.75
1545.24868	738.25
1545.762877	741.5
1546.27702	741.75
1546.791109	743.75
1547.305143	739.25
1547.819122	736.75
1548.333047	739.5
1548.846918	741.0
1549.360734	739.0
1549.874496	736.75
1550.388204	733.25
1550.901857	745.5
1551.415455	741.5
1551.929	736.75
1552.442489	739.75
1552.955925	739.75
1553.469306	736.75
1553.982632	737.75
1554.495905	738.5
1555.009123	739.5
1555.522286	748.25
1556.035395	746.0
1556.54845	743.5
1557.06145	737.75
1557.574396	740.5
1558.087288	731.75
1558.600125	741.25
1559.112908	739.75
1559.625637	736.75
1560.138311	743.5
1560.650931	739.0
1561.163497	740.0
1561.676008	740.75
1562.188465	741.5
1562.700867	738.25
1563.213216	741.5
1563.725509	742.0
1564.237749	741.5
1564.749934	741.75
1565.262065	737.5
1565.774142	740.25
1566.286164	737.25
1566.798132	735.75
1567.310046	742.25
1567.821906	738.75
1568.333711	742.75
1568.845462	740.0
1569.357158	740.5
1569.868801	741.0
1570.380389	740.75
1570.891922	741.75
1571.403402	736.75
1571.914827	742.75
1572.426198	736.75
1572.937515	741.0
1573.448777	734.0
1573.959985	737.75
1574.471139	739.75
1574.982239	739.0
1575.493285	739.5
1576.004276	735.5
1576.515213	743.5
1577.026096	746.25
1577.536924	731.25
1578.047698	738.25
1578.558419	741.75
1579.069084	739.5
1579.579696	739.5
1580.090254	745.75
1580.600757	740.5
1581.111206	741.25
1581.621601	736.0
1582.131941	742.25
1582.642228	737.25
1583.15246	742.5
1583.662638	740.0
1584.172762	735.75
1584.682832	742.0
1585.192847	739.75
1585.702809	734.75
1586.212716	738.0
1586.722569	741.5
1587.232368	732.25
1587.742113	737.0
1588.251803	739.25
1588.76144	742.5
1589.271022	734.25
1589.78055	739.75
1590.290024	738.25
1590.799444	735.75
1591.30881	736.5
1591.818121	739.75
1592.327379	736.75
