1042.414189	774.75
1042.980685	772.5
1043.547124	767.5
1044.113505	773.25
1044.679828	768.25
1045.246093	763.0
1045.8123	766.25
1046.378449	759.75
1046.94454	759.25
1047.510573	759.5
1048.076548	762.5
1048.642465	762.5
1049.208325	754.75
1049.774126	753.25
1050.339869	759.25
1050.905555	756.5
1051.471183	755.25
1052.036752	752.5
1052.602264	752.5
1053.167718	751.75
1053.733114	750.5
1054.298452	749.25
1054.863733	746.5
1055.428955	748.25
1055.994119	743.5
1056.559226	745.5
1057.124275	745.25
1057.689266	745.5
1058.254199	745.75
1058.819074	743.75
1059.383891	744.25
1059.94865	744.75
1060.513352	747.0
1061.077996	745.25
1061.642582	750.25
1062.20711	740.5
1062.77158	742.25
1063.335992	741.75
1063.900347	743.25
1064.464643	743.75
1065.028882	738.0
1065.593063	743.5
1066.157187	735.5
1066.721252	739.75
1067.28526	744.5
1067.84921	743.0
1068.413102	746.0
1068.976936	741.75
1069.540713	740.0
1070.104431	741.25
1070.668092	738.25
1071.231696	738.5
1071.795241	737.25
1072.358729	738.0
1072.922159	745.25
1073.485531	735.5
1074.048845	743.25
1075.738442	740.0
1076.301525	740.75
1076.864551	740.25
1077.427519	742.25
1077.990429	737.5
1078.553281	735.25
1079.116076	738.5
1079.678813	738.0
1080.241492	739.25
1080.804114	738.25
1081.366678	736.75
1081.929184	731.75
1082.491633	739.0
1083.054024	741.5
1083.616357	733.5
1084.178632	740.75
1084.74085	743.5
1085.30301	736.25
1085.865113	736.75
1086.427158	738.0
1086.989145	738.75
1087.551074	738.0
1088.112946	732.25
1088.67476	734.75
1089.236517	732.75
1089.798216	733.5
1090.359857	736.75
1090.92144	736.25
1091.482966	730.0
1092.044435	731.0
1092.605845	737.25
1093.167199	734.75
1093.728494	739.5
1094.289732	731.0
1094.850912	732.25
1095.412035	740.75
1095.9731	734.25
1096.534107	732.0
1097.095057	735.75
1097.65595	738.5
1098.216784	733.75
1098.777561	731.75
1099.338281	729.5
1099.898943	729.75
1100.459547	729.75
1101.020094	730.25
1101.580584	733.0
1102.141015	730.0
1102.701389	725.25
1103.261706	724.5
1103.821965	724.0
1104.382167	726.0
1104.942311	728.0
1105.502397	720.5
1106.062426	718.75
1106.622398	731.25
1107.182312	718.75
1107.742168	727.5
1108.301967	726.0
1108.861708	721.5
1109.421392	721.0
1109.981019	725.5
1110.540587	720.75
1111.100099	723.75
1111.659553	723.0
1112.218949	721.5
1112.778288	720.5
1113.33757	721.75
1113.896794	718.0
1114.45596	716.75
1115.015069	718.0
1115.574121	718.0
1116.133115	716.5
1116.692052	717.75
1117.250931	727.25
1117.809753	721.25
1118.368517	723.5
1118.927224	718.0
1119.485873	719.0
1120.044465	717.0
1120.603	718.0
1121.161477	717.0
1121.719897	715.25
1122.278259	712.5
1122.836564	719.5
1123.394812	719.5
1123.953002	712.0
1124.511135	718.25
1125.06921	718.75
1125.627228	718.75
1126.185189	712.75
1126.743092	716.0
1127.300938	716.25
1127.858726	713.75
1128.416457	715.0
1128.974131	718.25
1129.531748	715.75
1130.089307	716.25
1130.646808	713.5
1131.204252	715.25
1131.761639	712.5
1132.318969	712.5
1132.876241	714.25
1133.433456	716.75
1133.990614	713.0
1134.547714	716.5
1135.104757	713.0
1135.661743	713.75
1136.218671	712.5
1136.775542	715.25
1137.332356	711.5
1137.889112	712.5
1138.445811	710.0
1139.002453	714.0
1139.559037	713.0
1140.115565	712.75
1140.672035	713.25
1141.228447	716.25
1141.784803	716.25
1142.341101	713.0
1142.897342	734.25
1143.453525	1763.5
1144.009651	882.75
1144.565721	716.5
1145.121732	713.75
1145.677687	709.25
1146.233584	712.0
1146.789424	709.5
1147.345207	714.5
1147.900933	712.25
1148.456601	706.25
1149.012212	708.5
1149.567766	712.5
1150.123263	712.75
1150.678702	708.75
1151.234085	709.0
1151.78941	709.75
1152.344678	707.0
1152.899888	712.25
1153.455042	714.5
1154.010138	709.0
1154.565177	714.0
1155.120159	711.0
1155.675084	712.0
1156.229951	707.0
1156.784762	712.0
1157.339515	707.75
1157.894211	714.25
1158.44885	708.5
1159.003432	709.75
1159.557956	709.75
1160.112424	711.5
1160.666834	714.75
1161.221187	709.5
1161.775483	712.0
1162.329722	714.75
1162.883904	711.25
1163.438029	707.5
1163.992096	711.0
1164.546107	708.25
1165.10006	709.5
1165.653956	709.0
1166.207795	712.0
1166.761577	706.75
1167.315302	710.5
1167.86897	711.25
1168.422581	708.0
1168.976134	710.0
1169.529631	709.0
1170.08307	710.75
1170.636453	715.25
1171.189778	711.5
1171.743046	709.25
1172.296257	704.5
1172.849412	711.25
1173.402509	702.5
1173.955549	710.25
1174.508532	710.25
1175.061458	707.5
1175.614327	707.25
1176.167138	708.25
1176.719893	705.25
1177.272591	706.0
1177.825232	708.5
1178.377816	710.5
1178.930342	708.5
1179.482812	705.5
1180.035225	707.5
1180.587581	705.75
1181.139879	710.25
1181.692121	707.5
1182.244306	709.5
1182.796434	702.25
1183.348504	709.25
1183.900518	706.75
1184.452475	707.75
1185.004375	702.5
1185.556218	708.75
1186.108004	707.5
1186.659733	706.0
1187.211405	709.0
1187.76302	709.25
1188.314578	701.25
1188.866079	704.75
1189.417523	706.25
1189.96891	707.0
1190.520241	706.25
1191.071514	704.5
1191.622731	701.5
1192.17389	706.75
1192.724993	708.5
1193.276039	724.5
1193.827027	707.75
1194.377959	706.75
1194.928834	705.0
1195.479653	708.25
1196.030414	709.5
1196.581118	704.0
1197.131766	706.25
1197.682356	703.75
1198.23289	706.5
1198.783367	705.0
1199.333786	709.0
1199.88415	706.0
1200.434456	709.0
1200.984705	707.5
1201.534898	701.0
1202.085033	706.5
1202.635112	705.25
1203.185134	711.25
1203.735099	704.0
1204.285007	706.25
1204.834859	707.25
1205.384653	706.75
1205.934391	705.5
1206.484072	708.5
1207.033696	704.5
1207.583263	701.25
1208.132774	705.75
1208.682228	703.5
1209.231624	704.0
1209.780965	707.0
1210.330248	704.5
1210.879474	705.0
1211.428644	700.25
1211.977757	707.75
1212.526813	703.5
1213.075813	704.0
1213.624755	704.0
1214.173641	706.0
1214.72247	704.25
1215.271242	705.75
1215.819958	698.25
1216.368617	704.0
1216.917219	705.0
1217.465764	706.25
1218.014253	704.0
1218.562685	704.5
1219.11106	699.0
1219.659378	704.75
1220.20764	709.25
1220.755845	697.25
1221.303993	702.75
1221.852085	708.0
1222.400119	703.5
1222.948097	707.25
1223.496019	702.75
1224.043883	704.75
1224.591691	705.5
1225.139443	707.0
1225.687137	706.75
1226.234775	703.5
1226.782357	703.75
1227.329881	709.25
1227.877349	703.5
1228.42476	707.25
1228.972115	700.5
1229.519413	702.5
1230.066654	705.75
1230.613839	703.5
1231.160967	708.75
1231.708038	701.75
1232.255053	707.25
1232.802011	707.5
1233.348912	706.0
1233.895757	706.75
1234.442545	707.5
1234.989277	701.75
1235.535951	703.25
1236.08257	704.75
1236.629131	710.0
1237.175636	702.25
1237.722085	707.0
1238.268477	706.0
1238.814812	706.5
1239.361091	706.5
1239.907313	702.5
1240.453478	705.75
1240.999587	706.0
1241.54564	705.0
1242.091636	705.25
1242.637575	706.25
1243.183457	705.25
1243.729284	705.25
1244.275053	705.75
1244.820766	703.25
1245.366423	704.75
1245.912022	706.75
1246.457566	701.75
1247.003053	702.25
1247.548483	704.25
1248.093857	702.75
1248.639174	704.75
1249.184435	706.5
1249.729639	705.75
1250.274787	708.75
1250.819878	707.5
1251.364912	700.75
1251.909891	704.5
1252.454812	701.5
1252.999677	701.75
1253.544486	701.75
1254.089238	707.5
1254.633934	705.5
1255.178573	704.5
1255.723156	700.75
1256.267682	706.0
1256.812152	706.75
1257.356565	706.75
1257.900922	703.25
1258.445223	704.0
1258.989467	708.0
1259.533654	704.75
1260.077785	714.0
1260.62186	704.5
1261.165878	705.25
1261.70984	707.0
1262.253745	700.75
1262.797594	707.5
1263.341386	705.75
1263.885123	708.0
1264.428802	716.75
1264.972425	720.25
1265.515992	728.75
1266.059503	718.75
1266.602957	715.0
1267.146354	708.25
1267.689696	702.0
1268.23298	710.75
1268.776209	707.5
1269.319381	707.5
1269.862497	703.25
1270.405556	709.5
1270.948559	703.75
1271.491506	704.0
1272.034396	705.5
1272.57723	706.25
1273.120007	703.25
1273.662728	702.75
1274.205393	701.0
1274.748002	704.0
1275.290554	704.75
1275.83305	707.0
1276.375489	699.5
1276.917872	709.25
1277.460199	704.0
1278.00247	704.0
1278.544684	709.5
1279.086842	705.75
1279.628943	703.25
1280.170989	704.0
1280.712978	709.75
1281.25491	707.5
1281.796787	704.0
1282.338607	712.75
1282.880371	711.75
1283.422078	713.75
1283.963729	719.5
1284.505324	741.0
1285.046863	800.0
1285.588345	952.5
1286.129772	946.5
1286.671142	785.25
1287.212455	734.0
1287.753713	717.0
1288.294914	712.25
1288.836059	708.5
1289.377147	709.75
1289.91818	704.75
1290.459156	710.25
1291.000076	704.5
1291.54094	707.25
1292.081747	707.0
1292.622499	701.5
1293.163194	701.5
1293.703833	705.25
1294.244415	703.5
1294.784942	702.25
1295.325412	709.25
1295.865826	707.75
1296.406184	705.0
1296.946486	703.5
1297.486731	710.25
1298.026921	702.25
1298.567054	703.75
1299.107131	699.0
1299.647152	706.75
1300.187116	701.75
1300.727025	706.0
1301.266877	701.5
1301.806673	705.5
1302.346413	703.5
1302.886097	710.5
1303.425725	705.5
1303.965297	703.5
1304.504812	707.5
1305.044272	704.25
1305.583675	703.0
1306.123022	704.75
1306.662313	704.0
1307.201548	706.75
1307.740727	706.5
1308.279849	703.25
1308.818916	707.5
1309.357926	703.5
1309.896881	699.0
1310.435779	703.75
1310.974621	698.5
1311.513407	701.0
1312.052137	706.75
1312.590811	704.25
1313.129429	704.75
1313.667991	708.5
1314.206497	701.25
1314.744946	700.0
1315.28334	706.0
1315.821678	702.25
1316.359959	703.5
1316.898184	706.0
1317.436354	703.5
1317.974467	705.0
1318.512525	701.75
1319.050526	703.25
1319.588471	702.5
1320.12636	701.25
1320.664194	703.0
1321.201971	703.25
1321.739692	702.25
1322.277357	704.5
1322.814967	698.0
1323.35252	705.5
1323.890017	705.25
1324.427458	698.5
1324.964843	704.5
1325.502173	707.25
1326.039446	699.75
1326.576663	703.25
1327.113824	701.75
1327.65093	700.75
1328.187979	703.0
1328.724972	703.25
1329.26191	698.5
1329.798791	701.0
1330.335617	703.0
1330.872386	701.5
1331.4091	699.0
1331.945758	701.75
1332.48236	699.5
1333.018905	700.0
1333.555395	702.5
1334.091829	704.5
1334.628207	704.75
1335.164529	700.25
1335.700796	701.5
1336.237006	701.25
1336.77316	701.5
1337.309259	704.25
1337.845301	706.25
1338.381288	698.25
1338.917219	703.0
1339.453094	704.25
1339.988913	701.75
1340.524676	705.25
1341.060383	701.5
1341.596034	704.0
1342.13163	705.5
1342.66717	702.0
1343.202653	704.0
1343.738081	703.25
1344.273453	699.25
1344.80877	700.5
1345.34403	702.25
1345.879235	705.75
1346.414383	696.25
1346.949476	706.5
1347.484513	700.0
1348.019494	705.5
1348.55442	701.5
1349.089289	703.25
1349.624103	702.0
1350.158861	703.5
1350.693563	700.25
1351.228209	699.5
1351.7628	703.75
1352.297334	701.5
1352.831813	702.0
1353.366236	700.25
1353.900604	700.25
1354.434915	705.0
1354.969171	702.0
1355.503371	701.75
1356.037515	705.5
1356.571604	705.25
1357.105636	704.75
1357.639613	703.5
1358.173535	705.75
1358.7074	700.75
1359.24121	700.75
1359.774964	708.75
1360.308662	706.75
1360.842304	702.25
1361.375891	700.75
1361.909422	702.75
1362.442897	706.5
1362.976317	704.0
1363.50968	704.0
1364.042989	701.5
1364.576241	701.25
1365.109438	703.0
1365.642579	701.5
1366.175664	700.25
1366.708693	705.0
1367.241667	704.5
1367.774585	702.5
1368.307448	702.0
1368.840255	702.0
1369.373006	705.0
1369.905701	703.75
1370.438341	708.0
1370.970925	711.75
1371.503454	704.25
1372.035926	704.0
1372.568344	704.25
1373.100705	699.75
1373.633011	706.5
1374.165261	702.0
1374.697456	702.75
1375.229595	705.5
1375.761678	703.0
1376.293705	700.0
1376.825677	703.75
1377.357594	707.25
1377.889455	703.5
1378.42126	702.5
1378.953009	701.75
1379.484703	707.25
1380.016342	705.25
1380.547924	707.5
1381.079452	698.5
1381.610923	703.75
1382.142339	706.25
1382.673699	702.25
1383.205004	703.25
1383.736253	704.5
1384.267447	705.75
1384.798585	707.25
1385.329668	705.25
1385.860695	708.0
1386.391666	707.25
1386.922582	717.75
1387.453442	718.5
1387.984247	760.25
1388.514996	905.75
1389.04569	1221.0
1389.576328	994.75
1390.10691	772.25
1390.637437	720.0
1391.167909	713.5
1391.698325	711.5
1392.228685	707.0
1392.75899	706.0
1393.28924	704.5
1393.819434	706.25
1394.349572	704.25
1394.879655	710.0
1395.409683	701.25
1395.939655	703.25
1396.469571	703.5
1396.999432	700.25
1397.529237	706.25
1398.058987	707.75
1398.588682	701.25
1399.118321	704.25
1399.647905	704.5
1400.177433	708.0
1400.706906	702.5
1401.236323	706.5
1401.765685	701.5
1402.294991	707.25
1402.824242	706.0
1403.353437	699.75
1403.882577	707.0
1404.411662	701.25
1404.940691	706.0
1405.469665	700.75
1405.998583	702.0
1406.527446	703.5
1407.056253	705.75
1407.585005	708.0
1408.113702	705.25
1408.642343	710.0
1409.170929	714.0
1409.69946	720.0
1410.227935	738.25
1410.756354	743.25
1411.284719	717.0
1411.813028	706.0
1412.341281	707.5
1412.869479	709.75
1413.397622	704.75
1413.92571	709.5
1414.453742	701.5
1414.981718	704.25
1415.50964	713.0
1416.037506	705.5
1416.565316	702.25
1417.093072	704.5
1417.620772	696.75
1418.148416	699.5
1418.676005	701.25
1419.203539	699.25
1419.731018	701.5
1420.258441	705.5
1420.785809	702.75
1421.313122	703.5
1421.840379	699.5
1422.367582	705.5
1422.894728	700.75
1423.42182	700.5
1423.948856	706.5
1424.475837	702.75
1425.002762	701.5
1425.529633	703.25
1426.056448	705.5
1426.583207	708.0
1427.109912	706.0
1427.636561	701.5
1428.163155	703.5
1428.689694	702.75
1429.216177	702.75
1429.742605	697.75
1430.268978	699.75
1430.795296	706.0
1431.321558	701.0
1431.847765	698.5
1432.373917	703.25
1432.900014	701.75
1433.426056	702.75
1433.952042	704.5
1434.477973	701.0
1435.003849	703.0
1435.529669	703.5
1436.055435	702.75
1436.581145	698.75
1437.1068	705.25
1437.632399	705.0
1438.157944	693.75
1438.683433	700.0
1439.208868	701.75
1439.734247	704.0
1440.25957	701.75
1440.784839	707.25
1441.310053	698.5
1441.835211	699.0
1442.360314	696.5
1442.885362	701.0
1443.410355	698.5
1443.935292	701.75
1444.460175	699.0
1444.985002	698.75
1445.509774	701.5
1446.034491	699.5
1446.559153	699.75
1447.08376	699.5
1447.608312	699.5
1448.132808	703.75
1448.65725	702.5
1449.181636	698.5
1449.705967	698.25
1450.230243	700.25
1450.754464	699.5
1451.27863	700.25
1451.802741	699.0
1452.326797	700.5
1452.850797	696.75
1453.374743	703.5
1453.898633	701.5
1454.422468	702.25
1454.946249	700.5
1455.469974	703.5
1455.993644	704.0
1456.517259	700.25
1457.040819	697.75
1457.564324	703.0
1458.087773	700.75
1458.611168	701.5
1459.134508	696.75
1459.657793	702.25
1460.181022	696.75
1460.704197	700.0
1461.227316	703.0
1461.750381	698.75
1462.27339	700.5
1462.796345	712.75
1463.319244	719.75
1463.842089	701.0
1464.364878	697.5
1464.887613	702.75
1465.410292	701.25
1465.932916	700.5
1466.455486	698.75
1466.978	701.25
1467.50046	699.25
1468.022864	705.0
1468.545214	701.5
1469.067508	696.5
1469.589748	701.5
1470.111932	700.75
1470.634062	695.25
1471.156136	700.25
1471.678156	701.75
1472.20012	697.5
1472.72203	697.75
1473.243885	697.0
1473.765685	699.25
1474.28743	700.5
1474.80912	697.5
1475.330755	698.5
1475.852335	699.75
1476.37386	698.75
1476.89533	699.5
1477.416745	697.75
1477.938106	701.25
1478.459411	701.5
1478.980662	696.75
1479.501857	698.0
1480.022998	702.0
1480.544084	699.5
1481.065115	701.0
1481.586091	699.25
1482.107012	700.0
1482.627878	701.75
1483.14869	703.0
1483.669446	699.0
1484.190148	699.75
1484.710794	701.0
1485.231386	700.25
1485.751923	698.75
1486.272406	699.5
1486.792833	696.25
1487.313205	700.5
1487.833523	695.75
1488.353786	701.0
1488.873994	700.0
1489.394147	699.25
1489.914245	694.25
1490.434288	700.5
1490.954277	698.75
1491.474211	702.5
1491.99409	695.0
1492.513914	698.0
1493.033683	695.0
1493.553398	699.75
1494.073057	702.75
1494.592662	695.75
1495.112212	703.5
1495.631708	696.75
1496.151148	700.5
1496.670534	696.5
1497.189865	701.5
1497.709141	699.5
1498.228362	699.75
1498.747529	699.5
1499.266641	699.75
1499.785698	701.75
1500.3047	702.5
1500.823648	695.0
1501.34254	696.0
1501.861379	700.0
1502.380162	699.5
1502.89889	698.75
1503.417564	703.75
1503.936183	696.5
1504.454748	697.25
1504.973257	699.5
1505.491712	695.5
1506.010112	697.75
1506.528458	694.0
1507.046748	698.0
1507.564984	700.0
1508.083166	701.5
1508.601292	694.25
1509.119364	699.0
1509.637381	695.75
1510.155344	698.75
1510.673252	707.25
1511.191105	699.0
1511.708903	694.5
1512.226647	699.75
1512.744336	700.25
1513.261971	702.75
1513.77955	700.5
1514.297076	694.75
1514.814546	701.5
1515.331962	698.0
1515.849323	699.0
1516.366629	696.0
1516.883881	699.0
1517.401078	699.5
1517.918221	699.25
1518.435309	695.5
1518.952342	698.0
1519.469321	703.0
1519.986245	702.75
1520.503114	695.0
1521.019929	690.5
1521.536689	699.25
1522.053395	695.0
1522.570046	700.75
1523.086642	696.75
1523.603184	698.0
1524.119671	701.75
1524.636103	701.25
1525.152481	694.25
1525.668805	707.0
1526.185073	719.5
1526.701288	703.75
1527.217447	698.5
1527.733552	699.0
1528.249603	698.0
1528.765599	697.5
1529.28154	698.25
1529.797427	696.25
1530.313259	697.75
1530.829037	697.25
1531.34476	698.0
1531.860429	698.25
1532.376043	695.5
1532.891602	698.5
1533.407107	697.25
1533.922558	702.25
1534.437954	694.75
1534.953295	698.5
1535.468582	701.5
1535.983815	698.5
1536.498993	690.75
1537.014116	701.5
1537.529185	701.0
1538.044199	698.75
1538.559159	699.0
1539.074064	697.25
1539.588915	695.5
1540.103712	697.0
1540.618454	698.5
1541.133141	697.0
1541.647774	696.25
1542.162353	697.0
1542.676877	700.0
1543.191346	699.75
1543.705761	699.25
1544.220122	702.5
1544.734428	701.25
1545.24868	697.75
1545.762877	697.5
1546.27702	699.75
1546.791109	699.5
1547.305143	700.25
1547.819122	699.0
1548.333047	698.25
1548.846918	699.75
1549.360734	701.75
1549.874496	699.0
1550.388204	702.75
1550.901857	698.25
1551.415455	698.5
1551.929	702.75
1552.442489	699.5
1552.955925	698.5
1553.469306	701.5
1553.982632	703.25
1554.495905	698.25
1555.009123	701.5
1555.522286	700.25
1556.035395	696.75
1556.54845	698.0
1557.06145	700.25
1557.574396	699.75
1558.087288	698.5
1558.600125	697.5
1559.112908	702.25
1559.625637	697.5
1560.138311	697.0
1560.650931	700.0
1561.163497	702.25
1561.676008	701.25
1562.188465	695.5
1562.700867	701.5
1563.213216	700.25
1563.725509	697.5
1564.237749	696.25
1564.749934	701.5
1565.262065	698.25
1565.774142	701.5
1566.286164	705.75
1566.798132	701.25
1567.310046	698.25
1567.821906	706.0
1568.333711	704.5
1568.845462	699.5
1569.357158	698.75
1569.868801	696.75
1570.380389	700.5
1570.891922	698.0
1571.403402	694.5
1571.914827	699.5
1572.426198	697.25
1572.937515	696.5
1573.448777	701.25
1573.959985	700.75
1574.471139	700.5
1574.982239	696.0
1575.493285	696.75
1576.004276	698.25
1576.515213	700.5
1577.026096	696.0
1577.536924	698.75
1578.047698	699.0
1578.558419	696.75
1579.069084	702.5
1579.579696	700.0
1580.090254	698.5
1580.600757	700.5
1581.111206	699.25
1581.621601	698.0
1582.131941	694.25
1582.642228	695.5
1583.15246	696.0
1583.662638	700.0
1584.172762	696.75
1584.682832	702.0
1585.192847	699.25
1585.702809	698.75
1586.212716	695.5
1586.722569	698.5
1587.232368	701.0
1587.742113	696.25
1588.251803	696.25
1588.76144	698.0
1589.271022	698.25
1589.78055	692.25
1590.290024	698.0
1590.799444	697.5
1591.30881	695.5
1591.818121	700.0
1592.327379	693.5
