1042.980685	788.25
1043.547124	791.5
1044.113505	797.5
1044.679828	791.75
1045.246093	784.5
1045.8123	787.25
1046.378449	792.25
1046.94454	788.75
1047.510573	784.75
1048.076548	780.5
1048.642465	783.5
1049.208325	780.25
1049.774126	777.25
1050.339869	783.5
1050.905555	783.0
1051.471183	775.5
1052.036752	773.0
1052.602264	778.25
1053.167718	768.0
1053.733114	776.0
1054.298452	773.75
1054.863733	771.0
1055.428955	773.0
1055.994119	772.75
1056.559226	771.5
1057.124275	765.0
1057.689266	767.0
1058.254199	768.5
1058.819074	769.0
1059.383891	770.0
1059.94865	768.25
1060.513352	765.75
1061.077996	768.5
1061.642582	766.5
1062.20711	767.5
1062.77158	768.25
1063.335992	763.5
1063.900347	759.75
1064.464643	764.0
1065.028882	765.75
1065.593063	759.0
1066.157187	766.0
1066.721252	770.0
1067.28526	760.75
1067.84921	757.5
1068.413102	766.25
1068.976936	766.5
1069.540713	756.75
1070.104431	769.75
1070.668092	759.0
1071.231696	767.25
1071.795241	760.5
1072.358729	766.25
1072.922159	758.25
1073.485531	763.0
1074.048845	755.5
1074.612102	762.75
1075.175301	761.0
1075.738442	757.0
1076.301525	755.0
1076.864551	767.25
1077.427519	759.25
1077.990429	758.75
1078.553281	758.75
1079.116076	757.0
1079.678813	755.0
1080.241492	755.25
1080.804114	757.25
1081.366678	761.0
1081.929184	748.5
1082.491633	755.75
1083.054024	757.25
1083.616357	755.5
1084.178632	755.0
1084.74085	754.0
1085.30301	757.25
1085.865113	754.5
1086.427158	756.0
1086.989145	755.25
1087.551074	752.75
1088.112946	746.75
1088.67476	754.25
1089.236517	751.75
1089.798216	750.75
1090.359857	747.75
1090.92144	749.25
1091.482966	757.5
1092.044435	753.5
1092.605845	744.75
1093.167199	750.5
1093.728494	746.25
1094.289732	749.75
1094.850912	757.25
1095.412035	760.25
1095.9731	755.75
1096.534107	754.5
1097.095057	763.0
1097.65595	754.75
1098.216784	746.25
1098.777561	749.0
1099.338281	744.75
1099.898943	746.0
1100.459547	742.75
1101.020094	750.0
1101.580584	742.25
1102.141015	745.75
1102.701389	743.5
1103.261706	743.0
1103.821965	747.5
1104.382167	745.75
1104.942311	749.0
1105.502397	743.75
1106.062426	744.5
1106.622398	753.5
1107.182312	743.5
1107.742168	747.0
1108.301967	741.25
1108.861708	745.0
1109.421392	751.25
1109.981019	745.5
1110.540587	743.75
1111.100099	743.0
1111.659553	746.5
1112.218949	745.25
1112.778288	742.75
1113.33757	744.75
1113.896794	745.0
1114.45596	746.0
1115.015069	736.25
1115.574121	742.5
1116.133115	744.25
1116.692052	740.25
1117.250931	749.25
1117.809753	743.5
1118.368517	743.0
1118.927224	740.75
1119.485873	742.75
1120.044465	743.25
1120.603	743.75
1121.161477	743.75
1121.719897	742.5
1122.278259	741.25
1122.836564	737.25
1123.394812	739.75
1123.953002	740.0
1124.511135	743.0
1125.06921	743.75
1125.627228	737.75
1126.185189	742.5
1126.743092	737.5
1127.300938	744.5
1127.858726	738.75
1128.416457	739.25
1128.974131	742.25
1129.531748	742.75
1130.089307	743.75
1130.646808	740.75
1131.204252	737.5
1131.761639	743.5
1132.318969	735.25
1132.876241	733.25
1133.433456	742.0
1133.990614	743.75
1134.547714	737.5
1135.104757	740.5
1135.661743	744.0
1136.218671	740.75
1136.775542	733.75
1137.332356	743.5
1137.889112	741.0
1138.445811	741.5
1139.002453	737.25
1139.559037	738.75
1140.115565	737.75
1140.672035	741.5
1141.228447	736.75
1141.784803	736.25
1142.341101	734.25
1142.897342	743.5
1143.453525	746.5
1144.009651	736.25
1144.565721	738.0
1145.121732	741.75
1145.677687	739.5
1146.233584	737.25
1146.789424	739.75
1147.345207	739.5
1147.900933	737.25
1148.456601	736.5
1149.012212	737.75
1149.567766	745.5
1150.123263	740.25
1150.678702	734.0
1151.234085	734.25
1151.78941	736.75
1152.344678	736.75
1152.899888	740.75
1153.455042	736.25
1154.010138	736.75
1154.565177	733.5
1155.120159	734.75
1155.675084	738.75
1156.229951	739.75
1156.784762	732.75
1157.339515	731.75
1157.894211	734.75
1158.44885	743.0
1159.003432	742.0
1159.557956	734.0
1160.112424	736.0
1160.666834	733.75
1161.221187	739.0
1161.775483	741.75
1162.329722	737.75
1162.883904	736.0
1163.438029	740.5
1163.992096	739.25
1164.546107	730.75
1165.10006	733.5
1165.653956	737.0
1166.207795	735.25
1166.761577	734.5
1167.315302	730.0
1167.86897	736.25
1168.422581	732.5
1168.976134	734.5
1169.529631	733.75
1170.08307	737.25
1170.636453	737.25
1171.189778	736.25
1171.743046	733.25
1172.296257	730.0
1172.849412	733.75
1173.402509	733.25
1173.955549	732.0
1174.508532	736.75
1175.061458	736.0
1175.614327	732.25
1176.167138	736.25
1176.719893	740.75
1177.272591	725.75
1177.825232	732.5
1178.377816	735.5
1178.930342	738.5
1179.482812	736.25
1180.035225	735.75
1180.587581	738.25
1181.139879	731.0
1181.692121	733.0
1182.244306	728.0
1182.796434	727.25
1183.348504	730.0
1183.900518	735.75
1184.452475	734.25
1185.004375	738.0
1185.556218	733.0
1186.108004	730.0
1186.659733	736.5
1187.211405	735.25
1187.76302	734.25
1188.314578	736.75
1188.866079	733.5
1189.417523	732.5
1189.96891	724.75
1190.520241	732.5
1191.071514	737.0
1191.622731	734.5
1192.17389	731.5
1192.724993	729.0
1193.276039	755.25
1193.827027	734.25
1194.377959	730.0
1194.928834	734.5
1195.479653	730.5
1196.030414	729.75
1196.581118	730.25
1197.131766	730.0
1197.682356	732.25
1198.23289	736.25
1198.783367	733.5
1199.333786	729.5
1199.88415	736.25
1200.434456	726.75
1200.984705	729.75
1201.534898	738.5
1202.085033	731.5
1202.635112	730.25
1203.185134	728.75
1203.735099	728.25
1204.285007	733.0
1204.834859	726.75
1205.384653	736.0
1205.934391	732.0
1206.484072	733.75
1207.033696	736.0
1207.583263	729.0
1208.132774	733.0
1208.682228	732.0
1209.231624	732.5
1209.780965	728.25
1210.330248	729.25
1210.879474	725.0
1211.428644	725.0
1211.977757	733.75
1212.526813	730.0
1213.075813	733.0
1213.624755	725.75
1214.173641	733.75
1214.72247	725.75
1215.271242	730.5
1215.819958	732.25
1216.368617	734.25
1216.917219	725.5
1217.465764	726.75
1218.014253	732.25
1218.562685	730.5
1219.11106	733.25
1219.659378	727.5
1220.20764	730.5
1220.755845	729.5
1221.303993	734.25
1221.852085	729.5
1222.400119	730.5
1222.948097	733.75
1223.496019	734.0
1224.043883	731.0
1224.591691	730.5
1225.139443	728.75
1225.687137	729.0
1226.234775	735.25
1226.782357	732.25
1227.329881	728.25
1227.877349	727.5
1228.42476	729.75
1228.972115	727.75
1229.519413	730.5
1230.066654	726.75
1230.613839	725.5
1231.160967	730.75
1231.708038	729.5
1232.255053	726.75
1232.802011	730.75
1233.348912	729.25
1233.895757	733.0
1234.442545	723.25
1234.989277	729.75
1235.535951	727.5
1236.08257	734.75
1236.629131	730.5
1237.175636	732.75
1237.722085	727.0
1238.268477	733.25
1238.814812	726.75
1239.361091	737.0
1239.907313	728.5
1240.453478	729.5
1240.999587	727.0
1241.54564	727.75
1242.091636	727.5
1242.637575	726.25
1243.183457	728.0
1243.729284	732.25
1244.275053	725.5
1244.820766	734.75
1245.366423	728.0
1245.912022	729.25
1246.457566	734.75
1247.003053	734.0
1247.548483	729.0
1248.093857	727.0
1248.639174	728.5
1249.184435	722.25
1249.729639	730.5
1250.274787	730.75
1250.819878	726.0
1251.364912	727.0
1251.909891	728.5
1252.454812	731.0
1252.999677	730.5
1253.544486	731.0
1254.089238	733.0
1254.633934	729.5
1255.178573	727.75
1255.723156	725.0
1256.267682	728.25
1256.812152	727.25
1257.356565	732.0
1257.900922	723.75
1258.445223	724.0
1258.989467	731.25
1259.533654	730.0
1260.077785	742.75
1260.62186	731.75
1261.165878	729.0
1261.70984	728.5
1262.253745	724.25
1262.797594	727.75
1263.341386	725.25
1263.885123	731.25
1264.428802	731.75
1264.972425	730.25
1265.515992	731.0
1266.059503	739.0
1266.602957	734.5
1267.146354	732.0
1267.689696	730.25
1268.23298	730.75
1268.776209	730.0
1269.319381	724.0
1269.862497	723.75
1270.405556	730.25
1270.948559	732.0
1271.491506	721.75
1272.034396	727.75
1272.57723	730.5
1273.120007	726.0
1273.662728	730.25
1274.205393	730.25
1274.748002	724.0
1275.290554	733.0
1275.83305	728.25
1276.375489	726.5
1276.917872	731.25
1277.460199	727.5
1278.00247	728.0
1278.544684	730.0
1279.086842	728.0
1279.628943	723.0
1280.170989	729.75
1280.712978	727.75
1281.25491	731.0
1281.796787	727.0
1282.338607	728.25
1282.880371	732.25
1283.422078	730.25
1283.963729	730.5
1284.505324	731.5
1285.046863	733.5
1285.588345	741.75
1286.129772	794.5
1286.671142	820.25
1287.212455	749.5
1287.753713	737.0
1288.294914	733.5
1288.836059	726.5
1289.377147	723.25
1289.91818	728.5
1290.459156	723.25
1291.000076	728.0
1291.54094	726.25
1292.081747	727.0
1292.622499	728.5
1293.163194	727.75
1293.703833	728.5
1294.244415	730.0
1294.784942	726.75
1295.325412	729.5
1295.865826	727.0
1296.406184	728.75
1296.946486	733.5
1297.486731	733.5
1298.026921	729.0
1298.567054	726.75
1299.107131	723.25
1299.647152	728.0
1300.187116	724.75
1300.727025	730.0
1301.266877	725.75
1301.806673	727.75
1302.346413	726.0
1302.886097	730.5
1303.425725	729.5
1303.965297	725.0
1304.504812	726.5
1305.044272	727.75
1305.583675	723.25
1306.123022	718.25
1306.662313	732.5
1307.201548	726.0
1307.740727	727.75
1308.279849	728.75
1308.818916	728.25
1309.357926	727.25
1309.896881	726.75
1310.435779	734.0
1310.974621	728.0
1311.513407	730.5
1312.052137	725.0
1312.590811	727.5
1313.129429	728.75
1313.667991	736.0
1314.206497	722.5
1314.744946	721.25
1315.28334	730.25
1315.821678	725.75
1316.359959	726.25
1316.898184	724.75
1317.436354	732.0
1317.974467	728.25
1318.512525	727.5
1319.050526	728.0
1319.588471	722.25
1320.12636	724.75
1320.664194	727.0
1321.201971	728.5
1321.739692	726.5
1322.277357	725.25
1322.814967	726.0
1323.35252	726.5
1323.890017	732.25
1324.427458	729.5
1324.964843	720.0
1325.502173	728.5
1326.039446	734.25
1326.576663	726.25
1327.113824	724.0
1327.65093	724.25
1328.187979	720.25
1328.724972	725.25
1329.26191	727.25
1329.798791	728.0
1330.335617	722.25
1330.872386	727.25
1331.4091	727.75
1331.945758	722.75
1332.48236	724.5
1333.018905	722.0
1333.555395	725.75
1334.091829	724.75
1334.628207	732.25
1335.164529	729.75
1335.700796	720.5
1336.237006	730.75
1336.77316	731.25
1337.309259	727.75
1337.845301	728.25
1338.381288	727.5
1338.917219	727.75
1339.453094	728.0
1339.988913	721.0
1340.524676	728.0
1341.060383	727.25
1341.596034	730.5
1342.13163	722.75
1342.66717	722.5
1343.202653	720.5
1343.738081	729.0
1344.273453	730.0
1344.80877	727.75
1345.34403	726.75
1345.879235	724.25
1346.414383	728.0
1346.949476	728.0
1347.484513	731.25
1348.019494	723.25
1348.55442	726.0
1349.089289	724.5
1349.624103	728.0
1350.158861	729.25
1350.693563	728.75
1351.228209	726.5
1351.7628	725.75
1352.297334	732.5
1352.831813	725.0
1353.366236	723.0
1353.900604	726.5
1354.434915	730.5
1354.969171	723.0
1355.503371	727.5
1356.037515	726.75
1356.571604	726.0
1357.105636	726.5
1357.639613	729.75
1358.173535	728.75
1358.7074	728.5
1359.24121	720.25
1359.774964	722.25
1360.308662	722.25
1360.842304	724.25
1361.375891	723.5
1361.909422	728.75
1362.442897	725.0
1362.976317	732.0
1363.50968	725.25
1364.042989	725.75
1364.576241	722.25
1365.109438	724.5
1365.642579	726.0
1366.175664	717.5
1366.708693	729.0
1367.241667	725.5
1367.774585	724.5
1368.307448	728.25
1368.840255	725.0
1369.373006	725.5
1369.905701	722.5
1370.438341	719.5
1370.970925	728.5
1371.503454	725.5
1372.035926	722.75
1372.568344	728.75
1373.100705	725.25
1373.633011	724.5
1374.165261	720.0
1374.697456	723.5
1375.229595	729.75
1375.761678	724.0
1376.293705	730.0
1376.825677	725.5
1377.357594	726.75
1377.889455	729.25
1378.42126	727.25
1378.953009	723.5
1379.484703	729.25
1380.016342	725.25
1380.547924	723.5
1381.079452	726.5
1381.610923	726.0
1382.142339	722.25
1382.673699	725.25
1383.205004	724.75
1383.736253	725.75
1384.267447	726.25
1384.798585	725.25
1385.329668	722.75
1385.860695	730.0
1386.391666	722.0
1386.922582	724.75
1387.453442	725.0
1387.984247	733.25
1388.514996	734.25
1389.04569	793.25
1389.576328	897.5
1390.10691	768.5
1390.637437	728.5
1391.167909	727.0
1391.698325	722.75
1392.228685	727.0
1392.75899	725.0
1393.28924	723.75
1393.819434	726.25
1394.349572	726.25
1394.879655	726.75
1395.409683	725.75
1395.939655	721.5
1396.469571	724.5
1396.999432	723.25
1397.529237	727.0
1398.058987	731.75
1398.588682	727.25
1399.118321	730.5
1399.647905	723.0
1400.177433	722.5
1400.706906	725.5
1401.236323	722.5
1401.765685	720.25
1402.294991	723.75
1402.824242	725.0
1403.353437	727.75
1403.882577	719.5
1404.411662	727.0
1404.940691	727.75
1405.469665	728.25
1405.998583	724.75
1406.527446	722.5
1407.056253	725.25
1407.585005	725.5
1408.113702	726.0
1408.642343	724.0
1409.170929	724.0
1409.69946	727.0
1410.227935	735.5
1410.756354	743.0
1411.284719	733.75
1411.813028	724.25
1412.341281	726.25
1412.869479	726.5
1413.397622	727.0
1413.92571	730.75
1414.453742	726.5
1414.981718	722.5
1415.50964	735.25
1416.037506	724.75
1416.565316	727.5
1417.093072	727.25
1417.620772	730.25
1418.148416	724.5
1418.676005	724.75
1419.203539	725.0
1419.731018	724.25
1420.258441	721.75
1420.785809	726.0
1421.313122	720.0
1421.840379	725.5
1422.367582	722.75
1422.894728	717.25
1423.42182	723.25
1423.948856	725.25
1424.475837	724.75
1425.002762	733.0
1425.529633	723.25
1426.056448	727.25
1426.583207	730.0
1427.109912	726.5
1427.636561	725.5
1428.163155	722.25
1428.689694	722.5
1429.216177	723.25
1429.742605	725.75
1430.268978	726.0
1430.795296	725.5
1431.321558	727.0
1431.847765	726.5
1432.373917	728.25
1432.900014	727.0
1433.426056	723.25
1433.952042	725.25
1434.477973	727.5
1435.003849	721.75
1435.529669	726.25
1436.055435	727.5
1436.581145	726.75
1437.1068	724.5
1437.632399	727.5
1438.157944	725.25
1438.683433	729.75
1439.208868	718.25
1439.734247	725.0
1440.25957	725.25
1440.784839	720.75
1441.310053	722.75
1441.835211	726.25
1442.360314	723.25
1442.885362	724.25
1443.410355	726.0
1443.935292	725.0
1444.460175	729.0
1444.985002	719.0
1445.509774	723.0
1446.034491	721.75
1446.559153	726.75
1447.08376	722.0
1447.608312	721.75
1448.132808	722.5
1448.65725	723.5
1449.181636	720.0
1449.705967	727.75
1450.230243	722.25
1450.754464	722.25
1451.27863	724.75
1451.802741	727.75
1452.326797	726.5
1452.850797	724.75
1453.374743	722.25
1453.898633	725.25
1454.422468	725.25
1454.946249	724.75
1455.469974	728.5
1455.993644	725.75
1456.517259	720.0
1457.040819	721.0
1457.564324	719.5
1458.087773	718.0
1458.611168	723.0
1459.134508	724.5
1459.657793	727.25
1460.181022	725.5
1460.704197	729.0
1461.227316	730.5
1461.750381	728.25
1462.27339	728.0
1462.796345	733.5
1463.319244	732.25
1463.842089	725.5
1464.364878	727.0
1464.887613	724.75
1465.410292	725.0
1465.932916	726.0
1466.455486	725.0
1466.978	723.0
1467.50046	728.75
1468.022864	724.75
1468.545214	724.5
1469.067508	720.25
1469.589748	716.75
1470.111932	725.0
1470.634062	722.0
1471.156136	727.75
1471.678156	723.75
1472.20012	725.0
1472.72203	724.0
1473.243885	722.5
1473.765685	722.5
1474.28743	722.0
1474.80912	724.5
1475.330755	727.5
1475.852335	722.0
1476.37386	721.0
1476.89533	727.5
1477.416745	724.25
1477.938106	717.75
1478.459411	727.0
1478.980662	723.75
1479.501857	726.5
1480.022998	720.75
1480.544084	722.5
1481.065115	722.0
1481.586091	724.0
1482.107012	722.0
1482.627878	722.75
1483.14869	725.0
1483.669446	725.25
1484.190148	722.0
1484.710794	723.5
1485.231386	721.25
1485.751923	719.75
1486.272406	722.75
1486.792833	724.5
1487.313205	726.0
1487.833523	720.25
1488.353786	718.75
1488.873994	720.5
1489.394147	725.0
1489.914245	724.0
1490.434288	720.5
1490.954277	728.0
1491.474211	723.75
1491.99409	724.0
1492.513914	719.25
1493.033683	726.25
1493.553398	722.0
1494.073057	731.0
1494.592662	729.5
1495.112212	726.25
1495.631708	725.5
1496.151148	718.75
1496.670534	724.0
1497.189865	727.0
1497.709141	724.25
1498.228362	718.0
1498.747529	723.5
1499.266641	724.25
1499.785698	726.5
1500.3047	728.5
1500.823648	717.5
1501.34254	723.75
1501.861379	723.0
1502.380162	722.5
1502.89889	723.0
1503.417564	727.75
1503.936183	720.0
1504.454748	727.5
1504.973257	725.0
1505.491712	724.0
1506.010112	723.0
1506.528458	719.0
1507.046748	719.75
1507.564984	719.5
1508.083166	720.75
1508.601292	722.5
1509.119364	723.25
1509.637381	718.25
1510.155344	719.75
1510.673252	732.75
1511.191105	720.75
1511.708903	724.0
1512.226647	728.0
1512.744336	722.75
1513.261971	717.5
1513.77955	721.75
1514.297076	719.5
1514.814546	723.0
1515.331962	719.0
1515.849323	725.25
1516.366629	723.75
1516.883881	722.0
1517.401078	719.0
1517.918221	721.25
1518.435309	720.25
1518.952342	714.0
1519.469321	723.75
1519.986245	718.25
1520.503114	726.5
1521.019929	721.0
1521.536689	720.75
1522.053395	723.0
1522.570046	717.25
1523.086642	719.0
1523.603184	723.0
1524.119671	724.25
1524.636103	722.25
1525.152481	721.5
1525.668805	732.25
1526.185073	731.0
1526.701288	724.75
1527.217447	723.25
1527.733552	724.0
1528.249603	726.25
1528.765599	715.5
1529.28154	720.25
1529.797427	721.75
1530.313259	722.0
1530.829037	721.5
1531.34476	722.5
1531.860429	724.0
1532.376043	719.25
1532.891602	724.0
1533.407107	720.25
1533.922558	723.75
1534.437954	722.25
1534.953295	723.5
1535.468582	724.75
1535.983815	728.75
1536.498993	722.5
1537.014116	720.25
1537.529185	717.5
1538.044199	719.5
1538.559159	723.75
1539.074064	720.25
1539.588915	723.75
1540.103712	719.5
1540.618454	724.25
1541.133141	721.5
1541.647774	721.5
1542.162353	721.5
1542.676877	722.0
1543.191346	719.5
1543.705761	726.75
1544.220122	727.5
1544.734428	715.5
1545.24868	724.5
1545.762877	724.75
1546.27702	719.5
1546.791109	723.0
1547.305143	722.0
1547.819122	723.25
1548.333047	721.5
1548.846918	721.75
1549.360734	726.25
1549.874496	723.75
1550.388204	720.5
1550.901857	722.75
1551.415455	718.5
1551.929	720.0
1552.442489	722.25
1552.955925	729.25
1553.469306	721.25
1553.982632	722.5
1554.495905	721.25
1555.009123	718.5
1555.522286	723.5
1556.035395	720.5
1556.54845	719.75
1557.06145	721.75
1557.574396	724.75
1558.087288	721.0
1558.600125	724.25
1559.112908	721.5
1559.625637	720.75
1560.138311	724.25
1560.650931	722.25
1561.163497	722.75
1561.676008	718.0
1562.188465	723.5
1562.700867	720.75
1563.213216	724.5
1563.725509	728.0
1564.237749	722.25
1564.749934	719.0
1565.262065	725.25
1565.774142	724.75
1566.286164	722.0
1566.798132	721.25
1567.310046	721.25
1567.821906	714.5
1568.333711	722.25
1568.845462	715.0
1569.357158	720.75
1569.868801	721.25
1570.380389	720.0
1570.891922	724.75
1571.403402	724.25
1571.914827	721.0
1572.426198	720.5
1572.937515	721.25
1573.448777	723.25
1573.959985	720.25
1574.471139	722.0
1574.982239	721.25
1575.493285	722.5
1576.004276	715.75
1576.515213	721.25
1577.026096	720.75
1577.536924	724.0
1578.047698	724.25
1578.558419	723.0
1579.069084	723.5
1579.579696	720.25
1580.090254	723.0
1580.600757	717.25
1581.111206	723.0
1581.621601	721.75
1582.131941	724.0
1582.642228	727.25
1583.15246	727.75
1583.662638	721.0
1584.172762	720.0
1584.682832	720.5
1585.192847	723.75
1585.702809	718.25
1586.212716	718.75
1586.722569	720.75
1587.232368	725.0
1587.742113	721.0
1588.251803	721.25
1588.76144	724.25
1589.271022	722.5
1589.78055	718.5
1590.290024	720.75
1590.799444	721.75
1591.30881	725.0
1591.818121	723.0
1592.327379	718.0
