1042.980685	779.0
1043.547124	774.0
1044.113505	776.5
1044.679828	782.25
1045.246093	779.75
1045.8123	768.75
1046.378449	774.0
1046.94454	778.5
1047.510573	770.25
1048.076548	778.0
1048.642465	769.0
1049.208325	773.75
1049.774126	766.5
1050.339869	763.25
1050.905555	761.25
1051.471183	761.0
1052.036752	765.5
1052.602264	763.0
1053.167718	762.5
1053.733114	767.0
1054.298452	761.25
1054.863733	762.5
1055.428955	759.75
1055.994119	755.0
1056.559226	758.0
1057.124275	765.0
1057.689266	753.75
1058.254199	755.0
1058.819074	759.0
1059.383891	755.75
1059.94865	751.75
1060.513352	758.0
1061.077996	752.25
1061.642582	754.75
1062.20711	747.0
1062.77158	751.75
1063.335992	754.75
1063.900347	750.5
1064.464643	751.25
1065.028882	744.5
1065.593063	750.25
1066.157187	750.25
1066.721252	754.0
1067.28526	753.0
1067.84921	748.25
1068.413102	749.75
1068.976936	749.5
1069.540713	751.0
1070.104431	749.5
1070.668092	749.0
1071.231696	742.5
1071.795241	752.5
1072.358729	752.0
1072.922159	750.75
1073.485531	744.25
1074.048845	750.0
1074.612102	742.0
1075.175301	747.0
1075.738442	750.5
1076.301525	751.0
1076.864551	747.5
1077.427519	741.0
1077.990429	745.75
1078.553281	751.75
1079.116076	745.5
1079.678813	742.25
1080.241492	742.0
1080.804114	743.5
1081.366678	742.5
1081.929184	742.0
1082.491633	747.25
1083.054024	740.25
1083.616357	748.5
1084.178632	742.0
1084.74085	738.5
1085.30301	744.0
1085.865113	740.75
1086.427158	744.75
1086.989145	740.75
1087.551074	743.0
1088.112946	742.0
1088.67476	737.25
1089.236517	742.25
1089.798216	741.0
1090.359857	736.75
1090.92144	742.0
1091.482966	740.5
1092.044435	736.0
1092.605845	744.5
1093.167199	738.25
1093.728494	738.75
1094.289732	745.0
1094.850912	737.25
1095.412035	741.25
1095.9731	739.5
1096.534107	741.0
1097.095057	744.0
1097.65595	734.5
1098.216784	737.0
1098.777561	738.5
1099.338281	733.5
1099.898943	740.75
1100.459547	737.25
1101.020094	739.5
1101.580584	731.75
1102.141015	729.0
1102.701389	734.25
1103.261706	731.75
1103.821965	737.25
1104.382167	734.75
1104.942311	739.5
1105.502397	736.25
1106.062426	739.0
1106.622398	739.75
1107.182312	733.75
1107.742168	733.25
1108.301967	736.0
1108.861708	733.25
1109.421392	731.0
1109.981019	729.0
1110.540587	732.25
1111.100099	737.25
1111.659553	731.0
1112.218949	732.5
1112.778288	732.5
1113.33757	731.25
1113.896794	730.25
1114.45596	732.75
1115.015069	730.25
1115.574121	733.75
1116.133115	732.5
1116.692052	733.0
1117.250931	730.25
1117.809753	735.75
1118.368517	729.75
1118.927224	729.25
1119.485873	729.5
1120.044465	727.25
1120.603	729.0
1121.161477	723.0
1121.719897	729.75
1122.278259	721.75
1122.836564	732.5
1123.394812	722.5
1123.953002	728.0
1124.511135	728.25
1125.06921	731.0
1125.627228	730.0
1126.185189	727.0
1126.743092	730.25
1127.300938	722.0
1127.858726	725.75
1128.416457	731.0
1128.974131	728.25
1129.531748	726.75
1130.089307	726.0
1130.646808	725.25
1131.204252	725.25
1131.761639	729.25
1132.318969	726.25
1132.876241	724.75
1133.433456	728.5
1133.990614	722.5
1134.547714	723.75
1135.104757	726.25
1135.661743	724.75
1136.218671	728.75
1136.775542	728.75
1137.332356	728.0
1137.889112	726.75
1138.445811	726.5
1139.002453	730.25
1139.559037	726.0
1140.115565	730.25
1140.672035	727.75
1141.228447	725.25
1141.784803	725.25
1142.341101	732.0
1142.897342	726.25
1143.453525	725.25
1144.009651	727.0
1144.565721	729.25
1145.121732	729.0
1145.677687	720.25
1146.233584	721.25
1146.789424	726.5
1147.345207	722.25
1147.900933	730.75
1148.456601	719.75
1149.012212	727.25
1149.567766	733.25
1150.123263	722.5
1150.678702	724.75
1151.234085	723.75
1151.78941	724.25
1152.344678	725.75
1152.899888	725.5
1153.455042	722.25
1154.010138	732.25
1154.565177	726.0
1155.120159	727.75
1155.675084	722.75
1156.229951	729.5
1156.784762	728.25
1157.339515	724.25
1157.894211	723.5
1158.44885	730.25
1159.003432	726.5
1159.557956	726.0
1160.112424	722.25
1160.666834	728.75
1161.221187	720.5
1161.775483	724.75
1162.329722	726.75
1162.883904	727.75
1163.438029	723.75
1163.992096	725.0
1164.546107	724.0
1165.10006	719.5
1165.653956	721.25
1166.207795	726.0
1166.761577	720.75
1167.315302	721.25
1167.86897	723.0
1168.422581	723.5
1168.976134	722.25
1169.529631	725.0
1170.08307	727.75
1170.636453	725.25
1171.189778	728.5
1171.743046	727.5
1172.296257	722.25
1172.849412	720.25
1173.402509	719.25
1173.955549	716.75
1174.508532	725.25
1175.061458	727.25
1175.614327	724.75
1176.167138	718.75
1176.719893	722.0
1177.272591	722.75
1177.825232	719.5
1178.377816	722.5
1178.930342	722.0
1179.482812	722.75
1180.035225	722.25
1180.587581	722.0
1181.139879	720.75
1181.692121	724.0
1182.244306	726.0
1182.796434	724.5
1183.348504	719.25
1183.900518	725.0
1184.452475	725.0
1185.004375	721.75
1185.556218	722.75
1186.108004	719.75
1186.659733	723.0
1187.211405	720.0
1187.76302	720.0
1188.314578	721.0
1188.866079	719.75
1189.417523	721.75
1189.96891	720.75
1190.520241	719.75
1191.071514	722.75
1191.622731	720.0
1192.17389	720.25
1192.724993	720.5
1193.276039	738.25
1193.827027	722.25
1194.377959	719.75
1194.928834	717.25
1195.479653	720.75
1196.030414	722.25
1196.581118	720.75
1197.131766	715.25
1197.682356	713.75
1198.23289	719.75
1198.783367	719.75
1199.333786	722.0
1199.88415	717.5
1200.434456	724.25
1200.984705	723.75
1201.534898	724.25
1202.085033	717.5
1202.635112	719.0
1203.185134	721.75
1203.735099	720.0
1204.285007	718.5
1204.834859	722.25
1205.384653	720.0
1205.934391	722.0
1206.484072	719.75
1207.033696	717.0
1207.583263	722.25
1208.132774	719.0
1208.682228	720.0
1209.231624	718.25
1209.780965	715.25
1210.330248	718.5
1210.879474	719.75
1211.428644	715.25
1211.977757	722.0
1212.526813	723.0
1213.075813	720.75
1213.624755	722.0
1214.173641	723.5
1214.72247	721.0
1215.271242	719.0
1215.819958	721.75
1216.368617	719.25
1216.917219	718.25
1217.465764	717.25
1218.014253	720.0
1218.562685	719.75
1219.11106	718.0
1219.659378	717.75
1220.20764	720.0
1220.755845	725.5
1221.303993	718.5
1221.852085	716.75
1222.400119	712.75
1222.948097	718.0
1223.496019	717.25
1224.043883	716.75
1224.591691	724.5
1225.139443	719.0
1225.687137	714.0
1226.234775	715.25
1226.782357	717.0
1227.329881	721.5
1227.877349	717.25
1228.42476	724.0
1228.972115	716.5
1229.519413	717.25
1230.066654	718.25
1230.613839	725.0
1231.160967	715.25
1231.708038	718.25
1232.255053	726.0
1232.802011	719.75
1233.348912	714.75
1233.895757	715.0
1234.442545	718.25
1234.989277	717.5
1235.535951	716.0
1236.08257	715.25
1236.629131	714.0
1237.175636	718.75
1237.722085	715.25
1238.268477	718.25
1238.814812	713.75
1239.361091	717.5
1239.907313	715.25
1240.453478	721.5
1240.999587	723.75
1241.54564	718.5
1242.091636	717.25
1242.637575	716.25
1243.183457	713.25
1243.729284	719.5
1244.275053	717.25
1244.820766	721.5
1245.366423	721.0
1245.912022	715.25
1246.457566	719.0
1247.003053	716.0
1247.548483	717.5
1248.093857	717.5
1248.639174	720.5
1249.184435	717.5
1249.729639	719.75
1250.274787	724.75
1250.819878	713.25
1251.364912	714.25
1251.909891	717.0
1252.454812	717.0
1252.999677	721.25
1253.544486	715.75
1254.089238	716.75
1254.633934	717.5
1255.178573	719.25
1255.723156	716.75
1256.267682	720.25
1256.812152	722.75
1257.356565	718.75
1257.900922	719.0
1258.445223	720.0
1258.989467	717.0
1259.533654	717.5
1260.077785	731.5
1260.62186	713.25
1261.165878	717.75
1261.70984	719.25
1262.253745	717.0
1262.797594	719.5
1263.341386	720.75
1263.885123	715.25
1264.428802	721.5
1264.972425	715.75
1265.515992	724.5
1266.059503	731.5
1266.602957	728.0
1267.146354	714.0
1267.689696	716.5
1268.23298	719.0
1268.776209	714.75
1269.319381	712.0
1269.862497	721.5
1270.405556	718.5
1270.948559	717.25
1271.491506	723.5
1272.034396	716.75
1272.57723	720.25
1273.120007	720.5
1273.662728	721.0
1274.205393	719.0
1274.748002	715.75
1275.290554	719.25
1275.83305	718.0
1276.375489	720.25
1276.917872	719.25
1277.460199	713.0
1278.00247	716.0
1278.544684	717.75
1279.086842	713.25
1279.628943	718.75
1280.170989	717.25
1280.712978	717.0
1281.25491	715.5
1281.796787	717.0
1282.338607	715.5
1282.880371	720.5
1283.422078	719.25
1283.963729	721.75
1284.505324	716.5
1285.046863	718.0
1285.588345	725.5
1286.129772	783.5
1286.671142	820.0
1287.212455	742.5
1287.753713	722.5
1288.294914	718.5
1288.836059	723.0
1289.377147	721.5
1289.91818	718.0
1290.459156	716.5
1291.000076	721.0
1291.54094	719.5
1292.081747	717.0
1292.622499	711.5
1293.163194	720.75
1293.703833	714.5
1294.244415	720.25
1294.784942	717.75
1295.325412	709.75
1295.865826	712.75
1296.406184	712.25
1296.946486	718.5
1297.486731	717.5
1298.026921	716.25
1298.567054	715.5
1299.107131	716.0
1299.647152	717.75
1300.187116	717.0
1300.727025	718.75
1301.266877	714.5
1301.806673	712.5
1302.346413	720.0
1302.886097	716.0
1303.425725	718.75
1303.965297	717.0
1304.504812	713.5
1305.044272	712.5
1305.583675	712.0
1306.123022	718.0
1306.662313	718.25
1307.201548	714.25
1307.740727	719.25
1308.279849	719.25
1308.818916	715.75
1309.357926	713.25
1309.896881	716.75
1310.435779	710.0
1310.974621	718.25
1311.513407	716.75
1312.052137	713.75
1312.590811	719.75
1313.129429	712.5
1313.667991	717.25
1314.206497	717.0
1314.744946	717.25
1315.28334	717.0
1315.821678	716.5
1316.359959	716.5
1316.898184	714.5
1317.436354	715.5
1317.974467	714.5
1318.512525	718.0
1319.050526	715.25
1319.588471	716.0
1320.12636	713.75
1320.664194	714.25
1321.201971	718.25
1321.739692	721.0
1322.277357	721.0
1322.814967	720.75
1323.35252	721.75
1323.890017	719.25
1324.427458	719.0
1324.964843	717.0
1325.502173	712.75
1326.039446	714.5
1326.576663	717.75
1327.113824	717.0
1327.65093	717.5
1328.187979	720.25
1328.724972	710.5
1329.26191	715.75
1329.798791	716.0
1330.335617	715.75
1330.872386	716.0
1331.4091	717.5
1331.945758	717.5
1332.48236	718.0
1333.018905	718.25
1333.555395	715.5
1334.091829	717.75
1334.628207	718.0
1335.164529	713.0
1335.700796	714.25
1336.237006	716.25
1336.77316	716.0
1337.309259	718.25
1337.845301	717.75
1338.381288	718.5
1338.917219	712.25
1339.453094	714.75
1339.988913	713.25
1340.524676	718.5
1341.060383	715.75
1341.596034	715.5
1342.13163	717.75
1342.66717	722.75
1343.202653	713.5
1343.738081	719.0
1344.273453	714.5
1344.80877	717.5
1345.34403	712.25
1345.879235	721.25
1346.414383	717.0
1346.949476	715.0
1347.484513	715.5
1348.019494	713.5
1348.55442	715.25
1349.089289	716.0
1349.624103	718.25
1350.158861	713.75
1350.693563	714.0
1351.228209	714.5
1351.7628	712.75
1352.297334	713.75
1352.831813	716.75
1353.366236	711.75
1353.900604	716.25
1354.434915	716.25
1354.969171	712.75
1355.503371	714.0
1356.037515	716.75
1356.571604	711.5
1357.105636	714.5
1357.639613	718.25
1358.173535	713.5
1358.7074	712.75
1359.24121	717.25
1359.774964	716.25
1360.308662	720.25
1360.842304	715.75
1361.375891	717.75
1361.909422	720.75
1362.442897	715.5
1362.976317	713.0
1363.50968	718.0
1364.042989	716.25
1364.576241	714.25
1365.109438	713.0
1365.642579	717.5
1366.175664	712.75
1366.708693	719.75
1367.241667	717.75
1367.774585	714.25
1368.307448	715.25
1368.840255	715.0
1369.373006	711.5
1369.905701	720.75
1370.438341	717.0
1370.970925	716.0
1371.503454	719.75
1372.035926	715.75
1372.568344	712.75
1373.100705	715.5
1373.633011	718.5
1374.165261	716.25
1374.697456	714.75
1375.229595	714.0
1375.761678	715.0
1376.293705	712.0
1376.825677	713.0
1377.357594	718.75
1377.889455	714.0
1378.42126	707.5
1378.953009	712.25
1379.484703	713.75
1380.016342	717.25
1380.547924	718.5
1381.079452	714.75
1381.610923	715.5
1382.142339	714.0
1382.673699	713.0
1383.205004	712.0
1383.736253	719.0
1384.267447	714.25
1384.798585	712.5
1385.329668	716.25
1385.860695	717.5
1386.391666	716.0
1386.922582	720.25
1387.453442	717.75
1387.984247	715.25
1388.514996	723.0
1389.04569	785.75
1389.576328	894.0
1390.10691	761.25
1390.637437	720.0
1391.167909	719.25
1391.698325	716.0
1392.228685	712.75
1392.75899	715.75
1393.28924	714.5
1393.819434	717.25
1394.349572	714.25
1394.879655	709.75
1395.409683	714.25
1395.939655	716.75
1396.469571	712.75
1396.999432	714.25
1397.529237	715.0
1398.058987	712.5
1398.588682	715.0
1399.118321	714.5
1399.647905	718.0
1400.177433	713.5
1400.706906	715.0
1401.236323	710.75
1401.765685	714.75
1402.294991	714.25
1402.824242	717.0
1403.353437	712.5
1403.882577	717.25
1404.411662	716.75
1404.940691	718.0
1405.469665	719.0
1405.998583	712.75
1406.527446	712.25
1407.056253	715.5
1407.585005	716.25
1408.113702	716.75
1408.642343	710.75
1409.170929	708.0
1409.69946	719.5
1410.227935	721.75
1410.756354	731.25
1411.284719	726.25
1411.813028	717.5
1412.341281	715.25
1412.869479	715.0
1413.397622	714.75
1413.92571	712.5
1414.453742	717.0
1414.981718	710.0
1415.50964	732.5
1416.037506	716.75
1416.565316	714.5
1417.093072	715.5
1417.620772	716.0
1418.148416	713.75
1418.676005	722.25
1419.203539	715.75
1419.731018	712.5
1420.258441	715.25
1420.785809	716.5
1421.313122	715.0
1421.840379	717.25
1422.367582	720.5
1422.894728	710.25
1423.42182	713.0
1423.948856	716.25
1424.475837	713.5
1425.002762	714.5
1425.529633	710.0
1426.056448	711.5
1426.583207	719.5
1427.109912	721.0
1427.636561	716.5
1428.163155	715.0
1428.689694	712.25
1429.216177	717.75
1429.742605	712.0
1430.268978	716.0
1430.795296	712.5
1431.321558	713.75
1431.847765	711.75
1432.373917	720.75
1432.900014	715.0
1433.426056	713.25
1433.952042	714.25
1434.477973	712.25
1435.003849	714.75
1435.529669	713.5
1436.055435	713.0
1436.581145	712.0
1437.1068	711.25
1437.632399	713.25
1438.157944	718.25
1438.683433	715.75
1439.208868	711.0
1439.734247	716.0
1440.25957	712.5
1440.784839	717.0
1441.310053	712.25
1441.835211	714.5
1442.360314	715.75
1442.885362	717.75
1443.410355	714.5
1443.935292	711.0
1444.460175	715.75
1444.985002	718.5
1445.509774	713.75
1446.034491	718.0
1446.559153	717.75
1447.08376	714.0
1447.608312	713.75
1448.132808	718.0
1448.65725	714.75
1449.181636	712.0
1449.705967	714.5
1450.230243	714.75
1450.754464	712.5
1451.27863	718.0
1451.802741	716.25
1452.326797	711.5
1452.850797	717.0
1453.374743	711.75
1453.898633	710.75
1454.422468	716.25
1454.946249	715.0
1455.469974	712.0
1455.993644	709.5
1456.517259	712.0
1457.040819	710.25
1457.564324	718.5
1458.087773	709.75
1458.611168	714.5
1459.134508	710.25
1459.657793	718.0
1460.181022	721.25
1460.704197	711.75
1461.227316	717.25
1461.750381	718.75
1462.27339	716.25
1462.796345	721.0
1463.319244	722.25
1463.842089	716.25
1464.364878	710.25
1464.887613	711.5
1465.410292	712.0
1465.932916	715.5
1466.455486	713.75
1466.978	716.25
1467.50046	712.75
1468.022864	715.0
1468.545214	710.75
1469.067508	717.25
1469.589748	712.25
1470.111932	714.5
1470.634062	716.5
1471.156136	718.5
1471.678156	712.75
1472.20012	717.25
1472.72203	712.75
1473.243885	719.75
1473.765685	713.75
1474.28743	713.0
1474.80912	709.75
1475.330755	712.0
1475.852335	718.25
1476.37386	712.75
1476.89533	715.5
1477.416745	712.0
1477.938106	718.5
1478.459411	710.75
1478.980662	715.75
1479.501857	713.0
1480.022998	714.25
1480.544084	718.0
1481.065115	713.0
1481.586091	712.25
1482.107012	717.0
1482.627878	706.75
1483.14869	712.75
1483.669446	714.5
1484.190148	712.75
1484.710794	718.75
1485.231386	716.5
1485.751923	713.75
1486.272406	711.0
1486.792833	712.25
1487.313205	714.75
1487.833523	709.75
1488.353786	715.0
1488.873994	713.0
1489.394147	713.5
1489.914245	714.75
1490.434288	711.5
1490.954277	710.0
1491.474211	712.0
1491.99409	713.25
1492.513914	713.0
1493.033683	714.75
1493.553398	710.5
1494.073057	715.25
1494.592662	719.0
1495.112212	716.25
1495.631708	714.75
1496.151148	714.75
1496.670534	718.0
1497.189865	710.0
1497.709141	716.75
1498.228362	714.5
1498.747529	712.25
1499.266641	713.25
1499.785698	720.0
1500.3047	709.5
1500.823648	712.75
1501.34254	710.5
1501.861379	713.5
1502.380162	712.75
1502.89889	712.75
1503.417564	712.5
1503.936183	709.0
1504.454748	712.0
1504.973257	716.25
1505.491712	709.75
1506.010112	714.75
1506.528458	710.25
1507.046748	709.75
1507.564984	712.0
1508.083166	708.75
1508.601292	712.0
1509.119364	711.25
1509.637381	713.5
1510.155344	716.0
1510.673252	721.75
1511.191105	709.75
1511.708903	713.25
1512.226647	712.75
1512.744336	713.5
1513.261971	714.5
1513.77955	709.25
1514.297076	714.25
1514.814546	712.0
1515.331962	713.75
1515.849323	714.75
1516.366629	712.5
1516.883881	708.0
1517.401078	712.75
1517.918221	710.75
1518.435309	714.25
1518.952342	705.5
1519.469321	716.0
1519.986245	713.75
1520.503114	712.25
1521.019929	708.75
1521.536689	712.75
1522.053395	714.75
1522.570046	707.75
1523.086642	711.25
1523.603184	710.0
1524.119671	711.75
1524.636103	712.75
1525.152481	716.25
1525.668805	719.75
1526.185073	722.75
1526.701288	709.5
1527.217447	712.25
1527.733552	712.5
1528.249603	708.75
1528.765599	712.5
1529.28154	712.0
1529.797427	713.75
1530.313259	715.5
1530.829037	709.5
1531.34476	714.5
1531.860429	717.0
1532.376043	711.75
1532.891602	713.75
1533.407107	711.5
1533.922558	717.25
1534.437954	712.75
1534.953295	709.25
1535.468582	711.0
1535.983815	710.5
1536.498993	712.25
1537.014116	712.75
1537.529185	714.5
1538.044199	713.0
1538.559159	710.25
1539.074064	706.75
1539.588915	716.75
1540.103712	710.75
1540.618454	716.25
1541.133141	707.75
1541.647774	713.5
1542.162353	709.75
1542.676877	712.0
1543.191346	716.25
1543.705761	713.25
1544.220122	714.25
1544.734428	713.5
1545.24868	711.5
1545.762877	709.25
1546.27702	715.5
1546.791109	711.75
1547.305143	717.5
1547.819122	712.5
1548.333047	712.25
1548.846918	711.25
1549.360734	713.25
1549.874496	712.0
1550.388204	712.25
1550.901857	714.75
1551.415455	709.25
1551.929	714.75
1552.442489	709.25
1552.955925	716.5
1553.469306	715.75
1553.982632	711.25
1554.495905	711.5
1555.009123	713.0
1555.522286	712.5
1556.035395	719.0
1556.54845	712.5
1557.06145	713.5
1557.574396	713.25
1558.087288	712.75
1558.600125	712.75
1559.112908	712.0
1559.625637	716.5
1560.138311	710.25
1560.650931	710.25
1561.163497	712.5
1561.676008	709.75
1562.188465	707.75
1562.700867	710.5
1563.213216	712.5
1563.725509	711.0
1564.237749	714.25
1564.749934	708.25
1565.262065	711.25
1565.774142	713.25
1566.286164	720.0
1566.798132	713.75
1567.310046	714.25
1567.821906	715.25
1568.333711	717.5
1568.845462	712.0
1569.357158	711.5
1569.868801	716.25
1570.380389	714.25
1570.891922	712.0
1571.403402	719.0
1571.914827	713.75
1572.426198	712.25
1572.937515	715.25
1573.448777	711.25
1573.959985	708.0
1574.471139	708.75
1574.982239	712.25
1575.493285	711.25
1576.004276	713.0
1576.515213	710.75
1577.026096	708.0
1577.536924	708.0
1578.047698	716.5
1578.558419	712.75
1579.069084	710.75
1579.579696	715.75
1580.090254	713.5
1580.600757	711.0
1581.111206	709.0
1581.621601	716.5
1582.131941	712.25
1582.642228	712.5
1583.15246	712.5
1583.662638	714.25
1584.172762	711.75
1584.682832	713.75
1585.192847	711.75
1585.702809	711.75
1586.212716	712.5
1586.722569	715.0
1587.232368	708.75
1587.742113	709.5
1588.251803	714.0
1588.76144	711.0
1589.271022	706.5
1589.78055	711.25
1590.290024	717.0
1590.799444	715.75
1591.30881	713.0
1591.818121	710.25
1592.327379	711.25
