1042.414189	673.2000122
1042.980685	670.7999878
1043.547124	675.0
1044.113505	674.4000244
1044.679828	673.5999756
1045.246093	672.7999878
1045.8123	672.5999756
1046.378449	671.2000122
1046.94454	668.5999756
1047.510573	670.0
1048.076548	670.5999756
1048.642465	670.2000122
1049.208325	669.7999878
1049.774126	667.4000244
1050.339869	670.0
1050.905555	668.5999756
1051.471183	669.5999756
1052.036752	667.2000122
1052.602264	668.2000122
1053.167718	666.7999878
1053.733114	666.5999756
1054.298452	669.2000122
1054.863733	667.4000244
1055.428955	667.0
1055.994119	667.0
1056.559226	666.2000122
1057.124275	668.2000122
1057.689266	666.4000244
1058.254199	666.4000244
1058.819074	669.2000122
1059.383891	667.4000244
1059.94865	665.5999756
1060.513352	667.5999756
1061.077996	667.0
1061.642582	665.4000244
1062.20711	666.2000122
1062.77158	666.2000122
1063.335992	668.2000122
1063.900347	665.2000122
1064.464643	667.4000244
1065.028882	665.0
1065.593063	665.5999756
1066.157187	666.2000122
1066.721252	663.5999756
1067.28526	665.4000244
1067.84921	666.5999756
1068.413102	667.0
1068.976936	668.0
1069.540713	663.7999878
1070.104431	671.5999756
1070.668092	667.2000122
1071.231696	664.0
1071.795241	667.7999878
1072.358729	665.7999878
1072.922159	666.5999756
1073.485531	664.4000244
1074.048845	668.7999878
1074.612102	666.5999756
1075.175301	664.7999878
1075.738442	664.5999756
1076.301525	665.4000244
1076.864551	666.7999878
1077.427519	667.2000122
1077.990429	664.4000244
1078.553281	668.7999878
1079.116076	663.2000122
1079.678813	666.4000244
1080.241492	662.0
1080.804114	666.4000244
1081.366678	665.0
1081.929184	664.7999878
1082.491633	666.2000122
1083.054024	665.7999878
1083.616357	669.7999878
1084.178632	665.0
1084.74085	665.2000122
1085.30301	664.0
1085.865113	664.0
1086.427158	665.5999756
1086.989145	665.2000122
1087.551074	664.2000122
1088.112946	665.4000244
1088.67476	666.5999756
1089.236517	664.4000244
1089.798216	663.5999756
1090.359857	666.7999878
1090.92144	664.7999878
1091.482966	664.0
1092.044435	663.4000244
1092.605845	668.2000122
1093.167199	667.0
1093.728494	665.0
1094.289732	667.7999878
1094.850912	663.7999878
1095.412035	676.7999878
1095.9731	664.5999756
1096.534107	666.5999756
1097.095057	669.7999878
1097.65595	662.5999756
1098.216784	666.2000122
1098.777561	665.4000244
1099.338281	666.5999756
1099.898943	668.5999756
1100.459547	665.5999756
1101.020094	665.0
1101.580584	667.0
1102.141015	667.0
1102.701389	665.4000244
1103.261706	667.0
1103.821965	665.7999878
1104.382167	664.0
1104.942311	662.4000244
1105.502397	665.0
1106.062426	667.4000244
1106.622398	665.2000122
1107.182312	664.7999878
1107.742168	666.4000244
1108.301967	664.4000244
1108.861708	663.7999878
1109.421392	665.0
1109.981019	665.4000244
1110.540587	665.7999878
1111.100099	665.2000122
1111.659553	667.0
1112.218949	666.2000122
1112.778288	664.5999756
1113.33757	667.4000244
1113.896794	664.2000122
1114.45596	666.4000244
1115.015069	664.7999878
1115.574121	663.4000244
1116.133115	663.5999756
1116.692052	665.2000122
1117.250931	666.0
1117.809753	663.4000244
1118.368517	663.4000244
1118.927224	666.2000122
1119.485873	664.7999878
1120.044465	665.0
1120.603	665.2000122
1121.161477	665.7999878
1121.719897	666.2000122
1122.278259	665.4000244
1122.836564	665.4000244
1123.394812	667.4000244
1123.953002	666.2000122
1124.511135	664.2000122
1125.06921	666.4000244
1125.627228	667.0
1126.185189	664.5999756
1126.743092	662.5999756
1127.300938	663.2000122
1127.858726	667.0
1128.416457	665.7999878
1128.974131	662.7999878
1129.531748	664.0
1130.089307	666.0
1130.646808	667.0
1131.204252	664.7999878
1131.761639	662.0
1132.318969	667.7999878
1132.876241	663.7999878
1133.433456	667.2000122
1133.990614	665.7999878
1134.547714	664.2000122
1135.104757	666.2000122
1135.661743	665.4000244
1136.218671	666.0
1136.775542	666.4000244
1137.332356	665.7999878
1137.889112	664.0
1138.445811	666.4000244
1139.002453	667.0
1139.559037	665.0
1140.115565	663.2000122
1140.672035	664.0
1141.228447	664.2000122
1141.784803	664.5999756
1142.341101	665.0
1142.897342	664.2000122
1143.453525	664.5999756
1144.009651	665.2000122
1144.565721	667.2000122
1145.121732	664.4000244
1145.677687	665.2000122
1146.233584	667.2000122
1146.789424	667.2000122
1147.345207	667.4000244
1147.900933	666.7999878
1148.456601	666.5999756
1149.012212	664.7999878
1149.567766	664.4000244
1150.123263	662.4000244
1150.678702	668.4000244
1151.234085	665.5999756
1151.78941	665.5999756
1152.344678	663.7999878
1152.899888	664.2000122
1153.455042	665.5999756
1154.010138	665.2000122
1154.565177	666.5999756
1155.120159	666.7999878
1155.675084	666.0
1156.229951	668.5999756
1156.784762	666.2000122
1157.339515	665.4000244
1157.894211	664.2000122
1158.44885	666.0
1159.003432	664.0
1159.557956	665.0
1160.112424	667.5999756
1160.666834	665.2000122
1161.221187	666.4000244
1161.775483	665.4000244
1162.329722	668.2000122
1162.883904	664.2000122
1163.438029	663.5999756
1163.992096	665.5999756
1164.546107	665.2000122
1165.10006	664.5999756
1165.653956	667.5999756
1166.207795	665.2000122
1166.761577	663.7999878
1167.315302	665.7999878
1167.86897	664.4000244
1168.422581	665.4000244
1168.976134	666.4000244
1169.529631	665.5999756
1170.08307	664.4000244
1170.636453	667.5999756
1171.189778	666.7999878
1171.743046	665.5999756
1172.296257	665.4000244
1172.849412	664.4000244
1173.402509	667.7999878
1173.955549	663.0
1174.508532	664.5999756
1175.061458	662.0
1175.614327	667.7999878
1176.167138	664.0
1176.719893	665.7999878
1177.272591	664.0
1177.825232	666.2000122
1178.377816	662.4000244
1178.930342	665.0
1179.482812	662.7999878
1180.035225	665.4000244
1180.587581	664.7999878
1181.139879	665.4000244
1181.692121	665.4000244
1182.244306	665.2000122
1182.796434	663.2000122
1183.348504	663.0
1183.900518	668.2000122
1184.452475	664.5999756
1185.004375	669.0
1185.556218	666.2000122
1186.108004	664.2000122
1186.659733	667.2000122
1187.211405	663.7999878
1187.76302	664.2000122
1188.314578	667.0
1188.866079	666.2000122
1189.417523	662.7999878
1189.96891	664.7999878
1190.520241	664.7999878
1191.071514	665.4000244
1191.622731	665.5999756
1192.17389	665.0
1192.724993	664.7999878
1193.276039	680.2000122
1193.827027	666.2000122
1194.377959	666.2000122
1194.928834	667.2000122
1195.479653	666.2000122
1196.030414	666.2000122
1196.581118	666.5999756
1197.131766	664.2000122
1197.682356	667.0
1198.23289	664.7999878
1198.783367	664.7999878
1199.333786	663.5999756
1199.88415	663.0
1200.434456	664.5999756
1200.984705	665.4000244
1201.534898	667.4000244
1202.085033	664.7999878
1202.635112	668.5999756
1203.185134	665.5999756
1203.735099	664.7999878
1204.285007	664.0
1204.834859	666.7999878
1205.384653	665.5999756
1205.934391	664.5999756
1206.484072	664.7999878
1207.033696	667.0
1207.583263	668.2000122
1208.132774	664.7999878
1208.682228	664.0
1209.231624	666.2000122
1209.780965	665.7999878
1210.330248	666.5999756
1210.879474	669.0
1211.428644	666.0
1211.977757	666.7999878
1212.526813	669.5999756
1213.075813	666.5999756
1213.624755	665.5999756
1214.173641	666.7999878
1214.72247	665.2000122
1215.271242	664.7999878
1215.819958	664.2000122
1216.368617	668.5999756
1216.917219	663.7999878
1217.465764	663.5999756
1218.014253	668.0
1218.562685	665.7999878
1219.11106	665.4000244
1219.659378	666.7999878
1220.20764	666.2000122
1220.755845	666.0
1221.303993	664.0
1221.852085	670.2000122
1222.400119	667.7999878
1222.948097	666.0
1223.496019	665.4000244
1224.043883	667.4000244
1224.591691	666.0
1225.139443	665.2000122
1225.687137	668.0
1226.234775	665.0
1226.782357	665.0
1227.329881	669.2000122
1227.877349	665.7999878
1228.42476	665.7999878
1228.972115	667.5999756
1229.519413	669.2000122
1230.066654	666.7999878
1230.613839	666.7999878
1231.160967	667.7999878
1231.708038	667.2000122
1232.255053	667.0
1232.802011	666.2000122
1233.348912	666.7999878
1233.895757	668.5999756
1234.442545	666.2000122
1234.989277	666.2000122
1235.535951	666.4000244
1236.08257	666.2000122
1236.629131	667.0
1237.175636	666.5999756
1237.722085	667.7999878
1238.268477	668.0
1238.814812	665.5999756
1239.361091	666.5999756
1239.907313	665.2000122
1240.453478	669.0
1240.999587	667.7999878
1241.54564	667.2000122
1242.091636	667.7999878
1242.637575	670.4000244
1243.183457	670.5999756
1243.729284	669.5999756
1244.275053	668.5999756
1244.820766	666.5999756
1245.366423	671.7999878
1245.912022	667.7999878
1246.457566	667.7999878
1247.003053	666.5999756
1247.548483	668.5999756
1248.093857	668.2000122
1248.639174	667.4000244
1249.184435	670.7999878
1249.729639	669.4000244
1250.274787	666.4000244
1250.819878	669.2000122
1251.364912	670.4000244
1251.909891	669.2000122
1252.454812	669.0
1252.999677	668.4000244
1253.544486	669.7999878
1254.089238	670.0
1254.633934	671.0
1255.178573	670.7999878
1255.723156	671.5999756
1256.267682	669.4000244
1256.812152	672.2000122
1257.356565	676.7999878
1257.900922	678.7999878
1258.445223	678.0
1258.989467	679.0
1259.533654	679.5999756
1260.077785	692.2000122
1260.62186	682.4000244
1261.165878	686.4000244
1261.70984	694.2000122
1262.253745	699.5999756
1262.797594	702.0
1263.341386	697.4000244
1263.885123	696.2000122
1264.428802	690.0
1264.972425	686.4000244
1265.515992	685.5999756
1266.059503	681.2000122
1266.602957	678.4000244
1267.146354	676.0
1267.689696	679.0
1268.23298	678.4000244
1268.776209	674.5999756
1269.319381	677.0
1269.862497	675.5999756
1270.405556	675.2000122
1270.948559	676.4000244
1271.491506	679.4000244
1272.034396	675.5999756
1272.57723	672.7999878
1273.120007	677.5999756
1273.662728	676.7999878
1274.205393	677.5999756
1274.748002	677.0
1275.290554	681.7999878
1275.83305	678.2000122
1276.375489	681.0
1276.917872	681.7999878
1277.460199	685.7999878
1278.00247	686.4000244
1278.544684	691.7999878
1279.086842	699.0
1279.628943	704.0
1280.170989	718.0
1280.712978	750.2000122
1281.25491	807.2000122
1281.796787	945.0
1282.338607	1179.400024
1282.880371	1318.0
1283.422078	1172.0
1283.963729	972.4000244
1284.505324	825.5999756
1285.046863	757.2000122
1285.588345	730.5999756
1286.129772	710.4000244
1286.671142	700.0
1287.212455	691.0
1287.753713	689.2000122
1288.294914	686.4000244
1288.836059	683.5999756
1289.377147	684.5999756
1289.91818	682.5999756
1290.459156	679.0
1291.000076	676.7999878
1291.54094	679.7999878
1292.081747	681.2000122
1292.622499	675.2000122
1293.163194	677.5999756
1293.703833	675.7999878
1294.244415	675.4000244
1294.784942	673.5999756
1295.325412	678.7999878
1295.865826	673.0
1296.406184	672.7999878
1296.946486	676.5999756
1297.486731	674.5999756
1298.026921	674.7999878
1298.567054	674.4000244
1299.107131	678.5999756
1299.647152	674.4000244
1300.187116	673.5999756
1300.727025	674.2000122
1301.266877	673.5999756
1301.806673	674.0
1302.346413	670.0
1302.886097	673.2000122
1303.425725	674.2000122
1303.965297	672.0
1304.504812	671.7999878
1305.044272	672.5999756
1305.583675	671.5999756
1306.123022	670.5999756
1306.662313	671.5999756
1307.201548	672.4000244
1307.740727	672.7999878
1308.279849	670.0
1308.818916	675.5999756
1309.357926	670.7999878
1309.896881	670.0
1310.435779	668.4000244
1310.974621	672.4000244
1311.513407	669.2000122
1312.052137	670.2000122
1312.590811	671.4000244
1313.129429	673.4000244
1313.667991	668.4000244
1314.206497	669.4000244
1314.744946	671.7999878
1315.28334	672.0
1315.821678	671.4000244
1316.359959	669.4000244
1316.898184	669.4000244
1317.436354	670.7999878
1317.974467	667.0
1318.512525	671.5999756
1319.050526	669.5999756
1319.588471	667.2000122
1320.12636	667.0
1320.664194	671.7999878
1321.201971	669.2000122
1321.739692	669.5999756
1322.277357	672.5999756
1322.814967	667.7999878
1323.35252	670.4000244
1323.890017	672.2000122
1324.427458	669.0
1324.964843	668.7999878
1325.502173	670.5999756
1326.039446	671.0
1326.576663	669.4000244
1327.113824	671.2000122
1327.65093	668.4000244
1328.187979	671.7999878
1328.724972	670.2000122
1329.26191	670.2000122
1329.798791	672.2000122
1330.335617	673.0
1330.872386	671.0
1331.4091	670.0
1331.945758	669.7999878
1332.48236	669.2000122
1333.018905	669.0
1333.555395	668.4000244
1334.091829	669.0
1334.628207	670.4000244
1335.164529	668.4000244
1335.700796	667.5999756
1336.237006	670.0
1336.77316	670.0
1337.309259	671.5999756
1337.845301	668.7999878
1338.381288	668.4000244
1338.917219	672.0
1339.453094	672.2000122
1339.988913	670.7999878
1340.524676	670.5999756
1341.060383	669.2000122
1341.596034	668.4000244
1342.13163	667.4000244
1342.66717	670.5999756
1343.202653	669.4000244
1343.738081	671.5999756
1344.273453	670.5999756
1344.80877	668.2000122
1345.34403	673.7999878
1345.879235	668.4000244
1346.414383	672.0
1346.949476	671.0
1347.484513	671.2000122
1348.019494	669.7999878
1348.55442	667.4000244
1349.089289	670.4000244
1349.624103	671.5999756
1350.158861	671.4000244
1350.693563	670.7999878
1351.228209	672.2000122
1351.7628	671.0
1352.297334	671.2000122
1352.831813	671.5999756
1353.366236	672.5999756
1353.900604	672.5999756
1354.434915	673.2000122
1354.969171	668.0
1355.503371	669.0
1356.037515	670.0
1356.571604	670.7999878
1357.105636	670.0
1357.639613	673.4000244
1358.173535	671.5999756
1358.7074	669.4000244
1359.24121	671.5999756
1359.774964	672.0
1360.308662	669.7999878
1360.842304	670.7999878
1361.375891	673.5999756
1361.909422	672.5999756
1362.442897	674.7999878
1362.976317	669.7999878
1363.50968	673.4000244
1364.042989	676.7999878
1364.576241	674.0
1365.109438	674.7999878
1365.642579	674.4000244
1366.175664	676.2000122
1366.708693	675.0
1367.241667	673.5999756
1367.774585	673.5999756
1368.307448	673.7999878
1368.840255	682.4000244
1369.373006	691.5999756
1369.905701	702.4000244
1370.438341	687.7999878
1370.970925	680.7999878
1371.503454	678.0
1372.035926	678.5999756
1372.568344	678.2000122
1373.100705	674.4000244
1373.633011	674.2000122
1374.165261	676.7999878
1374.697456	679.5999756
1375.229595	677.5999756
1375.761678	678.5999756
1376.293705	680.4000244
1376.825677	676.0
1377.357594	682.0
1377.889455	681.0
1378.42126	679.4000244
1378.953009	682.4000244
1379.484703	682.2000122
1380.016342	688.7999878
1380.547924	687.7999878
1381.079452	690.4000244
1381.610923	693.5999756
1382.142339	694.0
1382.673699	700.0
1383.205004	707.2000122
1383.736253	716.2000122
1384.267447	731.2000122
1384.798585	750.4000244
1385.329668	801.4000244
1385.860695	889.5999756
1386.391666	1112.599976
1386.922582	1594.400024
1387.453442	1975.800049
1387.984247	1648.400024
1388.514996	1135.199951
1389.04569	893.7999878
1389.576328	801.2000122
1390.10691	756.0
1390.637437	726.0
1391.167909	711.2000122
1391.698325	703.4000244
1392.228685	697.4000244
1392.75899	692.4000244
1393.28924	689.7999878
1393.819434	692.7999878
1394.349572	686.5999756
1394.879655	685.4000244
1395.409683	683.7999878
1395.939655	681.4000244
1396.469571	683.4000244
1396.999432	681.4000244
1397.529237	679.7999878
1398.058987	681.7999878
1398.588682	681.7999878
1399.118321	678.7999878
1399.647905	681.2000122
1400.177433	680.4000244
1400.706906	681.2000122
1401.236323	681.0
1401.765685	677.0
1402.294991	680.4000244
1402.824242	685.5999756
1403.353437	683.0
1403.882577	679.7999878
1404.411662	681.7999878
1404.940691	686.2000122
1405.469665	685.2000122
1405.998583	691.7999878
1406.527446	694.0
1407.056253	703.2000122
1407.585005	702.5999756
1408.113702	714.5999756
1408.642343	716.4000244
1409.170929	722.2000122
1409.69946	717.4000244
1410.227935	708.0
1410.756354	697.4000244
1411.284719	689.5999756
1411.813028	683.4000244
1412.341281	684.2000122
1412.869479	680.0
1413.397622	676.2000122
1413.92571	673.2000122
1414.453742	674.5999756
1414.981718	672.0
1415.50964	681.4000244
1416.037506	673.4000244
1416.565316	671.5999756
1417.093072	671.7999878
1417.620772	671.2000122
1418.148416	669.2000122
1418.676005	670.7999878
1419.203539	670.0
1419.731018	665.5999756
1420.258441	669.4000244
1420.785809	672.7999878
1421.313122	669.0
1421.840379	669.2000122
1422.367582	669.5999756
1422.894728	667.0
1423.42182	668.2000122
1423.948856	671.7999878
1424.475837	671.0
1425.002762	671.0
1425.529633	668.7999878
1426.056448	669.4000244
1426.583207	670.5999756
1427.109912	671.7999878
1427.636561	669.7999878
1428.163155	669.0
1428.689694	667.2000122
1429.216177	662.7999878
1429.742605	668.5999756
1430.268978	666.7999878
1430.795296	668.4000244
1431.321558	666.4000244
1431.847765	669.5999756
1432.373917	666.5999756
1432.900014	666.5999756
1433.426056	667.2000122
1433.952042	667.5999756
1434.477973	667.2000122
1435.003849	666.4000244
1435.529669	665.7999878
1436.055435	666.7999878
1436.581145	668.2000122
1437.1068	667.0
1437.632399	668.2000122
1438.157944	664.4000244
1438.683433	668.0
1439.208868	665.2000122
1439.734247	666.0
1440.25957	665.0
1440.784839	666.2000122
1441.310053	665.5999756
1441.835211	663.5999756
1442.360314	668.2000122
1442.885362	667.2000122
1443.410355	665.2000122
1443.935292	667.5999756
1444.460175	665.2000122
1444.985002	664.5999756
1445.509774	665.0
1446.034491	665.4000244
1446.559153	668.4000244
1447.08376	664.2000122
1447.608312	665.0
1448.132808	667.5999756
1448.65725	662.7999878
1449.181636	664.7999878
1449.705967	665.4000244
1450.230243	665.7999878
1450.754464	662.7999878
1451.27863	663.2000122
1451.802741	667.0
1452.326797	664.0
1452.850797	662.7999878
1453.374743	665.7999878
1453.898633	665.0
1454.422468	666.4000244
1454.946249	664.5999756
1455.469974	665.0
1455.993644	666.0
1456.517259	665.2000122
1457.040819	665.0
1457.564324	666.0
1458.087773	666.4000244
1458.611168	664.7999878
1459.134508	663.4000244
1459.657793	663.5999756
1460.181022	668.4000244
1460.704197	666.7999878
1461.227316	666.4000244
1461.750381	663.5999756
1462.27339	663.5999756
1462.796345	664.4000244
1463.319244	663.5999756
1463.842089	662.2000122
1464.364878	663.2000122
1464.887613	664.0
1465.410292	665.5999756
1465.932916	664.5999756
1466.455486	662.2000122
1466.978	664.7999878
1467.50046	666.7999878
1468.022864	665.0
1468.545214	664.0
1469.067508	665.2000122
1469.589748	667.4000244
1470.111932	668.5999756
1470.634062	662.5999756
1471.156136	664.0
1471.678156	662.2000122
1472.20012	663.7999878
1472.72203	664.7999878
1473.243885	664.4000244
1473.765685	666.0
1474.28743	664.7999878
1474.80912	663.5999756
1475.330755	666.2000122
1475.852335	663.2000122
1476.37386	664.5999756
1476.89533	664.5999756
1477.416745	661.7999878
1477.938106	664.0
1478.459411	664.7999878
1478.980662	665.0
1479.501857	664.0
1480.022998	662.2000122
1480.544084	661.0
1481.065115	662.4000244
1481.586091	664.2000122
1482.107012	665.2000122
1482.627878	663.7999878
1483.14869	663.2000122
1483.669446	664.4000244
1484.190148	664.7999878
1484.710794	664.5999756
1485.231386	663.7999878
1485.751923	666.0
1486.272406	661.2000122
1486.792833	663.4000244
1487.313205	664.0
1487.833523	664.4000244
1488.353786	663.7999878
1488.873994	663.4000244
1489.394147	663.2000122
1489.914245	664.2000122
1490.434288	664.4000244
1490.954277	665.0
1491.474211	663.5999756
1491.99409	664.4000244
1492.513914	662.0
1493.033683	662.0
1493.553398	663.4000244
1494.073057	663.4000244
1494.592662	664.4000244
1495.112212	662.0
1495.631708	664.2000122
1496.151148	663.4000244
1496.670534	664.2000122
1497.189865	662.4000244
1497.709141	663.4000244
1498.228362	662.5999756
1498.747529	663.0
1499.266641	662.5999756
1499.785698	670.2000122
1500.3047	665.5999756
1500.823648	665.0
1501.34254	663.0
1501.861379	664.0
1502.380162	664.0
1502.89889	661.7999878
1503.417564	661.2000122
1503.936183	663.7999878
1504.454748	664.0
1504.973257	662.5999756
1505.491712	664.5999756
1506.010112	664.0
1506.528458	662.0
1507.046748	664.0
1507.564984	664.4000244
1508.083166	664.4000244
1508.601292	663.7999878
1509.119364	661.5999756
1509.637381	660.7999878
1510.155344	664.2000122
1510.673252	672.2000122
1511.191105	663.5999756
1511.708903	660.2000122
1512.226647	663.4000244
1512.744336	660.7999878
1513.261971	662.4000244
1513.77955	663.0
1514.297076	662.4000244
1514.814546	667.2000122
1515.331962	663.4000244
1515.849323	664.7999878
1516.366629	661.7999878
1516.883881	664.0
1517.401078	663.0
1517.918221	663.5999756
1518.435309	664.4000244
1518.952342	661.7999878
1519.469321	663.7999878
1519.986245	666.2000122
1520.503114	662.4000244
1521.536689	669.4000244
1522.053395	662.4000244
1522.570046	661.7999878
1523.086642	663.7999878
1523.603184	663.0
1524.119671	665.2000122
1524.636103	664.4000244
1525.152481	664.7999878
1525.668805	663.5999756
1526.185073	663.7999878
1526.701288	665.4000244
1527.217447	661.2000122
1527.733552	660.7999878
1528.249603	663.2000122
1528.765599	664.7999878
1529.28154	663.2000122
1529.797427	664.5999756
1530.313259	665.4000244
1530.829037	662.7999878
1531.34476	664.4000244
1531.860429	664.7999878
1532.376043	663.7999878
1532.891602	663.2000122
1533.407107	662.5999756
1533.922558	661.0
1534.437954	661.5999756
1534.953295	664.5999756
1535.468582	663.4000244
1535.983815	663.5999756
1536.498993	661.7999878
1537.014116	662.0
1537.529185	663.7999878
1538.044199	660.7999878
1538.559159	664.4000244
1539.074064	665.4000244
1539.588915	664.0
1540.103712	663.7999878
1540.618454	664.0
1541.133141	663.4000244
1541.647774	667.0
1542.162353	664.2000122
1542.676877	662.5999756
1543.191346	663.4000244
1543.705761	663.7999878
1544.220122	661.4000244
1544.734428	665.2000122
1545.24868	662.0
1545.762877	662.2000122
1546.27702	662.5999756
1546.791109	662.4000244
1547.305143	661.5999756
1547.819122	665.7999878
1548.333047	664.7999878
1548.846918	661.4000244
1549.360734	662.5999756
1549.874496	664.5999756
1550.388204	666.2000122
1550.901857	662.5999756
1551.415455	664.4000244
1551.929	661.5999756
1552.442489	664.0
1552.955925	662.5999756
1553.469306	662.0
1553.982632	664.2000122
1554.495905	662.7999878
1555.009123	665.2000122
1555.522286	660.2000122
1556.035395	662.4000244
1556.54845	663.5999756
1557.06145	664.0
1557.574396	666.4000244
1558.087288	661.0
1558.600125	662.7999878
1559.112908	663.0
1559.625637	664.0
1560.138311	664.2000122
1560.650931	661.2000122
1561.163497	664.0
1561.676008	664.0
1562.188465	665.4000244
1562.700867	663.2000122
1563.213216	664.2000122
1563.725509	664.5999756
1564.237749	662.7999878
1564.749934	660.4000244
1565.262065	659.4000244
1565.774142	662.0
1566.286164	662.5999756
1566.798132	661.5999756
1567.310046	663.4000244
1567.821906	662.7999878
1568.333711	661.4000244
1568.845462	662.7999878
1569.357158	662.0
1569.868801	662.7999878
1570.380389	662.0
1570.891922	660.4000244
1571.403402	662.2000122
1571.914827	664.2000122
1572.426198	657.5999756
1572.937515	661.5999756
1573.448777	663.7999878
1573.959985	661.5999756
1574.471139	661.5999756
1574.982239	661.0
1575.493285	662.4000244
1576.004276	662.2000122
1576.515213	665.2000122
1577.026096	660.5999756
1577.536924	665.5999756
1578.047698	660.0
1578.558419	661.4000244
1579.069084	664.7999878
1579.579696	664.0
1580.090254	664.4000244
1580.600757	664.0
1581.111206	664.5999756
1581.621601	667.0
1582.131941	661.2000122
1582.642228	659.2000122
1583.15246	663.4000244
1583.662638	664.0
1584.172762	661.4000244
1584.682832	662.7999878
1585.192847	663.0
1585.702809	662.5999756
1586.212716	663.4000244
1586.722569	662.0
1587.232368	662.0
1587.742113	661.5999756
1588.251803	661.0
1588.76144	664.4000244
1589.271022	662.2000122
1589.78055	660.5999756
1590.290024	663.2000122
1590.799444	661.5999756
1591.30881	661.5999756
1591.818121	663.5999756
1592.327379	660.4000244
