1042.414189	677.5999756
1042.980685	678.2000122
1043.547124	678.4000244
1044.113505	676.4000244
1044.679828	677.7999878
1045.246093	676.0
1045.8123	675.4000244
1046.378449	674.2000122
1046.94454	673.0
1047.510573	672.7999878
1048.076548	673.5999756
1048.642465	673.5999756
1049.208325	673.0
1049.774126	670.2000122
1050.339869	674.5999756
1050.905555	669.5999756
1051.471183	672.2000122
1052.036752	672.4000244
1052.602264	669.2000122
1053.167718	671.5999756
1053.733114	671.5999756
1054.298452	672.5999756
1054.863733	670.4000244
1055.428955	671.0
1055.994119	669.5999756
1056.559226	671.0
1057.124275	669.0
1057.689266	669.7999878
1058.254199	667.7999878
1058.819074	670.2000122
1059.383891	669.4000244
1059.94865	669.2000122
1060.513352	670.2000122
1061.077996	668.2000122
1061.642582	667.7999878
1062.20711	668.5999756
1062.77158	669.0
1063.335992	669.5999756
1063.900347	668.7999878
1064.464643	667.7999878
1065.028882	669.5999756
1065.593063	667.5999756
1066.157187	668.0
1066.721252	668.4000244
1067.28526	667.7999878
1067.84921	665.4000244
1068.413102	667.7999878
1068.976936	668.0
1069.540713	669.2000122
1070.104431	673.0
1070.668092	664.7999878
1071.231696	668.2000122
1071.795241	665.5999756
1072.358729	670.7999878
1072.922159	670.0
1073.485531	668.5999756
1074.048845	668.0
1074.612102	666.2000122
1075.175301	668.0
1075.738442	669.0
1076.301525	666.2000122
1076.864551	668.2000122
1077.427519	666.0
1077.990429	666.7999878
1078.553281	666.2000122
1079.116076	667.0
1079.678813	667.0
1080.241492	667.2000122
1080.804114	669.2000122
1081.366678	678.5999756
1082.491633	691.7999878
1083.054024	666.7999878
1083.616357	667.4000244
1084.178632	666.5999756
1084.74085	668.5999756
1085.30301	665.0
1085.865113	666.4000244
1086.427158	665.7999878
1086.989145	665.0
1087.551074	664.0
1088.112946	668.2000122
1088.67476	667.2000122
1089.236517	667.0
1089.798216	667.2000122
1090.359857	669.0
1090.92144	666.4000244
1091.482966	668.5999756
1092.044435	666.5999756
1092.605845	667.0
1093.167199	667.7999878
1093.728494	668.0
1094.289732	665.5999756
1094.850912	668.4000244
1095.412035	678.0
1095.9731	670.2000122
1096.534107	666.5999756
1097.095057	674.0
1097.65595	664.0
1098.216784	667.4000244
1098.777561	667.0
1099.338281	667.4000244
1099.898943	668.2000122
1100.459547	667.2000122
1101.020094	666.5999756
1101.580584	667.2000122
1102.141015	666.7999878
1102.701389	666.2000122
1103.261706	667.2000122
1103.821965	668.0
1104.382167	669.0
1104.942311	666.2000122
1105.502397	665.4000244
1106.062426	668.7999878
1106.622398	669.0
1107.182312	667.0
1107.742168	666.7999878
1108.301967	666.5999756
1108.861708	666.0
1109.421392	669.0
1109.981019	669.2000122
1110.540587	667.7999878
1111.100099	667.2000122
1111.659553	669.4000244
1112.218949	668.4000244
1112.778288	668.7999878
1113.33757	668.7999878
1113.896794	666.2000122
1114.45596	666.2000122
1115.015069	669.2000122
1115.574121	667.2000122
1116.133115	669.2000122
1116.692052	666.0
1117.250931	664.4000244
1117.809753	666.2000122
1118.368517	666.2000122
1118.927224	670.7999878
1119.485873	668.2000122
1120.044465	666.5999756
1120.603	665.7999878
1121.161477	667.2000122
1121.719897	666.4000244
1122.278259	667.4000244
1122.836564	669.2000122
1123.394812	666.5999756
1123.953002	665.0
1124.511135	665.2000122
1125.06921	667.5999756
1125.627228	668.2000122
1126.185189	666.0
1126.743092	664.4000244
1127.300938	667.0
1127.858726	665.0
1128.416457	668.4000244
1128.974131	670.5999756
1129.531748	666.7999878
1130.089307	665.5999756
1130.646808	669.4000244
1131.204252	669.4000244
1131.761639	668.5999756
1132.318969	666.2000122
1132.876241	666.5999756
1133.433456	668.2000122
1133.990614	666.5999756
1134.547714	664.7999878
1135.104757	666.5999756
1135.661743	666.0
1136.218671	667.7999878
1136.775542	667.2000122
1137.332356	665.7999878
1137.889112	667.4000244
1138.445811	665.5999756
1139.002453	666.7999878
1139.559037	667.2000122
1140.115565	666.7999878
1140.672035	666.4000244
1141.228447	664.0
1141.784803	668.7999878
1142.341101	668.7999878
1142.897342	670.2000122
1143.453525	666.2000122
1144.009651	667.2000122
1144.565721	667.0
1145.121732	668.2000122
1145.677687	666.0
1146.233584	664.7999878
1146.789424	665.7999878
1147.345207	666.0
1147.900933	667.2000122
1148.456601	664.5999756
1149.012212	668.4000244
1149.567766	665.5999756
1150.123263	667.0
1150.678702	667.7999878
1151.234085	664.7999878
1151.78941	669.0
1152.344678	666.2000122
1152.899888	664.4000244
1153.455042	664.4000244
1154.010138	666.2000122
1154.565177	665.4000244
1155.120159	668.4000244
1155.675084	665.5999756
1156.229951	666.5999756
1156.784762	669.2000122
1157.339515	667.7999878
1157.894211	666.0
1158.44885	666.7999878
1159.003432	666.5999756
1159.557956	666.2000122
1160.112424	666.4000244
1160.666834	669.4000244
1161.221187	664.5999756
1161.775483	667.5999756
1162.329722	667.4000244
1162.883904	667.5999756
1163.438029	665.4000244
1163.992096	669.7999878
1164.546107	665.5999756
1165.10006	664.5999756
1165.653956	666.0
1166.207795	666.7999878
1166.761577	664.5999756
1167.315302	667.0
1167.86897	665.0
1168.422581	667.2000122
1168.976134	668.4000244
1169.529631	666.2000122
1170.08307	665.0
1170.636453	668.0
1171.189778	665.5999756
1171.743046	667.7999878
1172.296257	665.7999878
1172.849412	668.2000122
1173.402509	665.0
1173.955549	664.7999878
1174.508532	668.0
1175.061458	665.7999878
1175.614327	665.4000244
1176.167138	667.0
1176.719893	666.5999756
1177.272591	664.7999878
1177.825232	665.7999878
1178.377816	669.0
1178.930342	666.2000122
1179.482812	667.2000122
1180.035225	666.0
1180.587581	667.4000244
1181.139879	666.0
1181.692121	667.2000122
1182.244306	667.0
1182.796434	666.2000122
1183.348504	667.0
1183.900518	665.5999756
1184.452475	666.4000244
1185.004375	667.7999878
1185.556218	664.5999756
1186.108004	666.5999756
1186.659733	668.0
1187.211405	666.2000122
1187.76302	665.5999756
1188.314578	663.7999878
1188.866079	668.2000122
1189.417523	666.0
1189.96891	667.0
1190.520241	664.4000244
1191.071514	670.0
1191.622731	665.7999878
1192.17389	667.0
1192.724993	668.5999756
1193.276039	678.4000244
1193.827027	666.0
1194.377959	667.7999878
1194.928834	665.5999756
1195.479653	665.5999756
1196.030414	666.2000122
1196.581118	667.2000122
1197.131766	666.0
1197.682356	663.2000122
1198.23289	666.7999878
1198.783367	667.5999756
1199.333786	667.2000122
1199.88415	665.0
1200.434456	667.4000244
1200.984705	665.2000122
1201.534898	665.7999878
1202.085033	667.4000244
1202.635112	668.0
1203.185134	665.4000244
1203.735099	666.2000122
1204.285007	667.5999756
1204.834859	666.2000122
1205.384653	666.0
1205.934391	666.7999878
1206.484072	665.7999878
1207.033696	665.4000244
1207.583263	666.4000244
1208.132774	666.7999878
1208.682228	667.0
1209.231624	665.7999878
1209.780965	665.7999878
1210.330248	667.5999756
1210.879474	667.0
1211.428644	664.2000122
1211.977757	667.7999878
1212.526813	668.4000244
1213.075813	669.4000244
1213.624755	665.0
1214.173641	665.2000122
1214.72247	666.5999756
1215.271242	665.2000122
1215.819958	666.0
1216.368617	662.5999756
1216.917219	665.2000122
1217.465764	665.2000122
1218.014253	666.0
1218.562685	665.7999878
1219.11106	666.0
1219.659378	665.7999878
1220.20764	668.0
1220.755845	666.0
1221.303993	666.5999756
1221.852085	666.0
1222.400119	664.5999756
1222.948097	666.7999878
1223.496019	666.4000244
1224.043883	666.7999878
1224.591691	663.7999878
1225.139443	667.0
1225.687137	666.5999756
1226.234775	669.0
1226.782357	669.0
1227.329881	664.0
1227.877349	666.0
1228.42476	668.4000244
1228.972115	667.0
1229.519413	666.7999878
1230.066654	666.2000122
1230.613839	668.7999878
1231.160967	666.7999878
1231.708038	670.0
1232.255053	666.4000244
1232.802011	667.0
1233.348912	667.2000122
1233.895757	668.2000122
1234.442545	664.4000244
1234.989277	664.5999756
1235.535951	667.2000122
1236.08257	668.2000122
1236.629131	666.5999756
1237.175636	664.2000122
1237.722085	668.5999756
1238.268477	667.0
1238.814812	665.4000244
1239.361091	665.7999878
1239.907313	668.7999878
1240.453478	666.5999756
1240.999587	666.7999878
1241.54564	665.7999878
1242.091636	665.7999878
1242.637575	666.0
1243.183457	665.2000122
1243.729284	666.5999756
1244.275053	666.5999756
1244.820766	665.4000244
1245.366423	668.5999756
1245.912022	665.0
1246.457566	669.5999756
1247.003053	667.2000122
1247.548483	667.0
1248.093857	666.4000244
1248.639174	669.4000244
1249.184435	667.7999878
1249.729639	665.5999756
1250.274787	666.5999756
1250.819878	665.2000122
1251.364912	667.2000122
1251.909891	667.2000122
1252.454812	665.7999878
1252.999677	665.5999756
1253.544486	667.2000122
1254.089238	667.2000122
1254.633934	667.7999878
1255.178573	667.5999756
1255.723156	666.5999756
1256.267682	668.7999878
1256.812152	665.2000122
1257.356565	668.5999756
1257.900922	668.0
1258.445223	665.7999878
1258.989467	669.7999878
1259.533654	671.0
1260.077785	680.4000244
1260.62186	666.2000122
1261.165878	668.7999878
1261.70984	668.2000122
1262.253745	668.5999756
1262.797594	669.4000244
1263.341386	668.5999756
1263.885123	673.2000122
1264.428802	674.0
1264.972425	677.4000244
1265.515992	685.5999756
1266.059503	679.2000122
1266.602957	673.0
1267.146354	672.4000244
1267.689696	669.5999756
1268.23298	670.0
1268.776209	670.0
1269.319381	667.7999878
1269.862497	669.5999756
1270.405556	669.5999756
1270.948559	669.7999878
1271.491506	665.4000244
1272.034396	666.7999878
1272.57723	670.4000244
1273.120007	668.0
1273.662728	668.2000122
1274.205393	668.0
1274.748002	667.7999878
1275.290554	667.2000122
1275.83305	667.5999756
1276.375489	670.0
1276.917872	670.2000122
1277.460199	668.5999756
1278.00247	668.2000122
1278.544684	666.5999756
1279.086842	667.2000122
1279.628943	667.4000244
1280.170989	668.2000122
1280.712978	668.2000122
1281.25491	670.2000122
1281.796787	667.7999878
1282.338607	674.7999878
1282.880371	671.7999878
1283.422078	682.4000244
1283.963729	689.4000244
1284.505324	720.4000244
1285.046863	803.5999756
1285.588345	942.4000244
1286.129772	864.5999756
1286.671142	728.7999878
1287.212455	694.2000122
1287.753713	677.0
1288.294914	675.2000122
1288.836059	675.0
1289.377147	669.2000122
1289.91818	670.2000122
1290.459156	667.7999878
1291.000076	671.7999878
1291.54094	670.0
1292.081747	666.0
1292.622499	669.0
1293.163194	668.4000244
1293.703833	668.0
1294.244415	668.2000122
1294.784942	667.4000244
1295.325412	670.5999756
1295.865826	665.5999756
1296.406184	667.4000244
1296.946486	669.2000122
1297.486731	666.0
1298.026921	667.2000122
1298.567054	667.7999878
1299.107131	668.0
1299.647152	667.5999756
1300.187116	669.4000244
1300.727025	667.7999878
1301.266877	667.7999878
1301.806673	667.7999878
1302.346413	668.4000244
1302.886097	666.0
1303.425725	667.0
1303.965297	670.4000244
1304.504812	668.0
1305.044272	667.0
1305.583675	665.0
1306.123022	669.2000122
1306.662313	667.4000244
1307.201548	669.2000122
1307.740727	666.5999756
1308.279849	666.4000244
1308.818916	665.4000244
1309.357926	667.2000122
1309.896881	666.7999878
1310.435779	668.4000244
1310.974621	665.5999756
1311.513407	664.4000244
1312.052137	670.4000244
1312.590811	669.7999878
1313.129429	669.2000122
1313.667991	666.2000122
1314.206497	667.5999756
1314.744946	667.7999878
1315.28334	667.7999878
1315.821678	668.7999878
1316.359959	666.7999878
1316.898184	668.0
1317.436354	665.5999756
1317.974467	669.4000244
1318.512525	667.2000122
1319.050526	667.4000244
1319.588471	666.0
1320.12636	666.2000122
1320.664194	668.2000122
1321.201971	666.2000122
1321.739692	667.2000122
1322.277357	665.5999756
1322.814967	667.5999756
1323.35252	667.0
1323.890017	669.4000244
1324.427458	667.0
1324.964843	666.7999878
1325.502173	666.4000244
1326.039446	668.5999756
1326.576663	664.7999878
1327.113824	667.4000244
1327.65093	667.2000122
1328.187979	666.4000244
1328.724972	668.0
1329.26191	668.5999756
1329.798791	667.4000244
1330.335617	667.4000244
1330.872386	668.4000244
1331.4091	666.2000122
1331.945758	670.2000122
1332.48236	665.2000122
1333.018905	665.7999878
1333.555395	666.2000122
1334.091829	667.5999756
1334.628207	668.0
1335.164529	668.2000122
1335.700796	666.4000244
1336.237006	669.0
1336.77316	667.7999878
1337.309259	669.4000244
1337.845301	667.0
1338.381288	664.7999878
1338.917219	666.7999878
1339.453094	664.0
1339.988913	668.0
1340.524676	668.2000122
1341.060383	668.4000244
1341.596034	668.7999878
1342.13163	668.0
1342.66717	668.0
1343.202653	666.4000244
1343.738081	665.7999878
1344.273453	668.4000244
1344.80877	666.4000244
1345.34403	670.0
1345.879235	668.4000244
1346.414383	666.0
1346.949476	669.7999878
1347.484513	664.0
1348.019494	669.2000122
1348.55442	668.5999756
1349.089289	666.5999756
1349.624103	667.5999756
1350.158861	665.5999756
1350.693563	667.4000244
1351.228209	668.4000244
1351.7628	668.0
1352.297334	669.0
1352.831813	667.0
1353.366236	667.5999756
1353.900604	668.2000122
1354.434915	667.4000244
1354.969171	669.5999756
1355.503371	667.4000244
1356.037515	667.5999756
1356.571604	668.4000244
1357.105636	668.5999756
1357.639613	667.2000122
1358.173535	665.2000122
1358.7074	665.2000122
1359.24121	664.5999756
1359.774964	666.0
1360.308662	665.2000122
1360.842304	668.0
1361.375891	666.2000122
1361.909422	667.2000122
1362.442897	668.5999756
1362.976317	665.4000244
1363.50968	667.2000122
1364.042989	667.5999756
1364.576241	667.0
1365.109438	667.4000244
1365.642579	666.4000244
1366.175664	667.4000244
1366.708693	665.4000244
1367.241667	666.5999756
1367.774585	667.7999878
1368.307448	666.7999878
1368.840255	666.7999878
1369.373006	668.4000244
1369.905701	668.5999756
1370.438341	671.4000244
1370.970925	674.7999878
1371.503454	671.5999756
1372.035926	666.0
1372.568344	669.5999756
1373.100705	665.2000122
1373.633011	667.4000244
1374.165261	669.2000122
1374.697456	665.7999878
1375.229595	667.0
1375.761678	666.5999756
1376.293705	669.5999756
1376.825677	668.4000244
1377.357594	664.7999878
1377.889455	669.5999756
1378.42126	667.0
1378.953009	669.5999756
1379.484703	668.5999756
1380.016342	667.4000244
1380.547924	668.2000122
1381.079452	668.7999878
1381.610923	667.5999756
1382.142339	671.5999756
1382.673699	670.4000244
1383.205004	667.2000122
1383.736253	669.7999878
1384.267447	669.0
1384.798585	671.2000122
1385.329668	672.2000122
1385.860695	673.7999878
1386.391666	678.4000244
1386.922582	680.5999756
1387.453442	691.2000122
1387.984247	734.2000122
1388.514996	926.0
1389.04569	1171.400024
1389.576328	910.4000244
1390.10691	726.0
1390.637437	690.4000244
1391.167909	677.7999878
1391.698325	675.0
1392.228685	673.0
1392.75899	670.7999878
1393.28924	669.2000122
1393.819434	670.7999878
1394.349572	669.2000122
1394.879655	667.7999878
1395.409683	669.5999756
1395.939655	665.7999878
1396.469571	668.2000122
1396.999432	665.0
1397.529237	668.0
1398.058987	668.2000122
1398.588682	668.5999756
1399.118321	670.0
1399.647905	665.5999756
1400.177433	667.4000244
1400.706906	665.7999878
1401.236323	665.2000122
1401.765685	666.4000244
1402.294991	667.7999878
1402.824242	668.7999878
1403.353437	665.7999878
1403.882577	667.4000244
1404.411662	667.0
1404.940691	668.4000244
1405.469665	666.0
1405.998583	668.0
1406.527446	669.0
1407.056253	667.7999878
1407.585005	669.7999878
1408.113702	669.7999878
1408.642343	672.4000244
1409.170929	673.2000122
1409.69946	686.0
1410.227935	695.4000244
1410.756354	697.5999756
1411.284719	683.2000122
1411.813028	673.7999878
1412.341281	667.5999756
1412.869479	668.7999878
1413.397622	667.0
1413.92571	667.5999756
1414.453742	669.0
1414.981718	669.7999878
1415.50964	676.4000244
1416.037506	667.5999756
1416.565316	667.4000244
1417.093072	668.4000244
1417.620772	666.2000122
1418.148416	665.5999756
1418.676005	664.7999878
1419.203539	667.0
1419.731018	668.7999878
1420.258441	666.7999878
1420.785809	666.4000244
1421.313122	669.2000122
1421.840379	663.2000122
1422.367582	666.4000244
1422.894728	669.4000244
1423.42182	670.4000244
1423.948856	664.5999756
1424.475837	666.7999878
1425.002762	668.4000244
1425.529633	669.4000244
1426.056448	669.5999756
1426.583207	664.7999878
1427.109912	667.0
1427.636561	666.7999878
1428.163155	667.4000244
1428.689694	666.5999756
1429.216177	665.7999878
1429.742605	665.0
1430.268978	666.5999756
1430.795296	665.0
1431.321558	664.2000122
1431.847765	667.7999878
1432.373917	664.7999878
1432.900014	664.0
1433.426056	668.2000122
1433.952042	663.7999878
1434.477973	668.5999756
1435.003849	665.5999756
1435.529669	664.5999756
1436.055435	667.7999878
1436.581145	664.5999756
1437.1068	665.2000122
1437.632399	666.4000244
1438.157944	666.7999878
1438.683433	667.4000244
1439.208868	665.5999756
1439.734247	666.4000244
1440.25957	665.0
1440.784839	665.4000244
1441.310053	665.7999878
1441.835211	667.5999756
1442.360314	667.2000122
1442.885362	665.4000244
1443.410355	664.7999878
1443.935292	666.2000122
1444.460175	663.0
1444.985002	667.0
1445.509774	666.7999878
1446.034491	666.4000244
1446.559153	667.0
1447.08376	667.5999756
1447.608312	666.7999878
1448.132808	665.7999878
1448.65725	665.0
1449.181636	665.7999878
1449.705967	666.7999878
1450.230243	667.2000122
1450.754464	665.4000244
1451.27863	663.4000244
1451.802741	666.0
1452.326797	662.2000122
1452.850797	665.0
1453.374743	663.4000244
1453.898633	666.0
1454.422468	663.7999878
1454.946249	664.7999878
1455.469974	665.5999756
1455.993644	665.7999878
1456.517259	666.0
1457.040819	665.7999878
1457.564324	665.0
1458.087773	665.5999756
1458.611168	665.2000122
1459.134508	662.5999756
1459.657793	664.4000244
1460.181022	668.2000122
1460.704197	663.4000244
1461.227316	665.7999878
1461.750381	665.2000122
1462.27339	665.7999878
1462.796345	665.4000244
1463.319244	664.4000244
1463.842089	666.4000244
1464.364878	663.2000122
1464.887613	664.0
1465.410292	665.7999878
1465.932916	664.7999878
1466.455486	666.4000244
1466.978	664.0
1467.50046	664.4000244
1468.022864	664.2000122
1468.545214	663.4000244
1469.067508	662.4000244
1469.589748	665.4000244
1470.111932	665.4000244
1470.634062	666.0
1471.156136	665.7999878
1471.678156	663.7999878
1472.20012	664.5999756
1472.72203	664.4000244
1473.243885	663.2000122
1473.765685	664.4000244
1474.28743	665.5999756
1474.80912	664.4000244
1475.330755	664.0
1475.852335	665.4000244
1476.37386	664.4000244
1476.89533	664.0
1477.416745	664.7999878
1477.938106	663.4000244
1478.459411	664.2000122
1478.980662	667.4000244
1479.501857	666.2000122
1480.022998	663.2000122
1480.544084	664.7999878
1481.065115	659.7999878
1481.586091	664.4000244
1482.107012	664.4000244
1482.627878	666.0
1483.14869	664.0
1483.669446	664.5999756
1484.190148	664.5999756
1484.710794	665.7999878
1485.231386	665.7999878
1485.751923	662.4000244
1486.272406	664.4000244
1486.792833	664.0
1487.313205	665.2000122
1487.833523	667.4000244
1488.353786	664.4000244
1488.873994	663.7999878
1489.394147	666.7999878
1489.914245	664.4000244
1490.434288	662.7999878
1490.954277	663.4000244
1491.474211	664.7999878
1491.99409	666.0
1492.513914	664.5999756
1493.033683	664.7999878
1493.553398	663.7999878
1494.073057	663.5999756
1494.592662	664.7999878
1495.112212	663.5999756
1495.631708	664.0
1496.151148	664.5999756
1496.670534	664.7999878
1497.189865	663.7999878
1497.709141	663.0
1498.228362	665.7999878
1498.747529	664.4000244
1499.266641	664.2000122
1499.785698	669.7999878
1500.3047	666.7999878
1500.823648	666.0
1501.34254	664.7999878
1501.861379	663.7999878
1502.380162	665.0
1502.89889	667.0
1503.417564	662.5999756
1503.936183	664.5999756
1504.454748	664.5999756
1504.973257	661.5999756
1505.491712	664.0
1506.010112	663.7999878
1506.528458	663.5999756
1507.046748	661.7999878
1507.564984	662.2000122
1508.083166	662.5999756
1508.601292	663.7999878
1509.119364	662.5999756
1509.637381	661.4000244
1510.155344	665.0
1510.673252	673.5999756
1511.191105	663.7999878
1511.708903	664.4000244
1512.226647	664.4000244
1512.744336	664.5999756
1513.261971	664.2000122
1513.77955	663.4000244
1514.297076	666.5999756
1514.814546	663.0
1515.331962	662.5999756
1515.849323	664.4000244
1516.366629	664.2000122
1516.883881	662.7999878
1517.401078	665.4000244
1517.918221	663.5999756
1518.435309	664.0
1518.952342	660.4000244
1519.469321	664.2000122
1519.986245	662.0
1520.503114	662.7999878
1521.019929	664.4000244
1521.536689	664.4000244
1522.053395	664.4000244
1522.570046	663.5999756
1523.086642	665.0
1523.603184	665.5999756
1524.119671	663.4000244
1524.636103	665.0
1525.152481	663.4000244
1525.668805	665.0
1526.185073	662.4000244
1526.701288	662.0
1527.217447	664.4000244
1527.733552	662.7999878
1528.249603	663.7999878
1528.765599	663.2000122
1529.28154	663.7999878
1529.797427	665.7999878
1530.313259	662.7999878
1530.829037	661.4000244
1531.34476	663.5999756
1531.860429	664.0
1532.376043	664.5999756
1532.891602	663.2000122
1533.407107	662.7999878
1533.922558	661.5999756
1534.437954	666.5999756
1534.953295	665.0
1535.468582	664.2000122
1535.983815	664.2000122
1536.498993	665.4000244
1537.014116	662.7999878
1537.529185	662.2000122
1538.044199	662.0
1538.559159	664.4000244
1539.074064	664.0
1539.588915	665.0
1540.103712	662.2000122
1540.618454	666.4000244
1541.133141	663.0
1541.647774	661.5999756
1542.162353	662.5999756
1542.676877	662.7999878
1543.191346	662.7999878
1543.705761	663.4000244
1544.220122	663.2000122
1544.734428	664.2000122
1545.24868	664.5999756
1545.762877	663.7999878
1546.27702	660.5999756
1546.791109	663.0
1547.305143	664.4000244
1547.819122	665.5999756
1548.333047	662.5999756
1548.846918	661.7999878
1549.360734	662.4000244
1549.874496	662.7999878
1550.388204	665.0
1550.901857	661.0
1551.415455	666.2000122
1551.929	663.2000122
1552.442489	664.4000244
1552.955925	664.7999878
1553.469306	662.0
1553.982632	665.2000122
1554.495905	664.7999878
1555.009123	662.0
1555.522286	663.7999878
1556.035395	663.7999878
1556.54845	664.2000122
1557.06145	663.0
1557.574396	666.7999878
1558.087288	664.7999878
1558.600125	662.0
1559.112908	660.4000244
1559.625637	664.5999756
1560.138311	662.5999756
1560.650931	662.4000244
1561.163497	665.2000122
1561.676008	664.5999756
1562.188465	664.4000244
1562.700867	662.0
1563.213216	662.4000244
1563.725509	663.0
1564.237749	662.5999756
1564.749934	665.2000122
1565.262065	662.0
1565.774142	663.5999756
1566.286164	663.4000244
1566.798132	664.2000122
1567.310046	663.7999878
1567.821906	662.7999878
1568.333711	661.0
1568.845462	665.7999878
1569.357158	665.0
1569.868801	664.5999756
1570.380389	666.0
1570.891922	663.7999878
1571.403402	662.4000244
1571.914827	662.7999878
1572.426198	662.7999878
1572.937515	662.0
1573.448777	662.7999878
1573.959985	665.5999756
1574.471139	663.7999878
1574.982239	660.7999878
1575.493285	664.5999756
1576.004276	665.5999756
1576.515213	662.2000122
1577.026096	664.7999878
1577.536924	663.7999878
1578.047698	665.2000122
1578.558419	662.0
1579.069084	663.4000244
1579.579696	666.0
1580.090254	665.0
1580.600757	664.2000122
1581.111206	663.2000122
1581.621601	663.2000122
1582.131941	667.2000122
1582.642228	663.0
1583.15246	664.4000244
1583.662638	662.4000244
1584.172762	661.0
1584.682832	662.4000244
1585.192847	661.2000122
1585.702809	663.2000122
1586.212716	663.4000244
1586.722569	663.0
1587.232368	664.2000122
1587.742113	663.7999878
1588.251803	663.0
1588.76144	663.5999756
1589.271022	662.7999878
1589.78055	664.7999878
1590.290024	661.2000122
1590.799444	664.0
1591.30881	662.0
1591.818121	663.0
1592.327379	662.0
