1042.414189	696.5999756
1042.980685	696.4000244
1043.547124	697.7999878
1044.113505	693.7999878
1044.679828	699.0
1045.246093	696.7999878
1045.8123	694.4000244
1046.378449	694.2000122
1046.94454	691.5999756
1047.510573	692.7999878
1048.076548	690.4000244
1048.642465	694.2000122
1049.208325	692.4000244
1049.774126	691.7999878
1050.339869	690.4000244
1050.905555	690.4000244
1051.471183	689.2000122
1052.036752	690.4000244
1052.602264	688.5999756
1053.167718	689.2000122
1053.733114	689.7999878
1054.298452	689.5999756
1054.863733	691.7999878
1055.428955	688.2000122
1055.994119	689.2000122
1056.559226	688.7999878
1057.124275	684.4000244
1057.689266	688.2000122
1058.254199	690.0
1058.819074	687.0
1059.383891	687.2000122
1059.94865	686.0
1060.513352	686.2000122
1061.077996	684.2000122
1061.642582	686.4000244
1062.20711	686.4000244
1062.77158	688.4000244
1063.335992	688.7999878
1063.900347	686.0
1064.464643	687.4000244
1065.028882	687.4000244
1065.593063	684.2000122
1066.157187	683.7999878
1066.721252	684.7999878
1067.28526	686.2000122
1067.84921	685.7999878
1068.413102	684.4000244
1068.976936	686.4000244
1069.540713	688.5999756
1070.104431	692.5999756
1070.668092	684.7999878
1071.231696	686.4000244
1071.795241	690.4000244
1072.358729	686.7999878
1072.922159	684.4000244
1073.485531	683.0
1074.048845	686.5999756
1074.612102	688.0
1075.175301	686.4000244
1075.738442	685.4000244
1076.301525	687.0
1076.864551	686.4000244
1077.427519	686.5999756
1077.990429	684.4000244
1078.553281	687.4000244
1079.116076	682.7999878
1079.678813	684.0
1080.241492	686.7999878
1080.804114	683.2000122
1081.366678	686.0
1081.929184	689.7999878
1082.491633	687.5999756
1083.054024	687.5999756
1083.616357	689.7999878
1084.178632	689.5999756
1084.74085	689.2000122
1085.30301	688.4000244
1085.865113	687.0
1086.427158	686.5999756
1086.989145	690.7999878
1087.551074	688.0
1088.112946	690.4000244
1088.67476	688.5999756
1089.236517	688.0
1089.798216	685.4000244
1090.359857	687.4000244
1090.92144	688.4000244
1091.482966	691.0
1092.044435	687.7999878
1092.605845	686.7999878
1093.167199	687.7999878
1093.728494	685.5999756
1094.289732	688.7999878
1094.850912	687.7999878
1095.412035	702.2000122
1095.9731	690.2000122
1096.534107	688.4000244
1097.095057	691.2000122
1097.65595	687.4000244
1098.216784	689.5999756
1098.777561	687.7999878
1099.338281	689.0
1099.898943	689.4000244
1100.459547	688.7999878
1101.020094	688.2000122
1101.580584	691.4000244
1102.141015	689.5999756
1102.701389	691.2000122
1103.261706	688.5999756
1103.821965	692.4000244
1104.382167	693.4000244
1104.942311	694.2000122
1105.502397	698.5999756
1106.062426	694.2000122
1106.622398	698.2000122
1107.182312	700.5999756
1107.742168	699.2000122
1108.301967	703.2000122
1108.861708	703.0
1109.421392	700.5999756
1109.981019	707.5999756
1110.540587	713.5999756
1111.100099	712.7999878
1111.659553	714.4000244
1112.218949	721.4000244
1112.778288	717.5999756
1113.33757	715.5999756
1113.896794	720.2000122
1114.45596	716.2000122
1115.015069	715.5999756
1115.574121	714.0
1116.133115	711.4000244
1116.692052	708.0
1117.250931	703.2000122
1117.809753	702.4000244
1118.368517	697.2000122
1118.927224	705.0
1119.485873	696.0
1120.044465	697.4000244
1120.603	695.4000244
1121.161477	692.2000122
1121.719897	693.5999756
1122.278259	694.5999756
1122.836564	696.5999756
1123.394812	698.2000122
1123.953002	692.2000122
1124.511135	692.5999756
1125.06921	686.5999756
1125.627228	693.0
1126.185189	685.7999878
1126.743092	689.0
1127.300938	686.2000122
1127.858726	690.7999878
1128.416457	685.4000244
1128.974131	689.5999756
1129.531748	686.7999878
1130.089307	686.5999756
1130.646808	688.0
1131.204252	690.0
1131.761639	685.4000244
1132.318969	684.4000244
1132.876241	685.5999756
1133.433456	685.5999756
1133.990614	687.0
1134.547714	685.2000122
1135.104757	684.7999878
1135.661743	686.4000244
1136.218671	682.5999756
1136.775542	685.2000122
1137.332356	683.2000122
1137.889112	687.2000122
1138.445811	688.4000244
1139.002453	683.5999756
1139.559037	684.2000122
1140.115565	686.0
1140.672035	688.0
1141.228447	680.2000122
1141.784803	683.0
1142.341101	684.5999756
1142.897342	685.0
1143.453525	683.4000244
1144.009651	685.4000244
1144.565721	684.4000244
1145.121732	684.2000122
1145.677687	684.4000244
1146.233584	683.7999878
1146.789424	687.5999756
1147.345207	684.7999878
1147.900933	687.2000122
1148.456601	683.4000244
1149.012212	682.5999756
1149.567766	685.0
1150.123263	684.4000244
1150.678702	686.2000122
1151.234085	690.4000244
1151.78941	683.2000122
1152.344678	688.0
1152.899888	686.4000244
1153.455042	683.5999756
1154.010138	687.2000122
1154.565177	689.0
1155.120159	682.4000244
1155.675084	685.5999756
1156.229951	689.0
1156.784762	685.5999756
1157.339515	685.0
1157.894211	688.0
1158.44885	685.5999756
1159.003432	683.4000244
1159.557956	688.0
1160.112424	685.2000122
1160.666834	683.4000244
1161.221187	683.7999878
1161.775483	683.4000244
1162.329722	683.7999878
1162.883904	686.5999756
1163.438029	683.0
1163.992096	686.4000244
1164.546107	685.2000122
1165.10006	682.2000122
1165.653956	683.4000244
1166.207795	683.2000122
1166.761577	684.0
1167.315302	684.2000122
1167.86897	681.7999878
1168.422581	685.2000122
1168.976134	683.7999878
1169.529631	687.4000244
1170.08307	685.4000244
1170.636453	681.2000122
1171.189778	685.7999878
1171.743046	684.5999756
1172.296257	684.2000122
1172.849412	682.7999878
1173.402509	683.4000244
1173.955549	687.4000244
1174.508532	688.0
1175.061458	689.5999756
1175.614327	686.4000244
1176.167138	689.5999756
1176.719893	689.4000244
1177.272591	687.5999756
1177.825232	688.4000244
1178.377816	690.2000122
1178.930342	688.7999878
1179.482812	692.0
1180.035225	693.0
1180.587581	694.0
1181.139879	694.4000244
1181.692121	699.4000244
1182.244306	697.0
1182.796434	701.4000244
1183.348504	700.0
1183.900518	700.0
1184.452475	704.2000122
1185.004375	702.4000244
1185.556218	703.0
1186.108004	705.4000244
1186.659733	703.2000122
1187.211405	701.0
1187.76302	698.0
1188.314578	700.2000122
1188.866079	705.0
1189.417523	695.7999878
1189.96891	696.4000244
1190.520241	699.0
1191.071514	694.0
1191.622731	695.4000244
1192.17389	692.5999756
1192.724993	690.4000244
1193.276039	702.4000244
1193.827027	692.5999756
1194.377959	687.0
1194.928834	690.2000122
1195.479653	687.4000244
1196.030414	682.5999756
1196.581118	685.7999878
1197.131766	682.4000244
1197.682356	684.0
1198.23289	683.2000122
1198.783367	684.4000244
1199.333786	682.4000244
1199.88415	685.0
1200.434456	686.0
1200.984705	688.4000244
1201.534898	676.0
1202.085033	684.2000122
1202.635112	685.0
1203.185134	680.4000244
1203.735099	684.7999878
1204.285007	684.4000244
1204.834859	684.0
1205.384653	682.7999878
1205.934391	684.4000244
1206.484072	683.4000244
1207.033696	684.0
1207.583263	685.0
1208.132774	683.4000244
1208.682228	683.5999756
1209.231624	687.7999878
1209.780965	688.4000244
1210.330248	686.0
1210.879474	687.5999756
1211.428644	684.4000244
1211.977757	686.7999878
1212.526813	689.4000244
1213.075813	689.7999878
1213.624755	686.5999756
1214.173641	688.0
1214.72247	691.5999756
1215.271242	690.5999756
1215.819958	691.7999878
1216.368617	689.7999878
1216.917219	688.7999878
1217.465764	691.7999878
1218.014253	692.4000244
1218.562685	690.7999878
1219.11106	694.0
1219.659378	695.5999756
1220.20764	696.4000244
1220.755845	694.5999756
1221.303993	695.4000244
1221.852085	693.5999756
1222.400119	696.2000122
1222.948097	694.7999878
1223.496019	694.4000244
1224.043883	693.0
1224.591691	697.7999878
1225.139443	694.0
1225.687137	695.5999756
1226.234775	696.0
1226.782357	698.4000244
1227.329881	696.7999878
1227.877349	696.0
1228.42476	692.5999756
1228.972115	698.5999756
1229.519413	698.5999756
1230.613839	711.4000244
1231.160967	697.5999756
1231.708038	698.7999878
1232.255053	696.7999878
1232.802011	698.5999756
1233.348912	697.0
1233.895757	695.2000122
1234.442545	695.4000244
1234.989277	696.0
1235.535951	695.0
1236.08257	694.7999878
1236.629131	694.5999756
1237.175636	695.0
1237.722085	695.2000122
1238.268477	690.5999756
1238.814812	691.5999756
1239.361091	690.4000244
1239.907313	691.5999756
1240.453478	692.7999878
1240.999587	690.2000122
1241.54564	696.5999756
1242.091636	693.7999878
1242.637575	695.5999756
1243.183457	691.5999756
1243.729284	694.0
1244.275053	694.2000122
1244.820766	689.0
1245.366423	691.7999878
1245.912022	692.2000122
1246.457566	693.2000122
1247.003053	693.2000122
1247.548483	691.7999878
1248.093857	694.4000244
1248.639174	692.0
1249.184435	695.0
1249.729639	695.0
1250.274787	691.2000122
1250.819878	691.5999756
1251.364912	693.7999878
1251.909891	695.2000122
1252.454812	694.7999878
1252.999677	695.5999756
1253.544486	692.7999878
1254.089238	696.5999756
1254.633934	693.7999878
1255.178573	694.7999878
1255.723156	694.0
1256.267682	692.7999878
1256.812152	689.5999756
1257.356565	694.5999756
1257.900922	690.0
1258.445223	691.0
1258.989467	693.2000122
1259.533654	693.5999756
1260.077785	698.2000122
1260.62186	694.2000122
1261.165878	691.0
1261.70984	689.2000122
1262.253745	688.5999756
1262.797594	689.2000122
1263.341386	689.0
1263.885123	689.2000122
1264.428802	687.0
1264.972425	691.4000244
1265.515992	687.4000244
1266.059503	692.2000122
1266.602957	691.4000244
1267.146354	690.5999756
1267.689696	688.7999878
1268.23298	686.7999878
1268.776209	688.5999756
1269.319381	687.7999878
1269.862497	688.0
1270.405556	685.5999756
1270.948559	688.0
1271.491506	683.0
1272.034396	687.2000122
1272.57723	684.2000122
1273.120007	686.4000244
1273.662728	686.0
1274.205393	685.2000122
1274.748002	687.4000244
1275.290554	683.0
1275.83305	686.2000122
1276.375489	685.7999878
1276.917872	684.2000122
1277.460199	684.7999878
1278.00247	686.4000244
1278.544684	685.5999756
1279.086842	686.2000122
1279.628943	685.4000244
1280.170989	684.2000122
1280.712978	685.2000122
1281.25491	688.4000244
1281.796787	685.4000244
1282.338607	686.7999878
1282.880371	692.0
1283.422078	687.2000122
1283.963729	688.7999878
1284.505324	688.2000122
1285.046863	691.4000244
1285.588345	709.5999756
1286.129772	747.2000122
1286.671142	732.7999878
1287.212455	695.0
1287.753713	692.7999878
1288.294914	689.7999878
1288.836059	688.5999756
1289.377147	692.5999756
1289.91818	688.2000122
1290.459156	691.4000244
1291.000076	694.4000244
1291.54094	695.4000244
1292.081747	695.4000244
1292.622499	696.2000122
1293.163194	691.5999756
1293.703833	690.0
1294.244415	693.5999756
1294.784942	694.0
1295.325412	694.2000122
1295.865826	695.2000122
1296.406184	691.0
1296.946486	693.5999756
1297.486731	691.2000122
1298.026921	693.2000122
1298.567054	693.5999756
1299.107131	695.2000122
1299.647152	695.7999878
1300.187116	695.5999756
1300.727025	694.7999878
1301.266877	693.7999878
1301.806673	692.5999756
1302.346413	692.2000122
1302.886097	696.7999878
1303.425725	695.5999756
1303.965297	691.7999878
1304.504812	689.0
1305.044272	689.7999878
1305.583675	691.7999878
1306.123022	692.2000122
1306.662313	689.7999878
1307.201548	688.4000244
1307.740727	688.2000122
1308.279849	690.7999878
1308.818916	685.7999878
1309.357926	691.7999878
1309.896881	686.7999878
1310.435779	686.5999756
1310.974621	689.4000244
1311.513407	683.7999878
1312.052137	687.2000122
1312.590811	686.5999756
1313.129429	689.7999878
1313.667991	685.5999756
1314.206497	690.4000244
1314.744946	687.0
1315.28334	683.4000244
1315.821678	683.5999756
1316.359959	688.2000122
1316.898184	685.0
1317.436354	684.4000244
1317.974467	686.7999878
1318.512525	685.2000122
1319.050526	682.4000244
1319.588471	684.0
1320.12636	681.0
1320.664194	681.7999878
1321.201971	682.2000122
1321.739692	682.7999878
1322.277357	683.0
1322.814967	683.2000122
1323.35252	682.5999756
1323.890017	686.4000244
1324.427458	684.0
1324.964843	685.5999756
1325.502173	684.7999878
1326.039446	682.2000122
1326.576663	677.4000244
1327.113824	680.7999878
1327.65093	682.2000122
1328.187979	680.4000244
1328.724972	680.4000244
1329.26191	683.0
1329.798791	678.5999756
1330.335617	681.2000122
1330.872386	683.4000244
1331.4091	682.7999878
1331.945758	677.7999878
1332.48236	678.5999756
1333.018905	683.7999878
1333.555395	679.4000244
1334.091829	682.2000122
1334.628207	681.0
1335.164529	680.7999878
1335.700796	679.7999878
1336.237006	678.5999756
1336.77316	680.0
1337.309259	676.7999878
1337.845301	680.0
1338.381288	678.5999756
1338.917219	677.4000244
1339.453094	681.2000122
1339.988913	682.4000244
1340.524676	682.5999756
1341.060383	683.5999756
1341.596034	681.5999756
1342.13163	681.4000244
1342.66717	681.4000244
1343.202653	677.5999756
1343.738081	678.0
1344.273453	679.0
1344.80877	678.5999756
1345.34403	682.2000122
1345.879235	682.0
1346.414383	680.0
1346.949476	679.2000122
1347.484513	680.7999878
1348.019494	680.5999756
1348.55442	679.2000122
1349.089289	683.2000122
1349.624103	678.0
1350.158861	678.2000122
1350.693563	684.2000122
1351.228209	678.5999756
1351.7628	676.5999756
1352.297334	679.4000244
1352.831813	680.4000244
1353.366236	678.7999878
1353.900604	677.4000244
1354.434915	677.7999878
1354.969171	680.2000122
1355.503371	678.7999878
1356.037515	679.2000122
1356.571604	679.2000122
1357.105636	681.2000122
1357.639613	682.0
1358.173535	682.0
1358.7074	681.5999756
1359.24121	678.7999878
1359.774964	678.7999878
1360.308662	678.4000244
1360.842304	678.7999878
1361.375891	681.4000244
1361.909422	678.7999878
1362.442897	680.7999878
1362.976317	681.5999756
1363.50968	681.5999756
1364.042989	679.7999878
1364.576241	681.7999878
1365.109438	679.7999878
1365.642579	682.5999756
1366.175664	678.4000244
1366.708693	682.0
1367.241667	679.2000122
1367.774585	682.4000244
1368.307448	680.4000244
1368.840255	682.5999756
1369.373006	680.2000122
1369.905701	676.5999756
1370.438341	684.4000244
1370.970925	682.0
1371.503454	680.7999878
1372.035926	681.4000244
1372.568344	680.5999756
1373.100705	679.4000244
1373.633011	680.0
1374.165261	681.4000244
1374.697456	679.2000122
1375.229595	679.4000244
1375.761678	681.5999756
1376.293705	679.4000244
1376.825677	680.4000244
1377.357594	683.2000122
1377.889455	681.5999756
1378.42126	681.4000244
1378.953009	679.5999756
1379.484703	683.4000244
1380.016342	678.5999756
1380.547924	681.2000122
1381.079452	684.4000244
1381.610923	681.5999756
1382.142339	680.2000122
1382.673699	678.4000244
1383.205004	680.2000122
1383.736253	679.2000122
1384.267447	680.4000244
1384.798585	680.5999756
1385.329668	684.5999756
1385.860695	682.7999878
1386.391666	683.0
1386.922582	681.0
1387.453442	681.5999756
1387.984247	687.2000122
1388.514996	693.7999878
1389.04569	749.7999878
1389.576328	776.5999756
1390.10691	700.5999756
1390.637437	686.0
1391.167909	682.2000122
1391.698325	680.5999756
1392.228685	680.4000244
1392.75899	679.4000244
1393.28924	681.5999756
1393.819434	682.5999756
1394.349572	676.7999878
1394.879655	682.7999878
1395.409683	677.0
1395.939655	680.5999756
1396.469571	677.7999878
1396.999432	676.2000122
1397.529237	680.7999878
1398.058987	679.0
1398.588682	679.2000122
1399.118321	679.5999756
1399.647905	681.0
1400.177433	678.7999878
1400.706906	679.0
1401.236323	683.2000122
1401.765685	677.5999756
1402.294991	677.4000244
1402.824242	680.7999878
1403.353437	676.4000244
1403.882577	678.2000122
1404.411662	681.0
1404.940691	683.0
1405.469665	681.4000244
1405.998583	678.7999878
1406.527446	680.4000244
1407.056253	679.7999878
1407.585005	681.5999756
1408.113702	683.4000244
1408.642343	680.4000244
1409.170929	679.0
1409.69946	679.5999756
1410.227935	685.0
1410.756354	691.2000122
1411.284719	687.2000122
1411.813028	681.5999756
1412.341281	677.4000244
1412.869479	678.5999756
1413.397622	683.4000244
1413.92571	679.5999756
1414.453742	680.4000244
1414.981718	681.7999878
1415.50964	690.7999878
1416.037506	681.5999756
1416.565316	682.0
1417.093072	684.5999756
1417.620772	681.4000244
1418.148416	680.0
1418.676005	684.0
1419.203539	681.5999756
1419.731018	678.5999756
1420.258441	675.5999756
1420.785809	682.7999878
1421.313122	684.5999756
1421.840379	679.0
1422.367582	679.5999756
1422.894728	676.0
1423.42182	676.5999756
1423.948856	679.4000244
1424.475837	679.7999878
1425.002762	678.7999878
1425.529633	680.0
1426.056448	683.7999878
1426.583207	679.5999756
1427.109912	680.7999878
1427.636561	679.7999878
1428.163155	678.5999756
1428.689694	681.4000244
1429.216177	683.5999756
1429.742605	680.0
1430.268978	683.4000244
1430.795296	681.5999756
1431.321558	680.0
1431.847765	686.5999756
1432.373917	684.2000122
1432.900014	684.5999756
1433.426056	687.5999756
1433.952042	683.2000122
1434.477973	683.2000122
1435.003849	686.2000122
1435.529669	684.0
1436.055435	686.0
1436.581145	684.4000244
1437.1068	688.2000122
1437.632399	684.5999756
1438.157944	683.4000244
1438.683433	683.0
1439.208868	682.0
1439.734247	688.0
1440.25957	686.4000244
1440.784839	685.0
1441.310053	688.5999756
1441.835211	690.0
1442.360314	689.0
1442.885362	691.4000244
1443.410355	689.5999756
1443.935292	688.5999756
1444.460175	689.7999878
1444.985002	688.7999878
1445.509774	687.2000122
1446.034491	690.4000244
1446.559153	687.7999878
1447.08376	688.4000244
1447.608312	691.2000122
1448.132808	689.4000244
1448.65725	690.4000244
1449.181636	689.5999756
1449.705967	688.7999878
1450.230243	688.5999756
1450.754464	688.7999878
1451.27863	689.5999756
1451.802741	688.0
1452.326797	690.2000122
1452.850797	690.2000122
1453.374743	686.4000244
1453.898633	689.7999878
1454.422468	689.0
1454.946249	686.5999756
1455.469974	691.2000122
1455.993644	690.0
1456.517259	692.2000122
1457.040819	692.4000244
1457.564324	687.4000244
1458.087773	692.5999756
1458.611168	692.2000122
1459.134508	690.5999756
1459.657793	692.2000122
1460.181022	690.0
1460.704197	689.0
1461.227316	694.0
1461.750381	691.7999878
1462.27339	692.2000122
1462.796345	691.2000122
1463.319244	693.0
1463.842089	694.5999756
1464.364878	690.7999878
1464.887613	693.2000122
1465.410292	689.5999756
1465.932916	693.2000122
1466.455486	690.2000122
1466.978	689.0
1467.50046	688.4000244
1468.022864	689.2000122
1468.545214	689.2000122
1469.067508	688.0
1469.589748	688.0
1470.111932	690.4000244
1470.634062	691.4000244
1471.156136	686.2000122
1471.678156	688.2000122
1472.20012	686.0
1472.72203	686.7999878
1473.243885	690.0
1473.765685	685.2000122
1474.28743	687.7999878
1474.80912	685.4000244
1475.330755	682.2000122
1475.852335	686.0
1476.37386	682.0
1476.89533	684.2000122
1477.416745	683.2000122
1477.938106	680.5999756
1478.459411	684.7999878
1478.980662	681.5999756
1479.501857	683.5999756
1480.022998	680.5999756
1480.544084	683.2000122
1481.065115	677.5999756
1481.586091	678.7999878
1482.107012	680.4000244
1482.627878	679.2000122
1483.14869	683.2000122
1483.669446	680.7999878
1484.190148	678.0
1484.710794	679.0
1485.231386	681.7999878
1485.751923	678.5999756
1486.272406	679.7999878
1486.792833	678.0
1487.313205	681.0
1487.833523	678.7999878
1488.353786	678.4000244
1488.873994	677.2000122
1489.394147	680.7999878
1489.914245	678.0
1490.434288	680.5999756
1490.954277	679.7999878
1491.474211	683.4000244
1491.99409	678.7999878
1492.513914	680.4000244
1493.033683	677.0
1493.553398	676.2000122
1494.073057	677.7999878
1494.592662	679.5999756
1495.112212	676.2000122
1495.631708	677.4000244
1496.151148	673.7999878
1496.670534	679.0
1497.189865	678.2000122
1497.709141	674.7999878
1498.228362	679.4000244
1498.747529	675.0
1499.266641	674.7999878
1499.785698	683.4000244
1500.3047	675.7999878
1500.823648	675.7999878
1501.34254	677.2000122
1501.861379	675.2000122
1502.380162	675.0
1502.89889	675.2000122
1503.417564	676.2000122
1503.936183	680.0
1504.454748	679.4000244
1504.973257	675.7999878
1505.491712	676.2000122
1506.010112	678.2000122
1506.528458	673.5999756
1507.046748	677.5999756
1507.564984	675.4000244
1508.083166	677.4000244
1508.601292	676.7999878
1509.119364	673.5999756
1509.637381	676.4000244
1510.155344	676.0
1510.673252	684.7999878
1511.191105	679.4000244
1511.708903	679.4000244
1512.226647	679.7999878
1512.744336	678.4000244
1513.261971	678.4000244
1513.77955	678.0
1514.297076	676.5999756
1514.814546	674.7999878
1515.331962	675.4000244
1515.849323	678.4000244
1516.366629	676.0
1516.883881	677.7999878
1517.401078	676.5999756
1517.918221	674.5999756
1518.435309	676.5999756
1518.952342	676.7999878
1519.469321	676.4000244
1519.986245	677.5999756
1520.503114	678.4000244
1521.019929	675.0
1521.536689	675.7999878
1522.053395	678.4000244
1522.570046	675.0
1523.086642	675.5999756
1523.603184	674.4000244
1524.119671	675.7999878
1524.636103	674.4000244
1525.152481	677.4000244
1525.668805	678.5999756
1526.185073	674.7999878
1526.701288	674.0
1527.217447	676.5999756
1527.733552	678.4000244
1528.249603	674.4000244
1528.765599	677.4000244
1529.28154	676.5999756
1529.797427	675.2000122
1530.313259	677.5999756
1530.829037	676.4000244
1531.34476	673.7999878
1531.860429	675.7999878
1532.376043	673.2000122
1532.891602	674.5999756
1533.407107	676.2000122
1533.922558	675.4000244
1534.437954	675.7999878
1534.953295	678.7999878
1535.468582	676.2000122
1535.983815	671.7999878
1536.498993	675.2000122
1537.014116	674.4000244
1537.529185	675.5999756
1538.044199	675.4000244
1538.559159	676.2000122
1539.074064	675.5999756
1539.588915	680.0
1540.103712	678.5999756
1540.618454	676.7999878
1541.133141	676.5999756
1541.647774	675.7999878
1542.162353	675.4000244
1542.676877	675.0
1543.191346	676.4000244
1543.705761	673.5999756
1544.220122	679.4000244
1544.734428	674.7999878
1545.24868	675.0
1545.762877	676.2000122
1546.27702	674.0
1546.791109	674.0
1547.305143	674.7999878
1547.819122	676.0
1548.333047	676.0
1548.846918	677.4000244
1549.360734	675.2000122
1549.874496	676.7999878
1550.388204	673.5999756
1550.901857	675.7999878
1551.415455	676.2000122
1551.929	673.5999756
1552.442489	677.5999756
1552.955925	674.7999878
1553.469306	676.5999756
1553.982632	674.4000244
1554.495905	672.5999756
1555.009123	677.5999756
1555.522286	673.4000244
1556.035395	675.2000122
1556.54845	677.0
1557.06145	674.7999878
1557.574396	676.2000122
1558.087288	676.0
1558.600125	678.0
1559.112908	676.4000244
1559.625637	673.4000244
1560.138311	676.0
1560.650931	675.4000244
1561.163497	676.0
1561.676008	677.0
1562.188465	676.5999756
1562.700867	678.0
1563.213216	674.5999756
1563.725509	677.7999878
1564.237749	674.4000244
1564.749934	676.5999756
1565.262065	677.2000122
1565.774142	676.2000122
1566.286164	676.7999878
1566.798132	677.2000122
1567.310046	676.7999878
1567.821906	677.4000244
1568.333711	676.5999756
1568.845462	676.4000244
1569.357158	675.0
1569.868801	672.2000122
1570.380389	675.2000122
1570.891922	677.4000244
1571.403402	675.2000122
1571.914827	675.0
1572.426198	679.5999756
1572.937515	675.0
1573.448777	677.7999878
1573.959985	676.7999878
1574.471139	677.4000244
1574.982239	678.4000244
1575.493285	676.4000244
1576.004276	677.7999878
1576.515213	680.7999878
1577.026096	680.0
1577.536924	677.4000244
1578.047698	679.5999756
1578.558419	679.2000122
1579.069084	682.5999756
1579.579696	680.4000244
1580.090254	682.4000244
1580.600757	680.2000122
1581.111206	678.7999878
1581.621601	683.2000122
1582.131941	679.4000244
1582.642228	680.0
1583.15246	681.0
1583.662638	683.5999756
1584.172762	678.4000244
1584.682832	682.4000244
1585.192847	678.4000244
1585.702809	679.2000122
1586.212716	679.0
1586.722569	681.0
1587.232368	681.4000244
1587.742113	678.7999878
1588.251803	677.0
1588.76144	680.2000122
1589.271022	676.5999756
1589.78055	677.2000122
1590.290024	678.7999878
1590.799444	679.2000122
1591.30881	676.7999878
1591.818121	680.4000244
1592.327379	678.2000122
