 1.042414189E+03	 5.754360352E+02
 1.042980685E+03	 5.699079590E+02
 1.043547124E+03	 5.678480225E+02
 1.044113505E+03	 5.739879761E+02
 1.044679828E+03	 5.694360352E+02
 1.045246093E+03	 5.718900146E+02
 1.045812300E+03	 5.702900391E+02
 1.046378449E+03	 5.722219849E+02
 1.046944540E+03	 5.705419922E+02
 1.047510573E+03	 5.684020386E+02
 1.048076548E+03	 5.711580200E+02
 1.048642465E+03	 5.685360107E+02
 1.049208325E+03	 5.695319824E+02
 1.049774126E+03	 5.675079956E+02
 1.050339869E+03	 5.715620117E+02
 1.050905555E+03	 5.665839844E+02
 1.051471183E+03	 5.692299805E+02
 1.052036752E+03	 5.648900146E+02
 1.052602264E+03	 5.672639771E+02
 1.053167718E+03	 5.711319580E+02
 1.053733114E+03	 5.654680176E+02
 1.054298452E+03	 5.676940308E+02
 1.054863733E+03	 5.684760132E+02
 1.055428955E+03	 5.663659668E+02
 1.055994119E+03	 5.700839844E+02
 1.056559226E+03	 5.668040161E+02
 1.057124275E+03	 5.676079712E+02
 1.057689266E+03	 5.693179932E+02
 1.058254199E+03	 5.666799927E+02
 1.058819074E+03	 5.689600220E+02
 1.059383891E+03	 5.664199829E+02
 1.059948650E+03	 5.650159912E+02
 1.060513352E+03	 5.685260010E+02
 1.061077996E+03	 5.695219727E+02
 1.061642582E+03	 5.656799927E+02
 1.062207110E+03	 5.661220093E+02
 1.062771580E+03	 5.681140137E+02
 1.063335992E+03	 5.651140137E+02
 1.063900347E+03	 5.657779541E+02
 1.064464643E+03	 5.656580200E+02
 1.065028882E+03	 5.627559814E+02
 1.065593063E+03	 5.681400146E+02
 1.066157187E+03	 5.659860229E+02
 1.066721252E+03	 5.624080200E+02
 1.067285260E+03	 5.636840210E+02
 1.067849210E+03	 5.657779541E+02
 1.068413102E+03	 5.656500244E+02
 1.068976936E+03	 5.664239502E+02
 1.069540713E+03	 5.646459961E+02
 1.070104431E+03	 5.690000000E+02
 1.070668092E+03	 5.620799561E+02
 1.071231696E+03	 5.653679810E+02
 1.071795241E+03	 5.650839844E+02
 1.072358729E+03	 5.651600342E+02
 1.072922159E+03	 5.639860229E+02
 1.073485531E+03	 5.634239502E+02
 1.074048845E+03	 5.662500000E+02
 1.074612102E+03	 5.638759766E+02
 1.075175301E+03	 5.635859985E+02
 1.075738442E+03	 5.679739990E+02
 1.076301525E+03	 5.650339966E+02
 1.076864551E+03	 5.675820313E+02
 1.077427519E+03	 5.660540161E+02
 1.077990429E+03	 5.623439941E+02
 1.078553281E+03	 5.666419678E+02
 1.079116076E+03	 5.652580566E+02
 1.079678813E+03	 5.654639893E+02
 1.080241492E+03	 5.640119629E+02
 1.080804114E+03	 5.644760132E+02
 1.081366678E+03	 5.646119995E+02
 1.081929184E+03	 5.678459473E+02
 1.082491633E+03	 5.653619995E+02
 1.083054024E+03	 5.675100098E+02
 1.083616357E+03	 5.655920410E+02
 1.084178632E+03	 5.676759644E+02
 1.084740850E+03	 5.646719971E+02
 1.085303010E+03	 5.645620117E+02
 1.085865113E+03	 5.681539917E+02
 1.086427158E+03	 5.662260132E+02
 1.086989145E+03	 5.656300049E+02
 1.087551074E+03	 5.628559570E+02
 1.088112946E+03	 5.629500122E+02
 1.088674760E+03	 5.650900269E+02
 1.089236517E+03	 5.681580200E+02
 1.089798216E+03	 5.634680176E+02
 1.090359857E+03	 5.666680298E+02
 1.090921440E+03	 5.670260010E+02
 1.091482966E+03	 5.640040283E+02
 1.092044435E+03	 5.660499878E+02
 1.092605845E+03	 5.683400269E+02
 1.093167199E+03	 5.640339966E+02
 1.093728494E+03	 5.621019897E+02
 1.094289732E+03	 5.676680298E+02
 1.094850912E+03	 5.608980103E+02
 1.095412035E+03	 5.773480225E+02
 1.095973100E+03	 5.638640137E+02
 1.096534107E+03	 5.622380371E+02
 1.097095057E+03	 5.697399902E+02
 1.097655950E+03	 5.691099854E+02
 1.098216784E+03	 5.664559937E+02
 1.098777561E+03	 5.669920044E+02
 1.099338281E+03	 5.648859863E+02
 1.099898943E+03	 5.672339478E+02
 1.100459547E+03	 5.660639648E+02
 1.101020094E+03	 5.661360474E+02
 1.101580584E+03	 5.649160156E+02
 1.102141015E+03	 5.679279785E+02
 1.102701389E+03	 5.647199707E+02
 1.103261706E+03	 5.672020264E+02
 1.103821965E+03	 5.660700073E+02
 1.104382167E+03	 5.670360107E+02
 1.104942311E+03	 5.643140259E+02
 1.105502397E+03	 5.649419556E+02
 1.106062426E+03	 5.659580078E+02
 1.106622398E+03	 5.646040039E+02
 1.107182312E+03	 5.667880249E+02
 1.107742168E+03	 5.712559814E+02
 1.108301967E+03	 5.651439819E+02
 1.108861708E+03	 5.669779663E+02
 1.109421392E+03	 5.672760010E+02
 1.109981019E+03	 5.693580322E+02
 1.110540587E+03	 5.694019775E+02
 1.111100099E+03	 5.680839844E+02
 1.111659553E+03	 5.656979980E+02
 1.112218949E+03	 5.654219971E+02
 1.112778288E+03	 5.706599731E+02
 1.113337570E+03	 5.701920166E+02
 1.113896794E+03	 5.721619873E+02
 1.114455960E+03	 5.662340088E+02
 1.115015069E+03	 5.663820190E+02
 1.115574121E+03	 5.657940063E+02
 1.116133115E+03	 5.690739746E+02
 1.116692052E+03	 5.681500244E+02
 1.117250931E+03	 5.708040161E+02
 1.117809753E+03	 5.653060303E+02
 1.118368517E+03	 5.637940063E+02
 1.118927224E+03	 5.666059570E+02
 1.119485873E+03	 5.656599731E+02
 1.120044465E+03	 5.646680298E+02
 1.120603000E+03	 5.634379883E+02
 1.121161477E+03	 5.631739502E+02
 1.121719897E+03	 5.645700073E+02
 1.122278259E+03	 5.648780518E+02
 1.122836564E+03	 5.642319946E+02
 1.123394812E+03	 5.645599976E+02
 1.123953002E+03	 5.618699951E+02
 1.124511135E+03	 5.652020264E+02
 1.125069210E+03	 5.650520020E+02
 1.125627228E+03	 5.633880005E+02
 1.126185189E+03	 5.674519653E+02
 1.126743092E+03	 5.638559570E+02
 1.127300938E+03	 5.663200073E+02
 1.127858726E+03	 5.706260376E+02
 1.128416457E+03	 5.652600098E+02
 1.128974131E+03	 5.626300049E+02
 1.129531748E+03	 5.653240356E+02
 1.130089307E+03	 5.648559570E+02
 1.130646808E+03	 5.656419678E+02
 1.131204252E+03	 5.652979736E+02
 1.131761639E+03	 5.610000000E+02
 1.132318969E+03	 5.648339844E+02
 1.132876241E+03	 5.678759766E+02
 1.133433456E+03	 5.662339478E+02
 1.133990614E+03	 5.644459839E+02
 1.134547714E+03	 5.649439697E+02
 1.135104757E+03	 5.626459961E+02
 1.135661743E+03	 5.654039917E+02
 1.136218671E+03	 5.644420166E+02
 1.136775542E+03	 5.648040161E+02
 1.137332356E+03	 5.637820435E+02
 1.137889112E+03	 5.652720337E+02
 1.138445811E+03	 5.650040283E+02
 1.139002453E+03	 5.647860107E+02
 1.139559037E+03	 5.655520020E+02
 1.140115565E+03	 5.664760132E+02
 1.140672035E+03	 5.621779785E+02
 1.141228447E+03	 5.668840332E+02
 1.141784803E+03	 5.650720215E+02
 1.142341101E+03	 5.645559692E+02
 1.142897342E+03	 5.688500366E+02
 1.143453525E+03	 5.611179810E+02
 1.144009651E+03	 5.672160034E+02
 1.144565721E+03	 5.643319702E+02
 1.145121732E+03	 5.639400024E+02
 1.145677687E+03	 5.661439819E+02
 1.146233584E+03	 5.680159912E+02
 1.146789424E+03	 5.637779541E+02
 1.147345207E+03	 5.647140503E+02
 1.147900933E+03	 5.630720215E+02
 1.148456601E+03	 5.646759644E+02
 1.149012212E+03	 5.671439819E+02
 1.149567766E+03	 5.640380249E+02
 1.150123263E+03	 5.658980103E+02
 1.150678702E+03	 5.680540161E+02
 1.151234085E+03	 5.606500244E+02
 1.151789410E+03	 5.663519897E+02
 1.152344678E+03	 5.669520264E+02
 1.152899888E+03	 5.660880127E+02
 1.153455042E+03	 5.653859863E+02
 1.154010138E+03	 5.639400024E+02
 1.154565177E+03	 5.648720093E+02
 1.155120159E+03	 5.653480225E+02
 1.155675084E+03	 5.645859985E+02
 1.156229951E+03	 5.683899536E+02
 1.156784762E+03	 5.655739746E+02
 1.157339515E+03	 5.635659790E+02
 1.157894211E+03	 5.664699707E+02
 1.158448850E+03	 5.686759644E+02
 1.159003432E+03	 5.634280396E+02
 1.159557956E+03	 5.656239624E+02
 1.160112424E+03	 5.664660034E+02
 1.160666834E+03	 5.631519775E+02
 1.161221187E+03	 5.665559692E+02
 1.161775483E+03	 5.653859863E+02
 1.162329722E+03	 5.664580078E+02
 1.162883904E+03	 5.605440063E+02
 1.163438029E+03	 5.659779663E+02
 1.163992096E+03	 5.685180054E+02
 1.164546107E+03	 5.664459839E+02
 1.165100060E+03	 5.686160278E+02
 1.165653956E+03	 5.646539917E+02
 1.166207795E+03	 5.643260498E+02
 1.166761577E+03	 5.651300049E+02
 1.167315302E+03	 5.638119507E+02
 1.167868970E+03	 5.666580200E+02
 1.168422581E+03	 5.639559937E+02
 1.168976134E+03	 5.634199829E+02
 1.169529631E+03	 5.641740112E+02
 1.170083070E+03	 5.680659790E+02
 1.170636453E+03	 5.658619995E+02
 1.171189778E+03	 5.628239746E+02
 1.171743046E+03	 5.655820313E+02
 1.172296257E+03	 5.646199951E+02
 1.172849412E+03	 5.637480469E+02
 1.173402509E+03	 5.639940186E+02
 1.173955549E+03	 5.671099854E+02
 1.174508532E+03	 5.681099854E+02
 1.175061458E+03	 5.652500000E+02
 1.175614327E+03	 5.678119507E+02
 1.176167138E+03	 5.662799683E+02
 1.176719893E+03	 5.634639893E+02
 1.177272591E+03	 5.664900513E+02
 1.177825232E+03	 5.641160278E+02
 1.178377816E+03	 5.646519775E+02
 1.178930342E+03	 5.675499878E+02
 1.179482812E+03	 5.654580078E+02
 1.180035225E+03	 5.673979492E+02
 1.180587581E+03	 5.651560059E+02
 1.181139879E+03	 5.674540405E+02
 1.181692121E+03	 5.634540405E+02
 1.182244306E+03	 5.683739624E+02
 1.182796434E+03	 5.635719604E+02
 1.183348504E+03	 5.696560059E+02
 1.183900518E+03	 5.630880127E+02
 1.184452475E+03	 5.641259766E+02
 1.185004375E+03	 5.614539795E+02
 1.185556218E+03	 5.680799561E+02
 1.186108004E+03	 5.661560059E+02
 1.186659733E+03	 5.640339966E+02
 1.187211405E+03	 5.606459961E+02
 1.187763020E+03	 5.677520142E+02
 1.188314578E+03	 5.694440308E+02
 1.188866079E+03	 5.663420410E+02
 1.189417523E+03	 5.636740112E+02
 1.189968910E+03	 5.655660400E+02
 1.190520241E+03	 5.627160034E+02
 1.191071514E+03	 5.652919922E+02
 1.191622731E+03	 5.676319580E+02
 1.192173890E+03	 5.635560303E+02
 1.192724993E+03	 5.635159912E+02
 1.193276039E+03	 5.768980103E+02
 1.193827027E+03	 5.680520020E+02
 1.194377959E+03	 5.656179810E+02
 1.194928834E+03	 5.647239990E+02
 1.195479653E+03	 5.635659790E+02
 1.196030414E+03	 5.624539795E+02
 1.196581118E+03	 5.626500244E+02
 1.197131766E+03	 5.624919434E+02
 1.197682356E+03	 5.632119751E+02
 1.198232890E+03	 5.650499878E+02
 1.198783367E+03	 5.663380127E+02
 1.199333786E+03	 5.616199951E+02
 1.199884150E+03	 5.682239990E+02
 1.200434456E+03	 5.635939941E+02
 1.200984705E+03	 5.638880005E+02
 1.201534898E+03	 5.640540161E+02
 1.202085033E+03	 5.627219849E+02
 1.202635112E+03	 5.643339844E+02
 1.203185134E+03	 5.642280273E+02
 1.203735099E+03	 5.654280396E+02
 1.204285007E+03	 5.645520020E+02
 1.204834859E+03	 5.663559570E+02
 1.205384653E+03	 5.622620239E+02
 1.205934391E+03	 5.657520142E+02
 1.206484072E+03	 5.648840332E+02
 1.207033696E+03	 5.653899536E+02
 1.207583263E+03	 5.667559814E+02
 1.208132774E+03	 5.646840210E+02
 1.208682228E+03	 5.642459717E+02
 1.209231624E+03	 5.638119507E+02
 1.209780965E+03	 5.659180298E+02
 1.210330248E+03	 5.643740234E+02
 1.210879474E+03	 5.648380127E+02
 1.211428644E+03	 5.637019653E+02
 1.211977757E+03	 5.633659668E+02
 1.212526813E+03	 5.642459717E+02
 1.213075813E+03	 5.662799683E+02
 1.213624755E+03	 5.656480103E+02
 1.214173641E+03	 5.640599976E+02
 1.214722470E+03	 5.681920166E+02
 1.215271242E+03	 5.651160278E+02
 1.215819958E+03	 5.641840210E+02
 1.216368617E+03	 5.628259888E+02
 1.216917219E+03	 5.672139893E+02
 1.217465764E+03	 5.656820068E+02
 1.218014253E+03	 5.640020142E+02
 1.218562685E+03	 5.617900391E+02
 1.219111060E+03	 5.673779907E+02
 1.219659378E+03	 5.613900146E+02
 1.220207640E+03	 5.622760010E+02
 1.220755845E+03	 5.647299805E+02
 1.221303993E+03	 5.661399536E+02
 1.221852085E+03	 5.660239868E+02
 1.222400119E+03	 5.625440063E+02
 1.222948097E+03	 5.672579956E+02
 1.223496019E+03	 5.638199463E+02
 1.224043883E+03	 5.653699951E+02
 1.224591691E+03	 5.682340088E+02
 1.225139443E+03	 5.632299805E+02
 1.225687137E+03	 5.648259888E+02
 1.226234775E+03	 5.646640015E+02
 1.226782357E+03	 5.674080200E+02
 1.227329881E+03	 5.651539917E+02
 1.227877349E+03	 5.646599731E+02
 1.228424760E+03	 5.619200439E+02
 1.228972115E+03	 5.673140259E+02
 1.229519413E+03	 5.676680298E+02
 1.230066654E+03	 5.657540283E+02
 1.230613839E+03	 5.644039917E+02
 1.231160967E+03	 5.647500000E+02
 1.231708038E+03	 5.689799805E+02
 1.232255053E+03	 5.668419800E+02
 1.232802011E+03	 5.664980469E+02
 1.233348912E+03	 5.673519897E+02
 1.233895757E+03	 5.675220337E+02
 1.234442545E+03	 5.625619507E+02
 1.234989277E+03	 5.629060059E+02
 1.235535951E+03	 5.634959717E+02
 1.236082570E+03	 5.689219971E+02
 1.236629131E+03	 5.639219971E+02
 1.237175636E+03	 5.657220459E+02
 1.237722085E+03	 5.652579956E+02
 1.238268477E+03	 5.649519653E+02
 1.238814812E+03	 5.642579956E+02
 1.239361091E+03	 5.599940186E+02
 1.239907313E+03	 5.671079712E+02
 1.240453478E+03	 5.704140015E+02
 1.240999587E+03	 5.668699951E+02
 1.241545640E+03	 5.649039917E+02
 1.242091636E+03	 5.635639648E+02
 1.242637575E+03	 5.665679932E+02
 1.243183457E+03	 5.654659424E+02
 1.243729284E+03	 5.639680176E+02
 1.244275053E+03	 5.644140015E+02
 1.244820766E+03	 5.681680298E+02
 1.245366423E+03	 5.652800293E+02
 1.245912022E+03	 5.612619629E+02
 1.246457566E+03	 5.670020142E+02
 1.247003053E+03	 5.615819702E+02
 1.247548483E+03	 5.637379761E+02
 1.248093857E+03	 5.646199951E+02
 1.248639174E+03	 5.636659546E+02
 1.249184435E+03	 5.652579956E+02
 1.249729639E+03	 5.674619751E+02
 1.250274787E+03	 5.635339966E+02
 1.250819878E+03	 5.651440430E+02
 1.251364912E+03	 5.674659424E+02
 1.251909891E+03	 5.666019897E+02
 1.252454812E+03	 5.696699829E+02
 1.252999677E+03	 5.657340088E+02
 1.253544486E+03	 5.647000122E+02
 1.254089238E+03	 5.654400024E+02
 1.254633934E+03	 5.606839600E+02
 1.255178573E+03	 5.605000000E+02
 1.255723156E+03	 5.635000000E+02
 1.256267682E+03	 5.682739868E+02
 1.256812152E+03	 5.626279907E+02
 1.257356565E+03	 5.644700317E+02
 1.257900922E+03	 5.659340210E+02
 1.258445223E+03	 5.624739990E+02
 1.258989467E+03	 5.649840088E+02
 1.259533654E+03	 5.647460327E+02
 1.260077785E+03	 5.728839722E+02
 1.260621860E+03	 5.661920166E+02
 1.261165878E+03	 5.676300049E+02
 1.261709840E+03	 5.664379883E+02
 1.262253745E+03	 5.643159790E+02
 1.262797594E+03	 5.615780029E+02
 1.263341386E+03	 5.659099731E+02
 1.263885123E+03	 5.648300171E+02
 1.264428802E+03	 5.681820068E+02
 1.264972425E+03	 5.670639648E+02
 1.265515992E+03	 5.679140015E+02
 1.266059503E+03	 5.687280273E+02
 1.266602957E+03	 5.637999878E+02
 1.267146354E+03	 5.637480469E+02
 1.267689696E+03	 5.654080200E+02
 1.268232980E+03	 5.693820190E+02
 1.268776209E+03	 5.636500244E+02
 1.269319381E+03	 5.685599976E+02
 1.269862497E+03	 5.640540161E+02
 1.270405556E+03	 5.642080078E+02
 1.270948559E+03	 5.604799805E+02
 1.271491506E+03	 5.624039917E+02
 1.272034396E+03	 5.636500244E+02
 1.272577230E+03	 5.621519775E+02
 1.273120007E+03	 5.647559814E+02
 1.273662728E+03	 5.675939941E+02
 1.274205393E+03	 5.654960327E+02
 1.274748002E+03	 5.616919556E+02
 1.275290554E+03	 5.657860107E+02
 1.275833050E+03	 5.629779663E+02
 1.276375489E+03	 5.666239624E+02
 1.276917872E+03	 5.656919556E+02
 1.277460199E+03	 5.668840332E+02
 1.278002470E+03	 5.657180176E+02
 1.278544684E+03	 5.643999634E+02
 1.279086842E+03	 5.636040039E+02
 1.279628943E+03	 5.639400024E+02
 1.280170989E+03	 5.644239502E+02
 1.280712978E+03	 5.631279907E+02
 1.281254910E+03	 5.656879883E+02
 1.281796787E+03	 5.648160400E+02
 1.282338607E+03	 5.615780029E+02
 1.282880371E+03	 5.638459473E+02
 1.283422078E+03	 5.646640015E+02
 1.283963729E+03	 5.708720093E+02
 1.284505324E+03	 5.783859863E+02
 1.285046863E+03	 5.879660034E+02
 1.285588345E+03	 5.974639893E+02
 1.286129772E+03	 5.885319824E+02
 1.286671142E+03	 5.711319580E+02
 1.287212455E+03	 5.683580322E+02
 1.287753713E+03	 5.639500122E+02
 1.288294914E+03	 5.657620239E+02
 1.288836059E+03	 5.657960205E+02
 1.289377147E+03	 5.648140259E+02
 1.289918180E+03	 5.652139893E+02
 1.290459156E+03	 5.627460327E+02
 1.291000076E+03	 5.680099487E+02
 1.291540940E+03	 5.650140381E+02
 1.292081747E+03	 5.621079712E+02
 1.292622499E+03	 5.648699951E+02
 1.293163194E+03	 5.650440063E+02
 1.293703833E+03	 5.645380249E+02
 1.294244415E+03	 5.613800049E+02
 1.294784942E+03	 5.629979858E+02
 1.295325412E+03	 5.665560303E+02
 1.295865826E+03	 5.628440552E+02
 1.296406184E+03	 5.640880127E+02
 1.296946486E+03	 5.686279907E+02
 1.297486731E+03	 5.616440430E+02
 1.298026921E+03	 5.661519775E+02
 1.298567054E+03	 5.657299805E+02
 1.299107131E+03	 5.628699951E+02
 1.299647152E+03	 5.659899902E+02
 1.300187116E+03	 5.714920044E+02
 1.300727025E+03	 5.699639893E+02
 1.301266877E+03	 5.664060059E+02
 1.301806673E+03	 5.628280029E+02
 1.302346413E+03	 5.680399780E+02
 1.302886097E+03	 5.645040283E+02
 1.303425725E+03	 5.611640015E+02
 1.303965297E+03	 5.635460205E+02
 1.304504812E+03	 5.610780029E+02
 1.305044272E+03	 5.660859985E+02
 1.305583675E+03	 5.664739990E+02
 1.306123022E+03	 5.631119995E+02
 1.306662313E+03	 5.653240356E+02
 1.307201548E+03	 5.637839966E+02
 1.307740727E+03	 5.639660034E+02
 1.308279849E+03	 5.604940186E+02
 1.308818916E+03	 5.652940063E+02
 1.309357926E+03	 5.598219604E+02
 1.309896881E+03	 5.627700195E+02
 1.310435779E+03	 5.632979736E+02
 1.310974621E+03	 5.654639893E+02
 1.311513407E+03	 5.626260376E+02
 1.312052137E+03	 5.668640137E+02
 1.312590811E+03	 5.637659912E+02
 1.313129429E+03	 5.611619873E+02
 1.313667991E+03	 5.626079712E+02
 1.314206497E+03	 5.628419800E+02
 1.314744946E+03	 5.610900269E+02
 1.315283340E+03	 5.661979980E+02
 1.315821678E+03	 5.634799805E+02
 1.316359959E+03	 5.655000000E+02
 1.316898184E+03	 5.663480225E+02
 1.317436354E+03	 5.636840210E+02
 1.317974467E+03	 5.664099731E+02
 1.318512525E+03	 5.620359497E+02
 1.319050526E+03	 5.653800049E+02
 1.319588471E+03	 5.645419922E+02
 1.320126360E+03	 5.629720459E+02
 1.320664194E+03	 5.669679565E+02
 1.321201971E+03	 5.618779907E+02
 1.321739692E+03	 5.631119995E+02
 1.322277357E+03	 5.682980347E+02
 1.322814967E+03	 5.643759766E+02
 1.323352520E+03	 5.594000244E+02
 1.323890017E+03	 5.659979858E+02
 1.324427458E+03	 5.671500244E+02
 1.324964843E+03	 5.604739990E+02
 1.325502173E+03	 5.643579712E+02
 1.326039446E+03	 5.653840332E+02
 1.326576663E+03	 5.656259766E+02
 1.327113824E+03	 5.647699585E+02
 1.327650930E+03	 5.643619995E+02
 1.328187979E+03	 5.691919556E+02
 1.328724972E+03	 5.627280273E+02
 1.329261910E+03	 5.661840210E+02
 1.329798791E+03	 5.616220093E+02
 1.330335617E+03	 5.634439697E+02
 1.330872386E+03	 5.635999756E+02
 1.331409100E+03	 5.606439819E+02
 1.331945758E+03	 5.656979980E+02
 1.332482360E+03	 5.597159424E+02
 1.333018905E+03	 5.634680176E+02
 1.333555395E+03	 5.613280029E+02
 1.334091829E+03	 5.623959961E+02
 1.334628207E+03	 5.634599609E+02
 1.335164529E+03	 5.670780029E+02
 1.335700796E+03	 5.603579712E+02
 1.336237006E+03	 5.638980103E+02
 1.336773160E+03	 5.637280273E+02
 1.337309259E+03	 5.671840210E+02
 1.337845301E+03	 5.631579590E+02
 1.338381288E+03	 5.618339844E+02
 1.338917219E+03	 5.630260010E+02
 1.339453094E+03	 5.651059570E+02
 1.339988913E+03	 5.643959961E+02
 1.340524676E+03	 5.646560059E+02
 1.341060383E+03	 5.647319946E+02
 1.341596034E+03	 5.617999878E+02
 1.342131630E+03	 5.626220093E+02
 1.342667170E+03	 5.618599854E+02
 1.343202653E+03	 5.642259521E+02
 1.343738081E+03	 5.638259888E+02
 1.344273453E+03	 5.619879761E+02
 1.344808770E+03	 5.672259521E+02
 1.345344030E+03	 5.625919800E+02
 1.345879235E+03	 5.632980347E+02
 1.346414383E+03	 5.651359863E+02
 1.346949476E+03	 5.620000000E+02
 1.347484513E+03	 5.653540039E+02
 1.348019494E+03	 5.648339844E+02
 1.348554420E+03	 5.639960327E+02
 1.349089289E+03	 5.629699707E+02
 1.349624103E+03	 5.646719971E+02
 1.350158861E+03	 5.640219727E+02
 1.350693563E+03	 5.620139771E+02
 1.351228209E+03	 5.598640137E+02
 1.351762800E+03	 5.687579956E+02
 1.352297334E+03	 5.630940552E+02
 1.352831813E+03	 5.651620483E+02
 1.353366236E+03	 5.660260010E+02
 1.353900604E+03	 5.663660278E+02
 1.354434915E+03	 5.629699707E+02
 1.354969171E+03	 5.605999756E+02
 1.355503371E+03	 5.622980347E+02
 1.356037515E+03	 5.608339844E+02
 1.356571604E+03	 5.635360107E+02
 1.357105636E+03	 5.612340088E+02
 1.357639613E+03	 5.656499634E+02
 1.358173535E+03	 5.614299927E+02
 1.358707400E+03	 5.640899658E+02
 1.359241210E+03	 5.666599731E+02
 1.359774964E+03	 5.644299927E+02
 1.360308662E+03	 5.618300171E+02
 1.360842304E+03	 5.648379517E+02
 1.361375891E+03	 5.629960327E+02
 1.361909422E+03	 5.648339844E+02
 1.362442897E+03	 5.614680176E+02
 1.362976317E+03	 5.636599731E+02
 1.363509680E+03	 5.624559937E+02
 1.364042989E+03	 5.651620483E+02
 1.364576241E+03	 5.653840332E+02
 1.365109438E+03	 5.632980347E+02
 1.365642579E+03	 5.634599609E+02
 1.366175664E+03	 5.623919678E+02
 1.366708693E+03	 5.621660156E+02
 1.367241667E+03	 5.641740112E+02
 1.367774585E+03	 5.636900024E+02
 1.368307448E+03	 5.621199951E+02
 1.368840255E+03	 5.627620239E+02
 1.369373006E+03	 5.617579956E+02
 1.369905701E+03	 5.627200317E+02
 1.370438341E+03	 5.632039795E+02
 1.370970925E+03	 5.630559692E+02
 1.371503454E+03	 5.628640137E+02
 1.372035926E+03	 5.632980347E+02
 1.372568344E+03	 5.666599731E+02
 1.373100705E+03	 5.624599609E+02
 1.373633011E+03	 5.609760132E+02
 1.374165261E+03	 5.615659790E+02
 1.374697456E+03	 5.598859863E+02
 1.375229595E+03	 5.641320190E+02
 1.375761678E+03	 5.617839966E+02
 1.376293705E+03	 5.641660156E+02
 1.376825677E+03	 5.646259766E+02
 1.377357594E+03	 5.661879883E+02
 1.377889455E+03	 5.658719482E+02
 1.378421260E+03	 5.638900146E+02
 1.378953009E+03	 5.635280151E+02
 1.379484703E+03	 5.622599487E+02
 1.380016342E+03	 5.648460083E+02
 1.380547924E+03	 5.589620361E+02
 1.381079452E+03	 5.638519897E+02
 1.381610923E+03	 5.642819824E+02
 1.382142339E+03	 5.626640015E+02
 1.382673699E+03	 5.619240112E+02
 1.383205004E+03	 5.616640015E+02
 1.383736253E+03	 5.663500366E+02
 1.384267447E+03	 5.652640381E+02
 1.384798585E+03	 5.619760132E+02
 1.385329668E+03	 5.633619995E+02
 1.385860695E+03	 5.622599487E+02
 1.386391666E+03	 5.653200073E+02
 1.386922582E+03	 5.620000000E+02
 1.387453442E+03	 5.692719727E+02
 1.387984247E+03	 5.766599731E+02
 1.388514996E+03	 6.039240112E+02
 1.389045690E+03	 6.279199829E+02
 1.389576328E+03	 5.918300171E+02
 1.390106910E+03	 5.690899658E+02
 1.390637437E+03	 5.647919922E+02
 1.391167909E+03	 5.647999878E+02
 1.391698325E+03	 5.662719727E+02
 1.392228685E+03	 5.674119873E+02
 1.392758990E+03	 5.622680054E+02
 1.393289240E+03	 5.636719971E+02
 1.393819434E+03	 5.633919678E+02
 1.394349572E+03	 5.613239746E+02
 1.394879655E+03	 5.655960083E+02
 1.395409683E+03	 5.614420166E+02
 1.395939655E+03	 5.622559814E+02
 1.396469571E+03	 5.631919556E+02
 1.396999432E+03	 5.606940308E+02
 1.397529237E+03	 5.596560059E+02
 1.398058987E+03	 5.619620361E+02
 1.398588682E+03	 5.606679688E+02
 1.399118321E+03	 5.628980103E+02
 1.399647905E+03	 5.613699951E+02
 1.400177433E+03	 5.606180420E+02
 1.400706906E+03	 5.604899902E+02
 1.401236323E+03	 5.645960083E+02
 1.401765685E+03	 5.611620483E+02
 1.402294991E+03	 5.654599609E+02
 1.402824242E+03	 5.615020142E+02
 1.403353437E+03	 5.628420410E+02
 1.403882577E+03	 5.580260010E+02
 1.404411662E+03	 5.649699707E+02
 1.404940691E+03	 5.624000244E+02
 1.405469665E+03	 5.620079956E+02
 1.405998583E+03	 5.595239868E+02
 1.406527446E+03	 5.629059448E+02
 1.407056253E+03	 5.596040039E+02
 1.407585005E+03	 5.619240112E+02
 1.408113702E+03	 5.632340088E+02
 1.408642343E+03	 5.614719849E+02
 1.409170929E+03	 5.610139771E+02
 1.409699460E+03	 5.632940063E+02
 1.410227935E+03	 5.645999756E+02
 1.410756354E+03	 5.656679688E+02
 1.411284719E+03	 5.638519897E+02
 1.411813028E+03	 5.610559692E+02
 1.412341281E+03	 5.600000000E+02
 1.412869479E+03	 5.616940308E+02
 1.413397622E+03	 5.612479858E+02
 1.413925710E+03	 5.636860352E+02
 1.414453742E+03	 5.606560059E+02
 1.414981718E+03	 5.623239746E+02
 1.415509640E+03	 5.679339600E+02
 1.416037506E+03	 5.646520386E+02
 1.416565316E+03	 5.596900024E+02
 1.417093072E+03	 5.587659912E+02
 1.417620772E+03	 5.571320190E+02
 1.418148416E+03	 5.605659790E+02
 1.418676005E+03	 5.616300049E+02
 1.419203539E+03	 5.585540161E+02
 1.419731018E+03	 5.625100098E+02
 1.420258441E+03	 5.617579956E+02
 1.420785809E+03	 5.616860352E+02
 1.421313122E+03	 5.606760254E+02
 1.421840379E+03	 5.619960327E+02
 1.422367582E+03	 5.578859863E+02
 1.422894728E+03	 5.594940186E+02
 1.423421820E+03	 5.614299927E+02
 1.423948856E+03	 5.588940430E+02
 1.424475837E+03	 5.599320068E+02
 1.425002762E+03	 5.610000000E+02
 1.425529633E+03	 5.603239746E+02
 1.426056448E+03	 5.611420288E+02
 1.426583207E+03	 5.598599854E+02
 1.427109912E+03	 5.580859985E+02
 1.427636561E+03	 5.637159424E+02
 1.428163155E+03	 5.612940063E+02
 1.428689694E+03	 5.630479736E+02
 1.429216177E+03	 5.581840210E+02
 1.429742605E+03	 5.591280518E+02
 1.430268978E+03	 5.601459961E+02
 1.430795296E+03	 5.589420166E+02
 1.431321558E+03	 5.579080200E+02
 1.431847765E+03	 5.600659790E+02
 1.432373917E+03	 5.578699951E+02
 1.432900014E+03	 5.621979980E+02
 1.433426056E+03	 5.574199829E+02
 1.433952042E+03	 5.649459839E+02
 1.434477973E+03	 5.627000122E+02
 1.435003849E+03	 5.626660156E+02
 1.435529669E+03	 5.594620361E+02
 1.436055435E+03	 5.640280151E+02
 1.436581145E+03	 5.609260254E+02
 1.437106800E+03	 5.590620117E+02
 1.437632399E+03	 5.607399902E+02
 1.438157944E+03	 5.606619873E+02
 1.438683433E+03	 5.585019531E+02
 1.439208868E+03	 5.616459961E+02
 1.439734247E+03	 5.598459473E+02
 1.440259570E+03	 5.610339966E+02
 1.440784839E+03	 5.561360474E+02
 1.441310053E+03	 5.622380371E+02
 1.441835211E+03	 5.632260132E+02
 1.442360314E+03	 5.598459473E+02
 1.442885362E+03	 5.597360229E+02
 1.443410355E+03	 5.603280029E+02
 1.443935292E+03	 5.605240479E+02
 1.444460175E+03	 5.608559570E+02
 1.444985002E+03	 5.572639771E+02
 1.445509774E+03	 5.601500244E+02
 1.446034491E+03	 5.608040161E+02
 1.446559153E+03	 5.625580444E+02
 1.447083760E+03	 5.586780396E+02
 1.447608312E+03	 5.620180054E+02
 1.448132808E+03	 5.593439941E+02
 1.448657250E+03	 5.594140015E+02
 1.449181636E+03	 5.613460083E+02
 1.449705967E+03	 5.616179810E+02
 1.450230243E+03	 5.598059692E+02
 1.450754464E+03	 5.609320068E+02
 1.451278630E+03	 5.649619751E+02
 1.451802741E+03	 5.599619751E+02
 1.452326797E+03	 5.608859863E+02
 1.452850797E+03	 5.612680054E+02
 1.453374743E+03	 5.574519653E+02
 1.453898633E+03	 5.605319824E+02
 1.454422468E+03	 5.600859985E+02
 1.454946249E+03	 5.575040283E+02
 1.455469974E+03	 5.565539551E+02
 1.455993644E+03	 5.576400146E+02
 1.456517259E+03	 5.577420044E+02
 1.457040819E+03	 5.580059814E+02
 1.457564324E+03	 5.616179810E+02
 1.458087773E+03	 5.610939941E+02
 1.458611168E+03	 5.598699951E+02
 1.459134508E+03	 5.589500122E+02
 1.459657793E+03	 5.632139893E+02
 1.460181022E+03	 5.581799927E+02
 1.460704197E+03	 5.594780273E+02
 1.461227316E+03	 5.592500000E+02
 1.461750381E+03	 5.584099731E+02
 1.462273390E+03	 5.577039795E+02
 1.462796345E+03	 5.618399658E+02
 1.463319244E+03	 5.624739990E+02
 1.463842089E+03	 5.603720093E+02
 1.464364878E+03	 5.609759521E+02
 1.464887613E+03	 5.597299805E+02
 1.465410292E+03	 5.610520020E+02
 1.465932916E+03	 5.629079590E+02
 1.466455486E+03	 5.589619751E+02
 1.466978000E+03	 5.637500000E+02
 1.467500460E+03	 5.595879517E+02
 1.468022864E+03	 5.593419800E+02
 1.468545214E+03	 5.603959961E+02
 1.469067508E+03	 5.588559570E+02
 1.469589748E+03	 5.590599976E+02
 1.470111932E+03	 5.578300171E+02
 1.470634062E+03	 5.575999756E+02
 1.471156136E+03	 5.606419678E+02
 1.471678156E+03	 5.636419678E+02
 1.472200120E+03	 5.649700317E+02
 1.472722030E+03	 5.589819946E+02
 1.473243885E+03	 5.585980225E+02
 1.473765685E+03	 5.613480225E+02
 1.474287430E+03	 5.605599976E+02
 1.474809120E+03	 5.580239868E+02
 1.475330755E+03	 5.570319824E+02
 1.475852335E+03	 5.597979736E+02
 1.476373860E+03	 5.589600220E+02
 1.476895330E+03	 5.621220093E+02
 1.477416745E+03	 5.569339600E+02
 1.477938106E+03	 5.555459595E+02
 1.478459411E+03	 5.586139526E+02
 1.478980662E+03	 5.619240112E+02
 1.479501857E+03	 5.587239990E+02
 1.480022998E+03	 5.612300415E+02
 1.480544084E+03	 5.575079956E+02
 1.481065115E+03	 5.584299927E+02
 1.481586091E+03	 5.602219849E+02
 1.482107012E+03	 5.597579956E+02
 1.482627878E+03	 5.574680176E+02
 1.483148690E+03	 5.591239624E+02
 1.483669446E+03	 5.603359985E+02
 1.484190148E+03	 5.559699707E+02
 1.484710794E+03	 5.563740234E+02
 1.485231386E+03	 5.591400146E+02
 1.485751923E+03	 5.604940186E+02
 1.486272406E+03	 5.579280396E+02
 1.486792833E+03	 5.535139771E+02
 1.487313205E+03	 5.572000122E+02
 1.487833523E+03	 5.576040039E+02
 1.488353786E+03	 5.593439941E+02
 1.488873994E+03	 5.584039917E+02
 1.489394147E+03	 5.560159912E+02
 1.489914245E+03	 5.567780151E+02
 1.490434288E+03	 5.623819580E+02
 1.490954277E+03	 5.541519775E+02
 1.491474211E+03	 5.564080200E+02
 1.491994090E+03	 5.592680054E+02
 1.492513914E+03	 5.613220215E+02
 1.493033683E+03	 5.586539917E+02
 1.493553398E+03	 5.568499756E+02
 1.494073057E+03	 5.548719482E+02
 1.494592662E+03	 5.598020020E+02
 1.495112212E+03	 5.577299805E+02
 1.495631708E+03	 5.597640381E+02
 1.496151148E+03	 5.581259766E+02
 1.496670534E+03	 5.583080444E+02
 1.497189865E+03	 5.573679810E+02
 1.497709141E+03	 5.581220093E+02
 1.498228362E+03	 5.565599976E+02
 1.498747529E+03	 5.559899902E+02
 1.499266641E+03	 5.561220093E+02
 1.499785698E+03	 5.619059448E+02
 1.500304700E+03	 5.595000000E+02
 1.500823648E+03	 5.570579834E+02
 1.501342540E+03	 5.571779785E+02
 1.501861379E+03	 5.593980103E+02
 1.502380162E+03	 5.560839844E+02
 1.502898890E+03	 5.594959717E+02
 1.503417564E+03	 5.572880249E+02
 1.503936183E+03	 5.557640381E+02
 1.504454748E+03	 5.566320190E+02
 1.504973257E+03	 5.582200317E+02
 1.505491712E+03	 5.578200073E+02
 1.506010112E+03	 5.587260132E+02
 1.506528458E+03	 5.579559937E+02
 1.507046748E+03	 5.566240234E+02
 1.507564984E+03	 5.577899780E+02
 1.508083166E+03	 5.583860474E+02
 1.508601292E+03	 5.576879883E+02
 1.509119364E+03	 5.555180054E+02
 1.509637381E+03	 5.579640503E+02
 1.510155344E+03	 5.564159546E+02
 1.510673252E+03	 5.643200073E+02
 1.511191105E+03	 5.600279541E+02
 1.511708903E+03	 5.582119751E+02
 1.512226647E+03	 5.591820068E+02
 1.512744336E+03	 5.545599976E+02
 1.513261971E+03	 5.593560181E+02
 1.513779550E+03	 5.604320068E+02
 1.514297076E+03	 5.562319946E+02
 1.514814546E+03	 5.586199951E+02
 1.515331962E+03	 5.589899902E+02
 1.515849323E+03	 5.553819580E+02
 1.516366629E+03	 5.600540161E+02
 1.516883881E+03	 5.557519531E+02
 1.517401078E+03	 5.576159668E+02
 1.517918221E+03	 5.588880005E+02
 1.518435309E+03	 5.557340088E+02
 1.518952342E+03	 5.563299561E+02
 1.519469321E+03	 5.593080444E+02
 1.519986245E+03	 5.560919800E+02
 1.520503114E+03	 5.597640381E+02
 1.521019929E+03	 5.571040039E+02
 1.521536689E+03	 5.619640503E+02
 1.522053395E+03	 5.574479980E+02
 1.522570046E+03	 5.583900146E+02
 1.523086642E+03	 5.567640381E+02
 1.523603184E+03	 5.556359863E+02
 1.524119671E+03	 5.539980469E+02
 1.524636103E+03	 5.572659912E+02
 1.525152481E+03	 5.577680054E+02
 1.525668805E+03	 5.571680298E+02
 1.526185073E+03	 5.574320068E+02
 1.526701288E+03	 5.576660156E+02
 1.527217447E+03	 5.556699829E+02
 1.527733552E+03	 5.574400024E+02
 1.528249603E+03	 5.554279785E+02
 1.528765599E+03	 5.582999878E+02
 1.529281540E+03	 5.594920044E+02
 1.529797427E+03	 5.562880249E+02
 1.530313259E+03	 5.599459839E+02
 1.530829037E+03	 5.551299438E+02
 1.531344760E+03	 5.572100220E+02
 1.531860429E+03	 5.578320313E+02
 1.532376043E+03	 5.601419678E+02
 1.532891602E+03	 5.531860352E+02
 1.533407107E+03	 5.576320190E+02
 1.533922558E+03	 5.563380127E+02
 1.534437954E+03	 5.610139771E+02
 1.534953295E+03	 5.583380127E+02
 1.535468582E+03	 5.564920044E+02
 1.535983815E+03	 5.576580200E+02
 1.536498993E+03	 5.558359985E+02
 1.537014116E+03	 5.575760498E+02
 1.537529185E+03	 5.590020142E+02
 1.538044199E+03	 5.595939941E+02
 1.538559159E+03	 5.608660278E+02
 1.539074064E+03	 5.585640259E+02
 1.539588915E+03	 5.581680298E+02
 1.540103712E+03	 5.577719727E+02
 1.540618454E+03	 5.542959595E+02
 1.541133141E+03	 5.575339966E+02
 1.541647774E+03	 5.581340332E+02
 1.542162353E+03	 5.580020142E+02
 1.542676877E+03	 5.567940063E+02
 1.543191346E+03	 5.549340210E+02
 1.543705761E+03	 5.552739868E+02
 1.544220122E+03	 5.563080444E+02
 1.544734428E+03	 5.563939819E+02
 1.545248680E+03	 5.575339966E+02
 1.545762877E+03	 5.574400024E+02
 1.546277020E+03	 5.583720093E+02
 1.546791109E+03	 5.597379761E+02
 1.547305143E+03	 5.573419800E+02
 1.547819122E+03	 5.567219849E+02
 1.548333047E+03	 5.594580078E+02
 1.548846918E+03	 5.586320190E+02
 1.549360734E+03	 5.547680054E+02
 1.549874496E+03	 5.537600098E+02
 1.550388204E+03	 5.525000000E+02
 1.550901857E+03	 5.552239990E+02
 1.551415455E+03	 5.593259888E+02
 1.551929000E+03	 5.562919922E+02
 1.552442489E+03	 5.577940063E+02
 1.552955925E+03	 5.586699829E+02
 1.553469306E+03	 5.583720093E+02
 1.553982632E+03	 5.580739746E+02
 1.554495905E+03	 5.549219971E+02
 1.555009123E+03	 5.603679810E+02
 1.555522286E+03	 5.551380005E+02
 1.556035395E+03	 5.576440430E+02
 1.556548450E+03	 5.572739868E+02
 1.557061450E+03	 5.586399536E+02
 1.557574396E+03	 5.585800171E+02
 1.558087288E+03	 5.560360107E+02
 1.558600125E+03	 5.566240234E+02
 1.559112908E+03	 5.572579956E+02
 1.559625637E+03	 5.563679810E+02
 1.560138311E+03	 5.591299438E+02
 1.560650931E+03	 5.573679810E+02
 1.561163497E+03	 5.562020264E+02
 1.561676008E+03	 5.569039917E+02
 1.562188465E+03	 5.553599854E+02
 1.562700867E+03	 5.563760376E+02
 1.563213216E+03	 5.553939819E+02
 1.563725509E+03	 5.548660278E+02
 1.564237749E+03	 5.546279907E+02
 1.564749934E+03	 5.520059814E+02
 1.565262065E+03	 5.605719604E+02
 1.565774142E+03	 5.546580200E+02
 1.566286164E+03	 5.589000244E+02
 1.566798132E+03	 5.583679810E+02
 1.567310046E+03	 5.573720093E+02
 1.567821906E+03	 5.601040039E+02
 1.568333711E+03	 5.577640381E+02
 1.568845462E+03	 5.534540405E+02
 1.569357158E+03	 5.575299683E+02
 1.569868801E+03	 5.554619751E+02
 1.570380389E+03	 5.610360107E+02
 1.570891922E+03	 5.581900024E+02
 1.571403402E+03	 5.568120117E+02
 1.571914827E+03	 5.578839722E+02
 1.572426198E+03	 5.580619507E+02
 1.572937515E+03	 5.581900024E+02
 1.573448777E+03	 5.569299927E+02
 1.573959985E+03	 5.564880371E+02
 1.574471139E+03	 5.576839600E+02
 1.574982239E+03	 5.549100342E+02
 1.575493285E+03	 5.565000000E+02
 1.576004276E+03	 5.553439941E+02
 1.576515213E+03	 5.591860352E+02
 1.577026096E+03	 5.587699585E+02
 1.577536924E+03	 5.614499512E+02
 1.578047698E+03	 5.600120239E+02
 1.578558419E+03	 5.607620239E+02
 1.579069084E+03	 5.560980225E+02
 1.579579696E+03	 5.597400513E+02
 1.580090254E+03	 5.584680176E+02
 1.580600757E+03	 5.578519897E+02
 1.581111206E+03	 5.628900146E+02
 1.581621601E+03	 5.555799561E+02
 1.582131941E+03	 5.570219727E+02
 1.582642228E+03	 5.602559814E+02
 1.583152460E+03	 5.581359863E+02
 1.583662638E+03	 5.594979858E+02
 1.584172762E+03	 5.549500122E+02
 1.584682832E+03	 5.573280029E+02
 1.585192847E+03	 5.564940186E+02
 1.585702809E+03	 5.564299927E+02
 1.586212716E+03	 5.561239624E+02
 1.586722569E+03	 5.574639893E+02
 1.587232368E+03	 5.564420166E+02
 1.587742113E+03	 5.563479614E+02
 1.588251803E+03	 5.544680176E+02
 1.588761440E+03	 5.569140015E+02
 1.589271022E+03	 5.565059814E+02
 1.589780550E+03	 5.574499512E+02
 1.590290024E+03	 5.589440308E+02
 1.590799444E+03	 5.572379761E+02
 1.591308810E+03	 5.566119995E+02
 1.591818121E+03	 5.567579956E+02
 1.592327379E+03	 5.579059448E+02
