1042.414189	689.5999756
1042.980685	688.0
1043.547124	691.2000122
1044.113505	685.7999878
1044.679828	686.5999756
1045.246093	685.5999756
1045.8123	686.2000122
1046.378449	682.5999756
1046.94454	683.7999878
1047.510573	684.4000244
1048.076548	679.4000244
1048.642465	680.2000122
1049.208325	678.7999878
1049.774126	679.7999878
1050.339869	678.0
1050.905555	681.4000244
1051.471183	677.2000122
1052.036752	678.5999756
1052.602264	674.7999878
1053.167718	678.2000122
1053.733114	678.5999756
1054.298452	678.4000244
1054.863733	681.0
1055.428955	675.4000244
1055.994119	678.4000244
1056.559226	674.7999878
1057.124275	675.2000122
1057.689266	673.7999878
1058.254199	679.5999756
1058.819074	675.5999756
1059.383891	676.5999756
1059.94865	675.0
1060.513352	674.0
1061.077996	677.7999878
1061.642582	674.4000244
1062.20711	674.2000122
1062.77158	673.5999756
1063.335992	676.0
1063.900347	674.5999756
1064.464643	674.4000244
1065.028882	673.7999878
1065.593063	675.4000244
1066.157187	675.7999878
1066.721252	672.2000122
1067.28526	677.0
1067.84921	672.4000244
1068.413102	676.4000244
1068.976936	677.0
1069.540713	673.4000244
1070.104431	683.0
1070.668092	669.4000244
1071.231696	675.0
1071.795241	670.4000244
1072.358729	674.5999756
1072.922159	674.2000122
1073.485531	676.4000244
1074.048845	674.5999756
1074.612102	675.4000244
1075.175301	674.2000122
1075.738442	674.0
1076.301525	673.2000122
1076.864551	674.7999878
1077.427519	673.7999878
1077.990429	672.4000244
1078.553281	673.4000244
1079.116076	673.5999756
1079.678813	673.4000244
1080.241492	673.5999756
1080.804114	674.0
1081.366678	674.4000244
1081.929184	671.2000122
1082.491633	670.7999878
1083.054024	677.2000122
1083.616357	674.2000122
1084.178632	672.0
1084.74085	674.7999878
1085.30301	672.2000122
1085.865113	673.5999756
1086.427158	674.7999878
1086.989145	671.2000122
1087.551074	671.4000244
1088.112946	672.0
1088.67476	671.2000122
1089.236517	672.0
1089.798216	672.2000122
1090.359857	676.0
1090.92144	672.2000122
1091.482966	674.4000244
1092.044435	673.4000244
1092.605845	670.2000122
1093.167199	672.0
1093.728494	673.2000122
1094.289732	673.5999756
1094.850912	672.5999756
1095.412035	682.2000122
1095.9731	669.4000244
1096.534107	672.2000122
1097.095057	676.0
1097.65595	674.7999878
1098.216784	673.2000122
1098.777561	673.0
1099.338281	671.0
1099.898943	670.5999756
1100.459547	670.5999756
1101.020094	673.2000122
1101.580584	674.7999878
1102.141015	675.0
1102.701389	671.5999756
1103.261706	669.0
1103.821965	671.0
1104.382167	671.0
1104.942311	671.7999878
1105.502397	672.0
1106.062426	673.0
1106.622398	672.0
1107.182312	671.4000244
1107.742168	672.5999756
1108.301967	671.0
1108.861708	672.4000244
1109.421392	671.2000122
1109.981019	674.0
1110.540587	671.7999878
1111.100099	673.7999878
1111.659553	672.4000244
1112.218949	671.5999756
1112.778288	671.5999756
1113.33757	669.0
1113.896794	670.5999756
1114.45596	669.4000244
1115.015069	670.4000244
1115.574121	672.0
1116.133115	671.5999756
1116.692052	669.7999878
1117.250931	675.0
1117.809753	672.0
1118.368517	671.5999756
1118.927224	670.0
1119.485873	671.4000244
1120.044465	671.0
1120.603	669.2000122
1121.161477	671.7999878
1121.719897	670.5999756
1122.278259	672.7999878
1122.836564	672.2000122
1123.394812	668.4000244
1123.953002	671.4000244
1124.511135	671.7999878
1125.06921	669.2000122
1125.627228	672.0
1126.185189	671.0
1126.743092	670.0
1127.300938	671.0
1127.858726	671.4000244
1128.416457	669.7999878
1128.974131	670.5999756
1129.531748	669.7999878
1130.089307	670.2000122
1130.646808	670.5999756
1131.204252	674.4000244
1131.761639	671.5999756
1132.318969	671.2000122
1132.876241	670.7999878
1133.433456	670.4000244
1133.990614	672.4000244
1134.547714	671.0
1135.104757	672.4000244
1135.661743	674.7999878
1136.218671	670.7999878
1136.775542	672.2000122
1137.332356	671.4000244
1137.889112	672.4000244
1138.445811	674.4000244
1139.002453	671.0
1139.559037	674.4000244
1140.115565	670.0
1140.672035	671.4000244
1141.228447	671.5999756
1141.784803	671.2000122
1142.341101	672.2000122
1142.897342	673.7999878
1143.453525	670.4000244
1144.009651	673.2000122
1144.565721	671.7999878
1145.121732	672.4000244
1145.677687	669.4000244
1146.233584	670.5999756
1146.789424	670.7999878
1147.345207	673.7999878
1147.900933	669.0
1148.456601	669.5999756
1149.012212	673.7999878
1149.567766	672.4000244
1150.123263	674.4000244
1150.678702	668.5999756
1151.234085	670.4000244
1151.78941	675.2000122
1152.344678	672.7999878
1152.899888	676.2000122
1153.455042	671.4000244
1154.010138	671.4000244
1154.565177	671.2000122
1155.120159	672.4000244
1155.675084	672.0
1156.229951	673.2000122
1156.784762	673.7999878
1157.339515	670.0
1157.894211	667.7999878
1158.44885	669.4000244
1159.003432	673.0
1159.557956	671.7999878
1160.112424	672.7999878
1160.666834	672.4000244
1161.221187	674.2000122
1161.775483	671.7999878
1162.329722	671.2000122
1162.883904	672.7999878
1163.438029	671.7999878
1163.992096	671.0
1164.546107	669.4000244
1165.10006	672.4000244
1165.653956	670.7999878
1166.207795	670.4000244
1166.761577	672.4000244
1167.315302	669.7999878
1167.86897	671.0
1168.422581	673.4000244
1168.976134	672.4000244
1169.529631	670.5999756
1170.08307	674.0
1170.636453	672.5999756
1171.189778	672.0
1171.743046	670.7999878
1172.296257	675.4000244
1172.849412	670.5999756
1173.402509	673.2000122
1173.955549	670.0
1174.508532	668.4000244
1175.061458	672.4000244
1175.614327	670.2000122
1176.167138	673.7999878
1176.719893	668.4000244
1177.272591	673.0
1177.825232	668.2000122
1178.377816	671.2000122
1178.930342	673.0
1179.482812	671.2000122
1180.035225	671.4000244
1180.587581	670.7999878
1181.139879	670.2000122
1181.692121	669.7999878
1182.244306	671.2000122
1182.796434	670.2000122
1183.348504	668.4000244
1183.900518	673.4000244
1184.452475	673.2000122
1185.004375	672.7999878
1185.556218	669.7999878
1186.108004	670.5999756
1186.659733	671.7999878
1187.211405	668.5999756
1187.76302	668.5999756
1188.314578	671.5999756
1188.866079	671.7999878
1189.417523	672.0
1189.96891	670.5999756
1190.520241	669.5999756
1191.071514	672.0
1191.622731	668.4000244
1192.17389	673.2000122
1192.724993	670.5999756
1193.276039	687.0
1193.827027	670.2000122
1194.377959	671.5999756
1194.928834	672.0
1195.479653	673.5999756
1196.030414	665.2000122
1196.581118	671.7999878
1197.131766	670.0
1197.682356	672.7999878
1198.23289	671.0
1198.783367	672.4000244
1199.333786	672.0
1199.88415	671.7999878
1200.434456	670.2000122
1200.984705	673.7999878
1201.534898	668.0
1202.085033	669.2000122
1202.635112	670.7999878
1203.185134	671.5999756
1203.735099	671.2000122
1204.285007	670.5999756
1204.834859	672.4000244
1205.384653	672.5999756
1205.934391	674.2000122
1206.484072	670.7999878
1207.033696	672.5999756
1207.583263	671.4000244
1208.132774	669.7999878
1208.682228	674.2000122
1209.231624	673.5999756
1209.780965	671.4000244
1210.330248	670.0
1210.879474	670.0
1211.428644	670.0
1211.977757	672.2000122
1212.526813	670.0
1213.075813	672.4000244
1213.624755	671.5999756
1214.173641	671.2000122
1214.72247	672.5999756
1215.271242	673.2000122
1215.819958	669.5999756
1216.368617	673.2000122
1216.917219	669.4000244
1217.465764	669.4000244
1218.014253	672.4000244
1218.562685	672.4000244
1219.11106	668.0
1219.659378	671.5999756
1220.20764	672.7999878
1220.755845	672.2000122
1221.303993	672.4000244
1221.852085	671.2000122
1222.400119	671.7999878
1222.948097	672.0
1223.496019	671.5999756
1224.043883	668.7999878
1224.591691	671.7999878
1225.139443	670.4000244
1225.687137	675.4000244
1226.234775	668.5999756
1226.782357	669.5999756
1227.329881	672.4000244
1227.877349	672.2000122
1228.42476	672.5999756
1228.972115	674.2000122
1229.519413	668.2000122
1230.066654	672.0
1230.613839	670.5999756
1231.160967	672.0
1231.708038	674.4000244
1232.255053	671.0
1232.802011	670.0
1233.348912	672.0
1233.895757	671.4000244
1234.442545	669.0
1234.989277	672.2000122
1235.535951	669.5999756
1236.08257	670.7999878
1236.629131	672.7999878
1237.175636	668.2000122
1237.722085	671.0
1238.268477	670.2000122
1238.814812	670.7999878
1239.361091	671.2000122
1239.907313	672.2000122
1240.453478	672.5999756
1240.999587	669.2000122
1241.54564	671.2000122
1242.091636	671.2000122
1242.637575	670.0
1243.183457	670.4000244
1243.729284	668.0
1244.275053	671.2000122
1244.820766	672.4000244
1245.366423	669.0
1245.912022	669.4000244
1246.457566	668.4000244
1247.003053	669.0
1247.548483	671.0
1248.093857	671.2000122
1248.639174	668.5999756
1249.184435	670.0
1249.729639	667.7999878
1250.274787	671.2000122
1250.819878	669.4000244
1251.364912	670.0
1251.909891	671.4000244
1252.454812	670.2000122
1252.999677	668.7999878
1253.544486	670.4000244
1254.089238	669.2000122
1254.633934	666.4000244
1255.178573	669.2000122
1255.723156	669.0
1256.267682	672.2000122
1256.812152	670.5999756
1257.356565	669.0
1257.900922	671.5999756
1258.445223	667.7999878
1258.989467	672.2000122
1259.533654	669.0
1260.077785	681.0
1260.62186	671.7999878
1261.165878	669.2000122
1261.70984	671.7999878
1262.253745	670.4000244
1262.797594	670.5999756
1263.341386	670.0
1263.885123	672.4000244
1264.428802	669.4000244
1264.972425	670.2000122
1265.515992	674.0
1266.059503	678.4000244
1266.602957	674.2000122
1267.146354	668.2000122
1267.689696	670.4000244
1268.23298	670.5999756
1268.776209	671.2000122
1269.319381	667.7999878
1269.862497	670.7999878
1270.405556	669.7999878
1270.948559	670.5999756
1271.491506	668.4000244
1272.034396	671.7999878
1272.57723	672.2000122
1273.120007	670.4000244
1273.662728	669.0
1274.205393	670.0
1274.748002	670.0
1275.290554	666.0
1275.83305	669.7999878
1276.375489	669.4000244
1276.917872	672.0
1277.460199	667.7999878
1278.00247	667.2000122
1278.544684	671.0
1279.086842	669.7999878
1279.628943	673.2000122
1280.170989	669.5999756
1280.712978	671.2000122
1281.25491	670.2000122
1281.796787	670.4000244
1282.338607	672.0
1282.880371	666.0
1283.422078	672.2000122
1283.963729	673.5999756
1284.505324	669.5999756
1285.046863	674.4000244
1285.588345	694.4000244
1286.129772	762.2000122
1286.671142	750.4000244
1287.212455	683.5999756
1287.753713	674.4000244
1288.294914	668.0
1288.836059	670.0
1289.377147	672.7999878
1289.91818	671.7999878
1290.459156	670.4000244
1291.000076	666.4000244
1291.54094	669.7999878
1292.081747	669.0
1292.622499	666.2000122
1293.163194	671.0
1293.703833	671.7999878
1294.244415	668.7999878
1294.784942	669.0
1295.325412	668.2000122
1295.865826	670.0
1296.406184	669.2000122
1296.946486	669.2000122
1297.486731	668.7999878
1298.026921	668.5999756
1298.567054	671.0
1299.107131	668.5999756
1299.647152	669.0
1300.187116	668.2000122
1300.727025	668.4000244
1301.266877	668.5999756
1301.806673	669.0
1302.346413	671.0
1302.886097	671.2000122
1303.425725	669.7999878
1303.965297	673.4000244
1304.504812	671.4000244
1305.044272	670.0
1305.583675	670.4000244
1306.123022	668.0
1306.662313	668.2000122
1307.201548	673.0
1307.740727	670.2000122
1308.279849	669.0
1308.818916	669.2000122
1309.357926	671.0
1309.896881	668.4000244
1310.435779	668.5999756
1310.974621	669.0
1311.513407	670.0
1312.052137	667.4000244
1312.590811	670.5999756
1313.129429	670.2000122
1313.667991	669.0
1314.206497	668.0
1314.744946	667.4000244
1315.28334	668.7999878
1315.821678	669.0
1316.359959	668.2000122
1316.898184	666.0
1317.436354	669.2000122
1317.974467	668.7999878
1318.512525	668.0
1319.050526	670.0
1319.588471	667.4000244
1320.12636	668.4000244
1320.664194	668.4000244
1321.201971	671.0
1321.739692	667.7999878
1322.277357	669.0
1322.814967	669.4000244
1323.35252	666.4000244
1323.890017	673.2000122
1324.427458	670.2000122
1324.964843	669.2000122
1325.502173	669.4000244
1326.039446	666.5999756
1326.576663	669.2000122
1327.113824	668.0
1327.65093	675.0
1328.187979	669.5999756
1328.724972	669.4000244
1329.26191	670.4000244
1329.798791	670.5999756
1330.335617	668.0
1330.872386	667.7999878
1331.4091	669.2000122
1331.945758	668.2000122
1332.48236	666.2000122
1333.018905	670.7999878
1333.555395	669.5999756
1334.091829	667.0
1334.628207	669.4000244
1335.164529	671.0
1335.700796	669.0
1336.237006	671.2000122
1336.77316	667.4000244
1337.309259	670.7999878
1337.845301	669.2000122
1338.381288	668.4000244
1338.917219	668.7999878
1339.453094	668.5999756
1339.988913	668.0
1340.524676	667.0
1341.060383	667.0
1341.596034	670.2000122
1342.13163	669.2000122
1342.66717	669.7999878
1343.202653	668.7999878
1343.738081	667.5999756
1344.273453	667.7999878
1344.80877	668.0
1345.34403	671.5999756
1345.879235	670.4000244
1346.414383	669.5999756
1346.949476	667.5999756
1347.484513	673.5999756
1348.019494	670.5999756
1348.55442	668.2000122
1349.089289	670.0
1349.624103	668.5999756
1350.158861	669.4000244
1350.693563	671.0
1351.228209	670.5999756
1351.7628	673.2000122
1352.297334	670.2000122
1352.831813	667.4000244
1353.366236	668.7999878
1353.900604	668.0
1354.434915	671.0
1354.969171	668.7999878
1355.503371	669.4000244
1356.037515	666.0
1356.571604	667.0
1357.105636	667.7999878
1357.639613	669.7999878
1358.173535	669.4000244
1358.7074	668.2000122
1359.24121	668.2000122
1359.774964	668.7999878
1360.308662	672.4000244
1360.842304	666.0
1361.375891	668.2000122
1361.909422	669.2000122
1362.442897	672.0
1362.976317	667.0
1363.50968	670.2000122
1364.042989	669.4000244
1364.576241	668.4000244
1365.109438	669.2000122
1365.642579	670.4000244
1366.175664	670.0
1366.708693	669.5999756
1367.241667	668.2000122
1367.774585	669.5999756
1368.307448	670.2000122
1368.840255	671.7999878
1369.373006	668.0
1369.905701	669.2000122
1370.438341	669.7999878
1370.970925	671.7999878
1371.503454	668.4000244
1372.035926	668.0
1372.568344	668.0
1373.100705	671.2000122
1373.633011	668.4000244
1374.165261	672.0
1374.697456	668.4000244
1375.229595	668.7999878
1375.761678	668.4000244
1376.293705	670.4000244
1376.825677	671.4000244
1377.357594	670.2000122
1377.889455	672.7999878
1378.42126	668.7999878
1378.953009	669.2000122
1379.484703	668.0
1380.016342	669.4000244
1380.547924	673.2000122
1381.079452	668.7999878
1381.610923	669.2000122
1382.142339	668.2000122
1382.673699	672.2000122
1383.205004	670.2000122
1383.736253	668.5999756
1384.267447	670.5999756
1384.798585	668.7999878
1385.329668	672.0
1385.860695	671.2000122
1386.391666	671.7999878
1386.922582	669.0
1387.453442	671.7999878
1387.984247	672.0
1388.514996	687.7999878
1389.04569	771.2000122
1389.576328	836.7999878
1390.10691	706.5999756
1390.637437	677.4000244
1391.167909	672.0
1391.698325	671.4000244
1392.228685	670.7999878
1392.75899	668.2000122
1393.28924	670.0
1393.819434	671.7999878
1394.349572	670.0
1394.879655	668.0
1395.409683	667.4000244
1395.939655	666.5999756
1396.469571	669.2000122
1396.999432	669.2000122
1397.529237	665.5999756
1398.058987	671.5999756
1398.588682	669.2000122
1399.118321	672.5999756
1399.647905	668.5999756
1400.177433	665.7999878
1400.706906	671.4000244
1401.236323	668.7999878
1401.765685	667.7999878
1402.294991	669.5999756
1402.824242	667.7999878
1403.353437	668.7999878
1403.882577	668.4000244
1404.411662	667.5999756
1404.940691	669.2000122
1405.469665	667.2000122
1405.998583	671.4000244
1406.527446	668.2000122
1407.056253	668.2000122
1407.585005	669.4000244
1408.113702	668.4000244
1408.642343	666.7999878
1409.170929	669.7999878
1409.69946	670.7999878
1410.227935	679.4000244
1410.756354	682.7999878
1411.284719	677.5999756
1411.813028	669.7999878
1412.341281	668.5999756
1412.869479	670.4000244
1413.397622	668.4000244
1413.92571	670.4000244
1414.453742	667.0
1414.981718	668.2000122
1415.50964	677.2000122
1416.037506	668.5999756
1416.565316	668.4000244
1417.093072	670.2000122
1417.620772	670.4000244
1418.148416	670.2000122
1418.676005	667.2000122
1419.203539	672.5999756
1419.731018	669.7999878
1420.258441	667.0
1420.785809	671.0
1421.313122	667.5999756
1421.840379	669.2000122
1422.367582	669.2000122
1422.894728	668.2000122
1423.42182	669.4000244
1423.948856	669.4000244
1424.475837	670.4000244
1425.002762	668.5999756
1425.529633	667.7999878
1426.056448	669.4000244
1426.583207	671.4000244
1427.109912	670.2000122
1427.636561	670.5999756
1428.163155	670.0
1428.689694	667.2000122
1429.216177	669.2000122
1429.742605	668.2000122
1430.268978	668.2000122
1430.795296	668.2000122
1431.321558	670.2000122
1431.847765	668.4000244
1432.373917	669.5999756
1432.900014	669.2000122
1433.426056	671.4000244
1433.952042	669.0
1434.477973	671.0
1435.003849	669.7999878
1435.529669	670.4000244
1436.055435	667.5999756
1436.581145	667.5999756
1437.1068	665.5999756
1437.632399	671.4000244
1438.157944	667.7999878
1438.683433	669.5999756
1439.208868	668.4000244
1439.734247	667.2000122
1440.25957	668.5999756
1440.784839	667.0
1441.310053	670.5999756
1441.835211	665.7999878
1442.360314	668.7999878
1442.885362	669.0
1443.410355	669.0
1443.935292	667.7999878
1444.460175	665.4000244
1444.985002	667.2000122
1445.509774	670.5999756
1446.034491	668.2000122
1446.559153	667.2000122
1447.08376	666.7999878
1447.608312	669.2000122
1448.132808	670.2000122
1448.65725	670.4000244
1449.181636	669.2000122
1449.705967	667.2000122
1450.230243	666.5999756
1450.754464	668.7999878
1451.27863	666.0
1451.802741	667.5999756
1452.326797	668.5999756
1452.850797	669.7999878
1453.374743	669.2000122
1453.898633	671.2000122
1454.422468	668.7999878
1454.946249	665.7999878
1455.469974	667.7999878
1455.993644	668.7999878
1456.517259	669.0
1457.040819	667.5999756
1457.564324	667.2000122
1458.087773	671.7999878
1458.611168	667.0
1459.134508	666.7999878
1459.657793	667.4000244
1460.181022	665.5999756
1460.704197	668.2000122
1461.227316	670.7999878
1461.750381	667.7999878
1462.27339	668.4000244
1462.796345	670.5999756
1463.319244	667.0
1463.842089	664.7999878
1464.364878	671.4000244
1464.887613	668.7999878
1465.410292	667.7999878
1465.932916	667.5999756
1466.455486	669.4000244
1466.978	669.2000122
1467.50046	669.0
1468.022864	668.2000122
1468.545214	670.0
1469.067508	667.0
1469.589748	670.7999878
1470.111932	668.0
1470.634062	669.5999756
1471.156136	669.2000122
1471.678156	667.4000244
1472.20012	669.4000244
1472.72203	666.5999756
1473.243885	669.0
1473.765685	669.7999878
1474.28743	668.5999756
1474.80912	667.0
1475.330755	669.4000244
1475.852335	667.5999756
1476.37386	667.4000244
1476.89533	667.7999878
1477.416745	668.5999756
1477.938106	667.7999878
1478.459411	670.2000122
1478.980662	667.4000244
1479.501857	669.7999878
1480.022998	670.2000122
1480.544084	667.4000244
1481.065115	668.0
1481.586091	666.2000122
1482.107012	669.0
1482.627878	667.2000122
1483.14869	664.7999878
1483.669446	666.4000244
1484.190148	668.2000122
1484.710794	669.0
1485.231386	667.5999756
1485.751923	670.0
1486.272406	667.2000122
1486.792833	666.5999756
1487.313205	668.4000244
1487.833523	667.4000244
1488.353786	670.2000122
1488.873994	666.5999756
1489.394147	669.2000122
1489.914245	667.2000122
1490.434288	666.5999756
1490.954277	665.7999878
1491.474211	669.0
1491.99409	667.2000122
1492.513914	668.0
1493.033683	670.7999878
1493.553398	666.4000244
1494.073057	666.2000122
1494.592662	670.0
1495.112212	666.5999756
1495.631708	665.4000244
1496.151148	667.0
1496.670534	667.0
1497.189865	668.7999878
1497.709141	668.0
1498.228362	669.4000244
1498.747529	665.7999878
1499.266641	668.7999878
1499.785698	674.4000244
1500.3047	668.0
1500.823648	666.4000244
1501.34254	670.0
1501.861379	667.2000122
1502.380162	667.7999878
1502.89889	670.7999878
1503.417564	667.5999756
1503.936183	668.5999756
1504.454748	667.7999878
1504.973257	666.5999756
1505.491712	667.0
1506.010112	669.2000122
1506.528458	666.0
1507.046748	670.0
1507.564984	667.5999756
1508.083166	669.0
1508.601292	666.5999756
1509.119364	738.2000122
1510.673252	844.2000122
1511.191105	675.0
1511.708903	667.4000244
1512.226647	666.2000122
1512.744336	667.7999878
1513.261971	664.0
1513.77955	667.4000244
1514.297076	667.0
1514.814546	668.2000122
1515.331962	666.0
1515.849323	666.0
1516.366629	669.4000244
1516.883881	667.4000244
1517.401078	668.7999878
1517.918221	666.7999878
1518.435309	670.4000244
1518.952342	670.0
1519.469321	669.4000244
1519.986245	668.5999756
1520.503114	665.5999756
1521.019929	667.2000122
1521.536689	669.2000122
1522.053395	668.0
1522.570046	668.0
1523.086642	665.7999878
1523.603184	667.2000122
1524.119671	668.0
1524.636103	666.2000122
1525.152481	665.0
1525.668805	665.7999878
1526.185073	667.5999756
1526.701288	667.5999756
1527.217447	666.5999756
1527.733552	667.4000244
1528.249603	666.0
1528.765599	666.4000244
1529.28154	668.2000122
1529.797427	667.4000244
1530.313259	668.5999756
1530.829037	668.7999878
1531.34476	669.2000122
1531.860429	663.7999878
1532.376043	666.0
1532.891602	670.0
1533.407107	665.2000122
1533.922558	668.7999878
1534.437954	668.0
1534.953295	667.2000122
1535.468582	670.0
1535.983815	667.0
1536.498993	667.5999756
1537.014116	668.0
1537.529185	667.5999756
1538.044199	666.2000122
1538.559159	663.5999756
1539.074064	668.0
1539.588915	666.7999878
1540.103712	667.5999756
1540.618454	665.7999878
1541.133141	669.2000122
1541.647774	667.5999756
1542.162353	668.2000122
1542.676877	667.7999878
1543.191346	669.4000244
1543.705761	668.4000244
1544.220122	665.7999878
1544.734428	666.0
1545.24868	664.5999756
1545.762877	668.2000122
1546.27702	668.2000122
1546.791109	667.7999878
1547.305143	666.2000122
1547.819122	668.0
1548.333047	667.4000244
1548.846918	668.0
1549.360734	667.0
1549.874496	669.4000244
1550.388204	666.2000122
1550.901857	667.4000244
1551.415455	664.5999756
1551.929	668.4000244
1552.442489	668.0
1552.955925	664.5999756
1553.469306	664.4000244
1553.982632	667.7999878
1554.495905	668.0
1555.009123	667.2000122
1555.522286	665.4000244
1556.035395	667.2000122
1556.54845	668.2000122
1557.06145	668.0
1557.574396	667.0
1558.087288	663.5999756
1558.600125	665.4000244
1559.112908	665.5999756
1559.625637	668.7999878
1560.138311	668.2000122
1560.650931	667.7999878
1561.163497	664.5999756
1561.676008	668.0
1562.188465	667.0
1562.700867	665.5999756
1563.213216	667.0
1563.725509	668.2000122
1564.237749	666.0
1564.749934	667.4000244
1565.262065	667.2000122
1565.774142	668.0
1566.286164	667.0
1566.798132	666.0
1567.310046	664.2000122
1567.821906	666.7999878
1568.333711	666.5999756
1568.845462	666.0
1569.357158	668.7999878
1569.868801	665.5999756
1570.380389	668.7999878
1570.891922	665.7999878
1571.403402	665.4000244
1571.914827	666.2000122
1572.426198	666.2000122
1572.937515	662.5999756
1573.448777	667.4000244
1573.959985	668.0
1574.471139	668.5999756
1574.982239	667.5999756
1575.493285	667.4000244
1576.004276	669.0
1576.515213	665.7999878
1577.026096	668.2000122
1577.536924	662.2000122
1578.047698	666.5999756
1578.558419	667.0
1579.069084	666.2000122
1579.579696	664.7999878
1580.090254	665.0
1580.600757	664.5999756
1581.111206	666.2000122
1581.621601	667.2000122
1582.131941	666.2000122
1582.642228	665.0
1583.15246	668.5999756
1583.662638	668.2000122
1584.172762	666.2000122
1584.682832	665.5999756
1585.192847	667.2000122
1585.702809	666.0
1586.212716	666.4000244
1586.722569	667.2000122
1587.232368	669.0
1587.742113	667.5999756
1588.251803	667.4000244
1588.76144	667.7999878
1589.271022	665.2000122
1589.78055	665.5999756
1590.290024	668.0
1590.799444	665.2000122
1591.30881	667.0
1591.818121	669.5999756
1592.327379	666.2000122
