1042.414189	737.7999878
1042.980685	736.7999878
1043.547124	729.7999878
1044.113505	735.4000244
1044.679828	735.7999878
1045.246093	728.4000244
1045.8123	728.5999756
1046.378449	721.5999756
1046.94454	726.7999878
1047.510573	726.2000122
1048.076548	727.7999878
1048.642465	725.5999756
1049.208325	726.4000244
1049.774126	727.2000122
1050.339869	720.4000244
1050.905555	723.4000244
1051.471183	718.2000122
1052.036752	718.5999756
1052.602264	717.7999878
1053.167718	721.7999878
1053.733114	719.2000122
1054.298452	719.2000122
1054.863733	717.7999878
1055.428955	716.4000244
1055.994119	718.7999878
1056.559226	719.4000244
1057.124275	719.4000244
1057.689266	716.2000122
1058.254199	716.4000244
1058.819074	719.7999878
1059.383891	717.0
1059.94865	720.2000122
1060.513352	724.4000244
1061.077996	719.4000244
1061.642582	715.2000122
1062.20711	718.5999756
1062.77158	718.2000122
1063.335992	714.4000244
1063.900347	709.2000122
1064.464643	713.5999756
1065.028882	716.5999756
1065.593063	714.0
1066.157187	712.2000122
1066.721252	714.5999756
1067.28526	713.0
1067.84921	710.5999756
1068.413102	712.5999756
1068.976936	713.0
1069.540713	711.5999756
1070.104431	721.5999756
1070.668092	714.5999756
1071.231696	714.5999756
1071.795241	712.0
1072.358729	717.7999878
1072.922159	716.7999878
1073.485531	716.0
1074.048845	712.5999756
1074.612102	717.0
1075.175301	715.4000244
1075.738442	717.7999878
1076.301525	711.5999756
1076.864551	716.7999878
1077.427519	714.7999878
1077.990429	713.7999878
1078.553281	717.5999756
1079.116076	717.0
1079.678813	716.0
1080.241492	719.2000122
1080.804114	718.5999756
1081.366678	718.2000122
1081.929184	715.2000122
1082.491633	721.2000122
1083.054024	721.0
1083.616357	721.5999756
1084.178632	728.5999756
1084.74085	721.0
1085.30301	719.5999756
1085.865113	721.2000122
1086.427158	727.0
1086.989145	724.2000122
1087.551074	720.4000244
1088.112946	726.2000122
1088.67476	724.7999878
1089.236517	727.4000244
1089.798216	724.5999756
1090.359857	730.4000244
1090.92144	729.0
1091.482966	728.5999756
1092.044435	731.0
1092.605845	728.0
1093.167199	728.2000122
1093.728494	725.7999878
1094.289732	733.2000122
1094.850912	729.2000122
1095.412035	737.5999756
1095.9731	727.0
1096.534107	727.7999878
1097.095057	732.2000122
1097.65595	722.5999756
1098.216784	724.5999756
1098.777561	725.0
1099.338281	723.0
1099.898943	717.7999878
1100.459547	717.4000244
1101.020094	711.5999756
1101.580584	717.0
1102.141015	719.4000244
1102.701389	717.2000122
1103.261706	717.0
1103.821965	713.4000244
1104.382167	715.2000122
1104.942311	714.2000122
1105.502397	717.4000244
1106.062426	712.5999756
1106.622398	716.2000122
1107.182312	715.0
1107.742168	711.0
1108.301967	714.4000244
1108.861708	710.5999756
1109.421392	709.2000122
1109.981019	710.0
1110.540587	710.5999756
1111.100099	708.5999756
1111.659553	711.0
1112.218949	711.7999878
1112.778288	709.4000244
1113.33757	711.0
1113.896794	709.7999878
1114.45596	708.5999756
1115.015069	714.0
1115.574121	709.5999756
1116.133115	707.7999878
1116.692052	710.0
1117.250931	710.4000244
1117.809753	711.5999756
1118.368517	705.7999878
1118.927224	707.2000122
1119.485873	709.4000244
1120.044465	710.4000244
1120.603	710.4000244
1121.161477	710.5999756
1121.719897	708.5999756
1122.278259	710.5999756
1122.836564	709.5999756
1123.394812	710.2000122
1123.953002	711.4000244
1124.511135	713.0
1125.06921	709.5999756
1125.627228	706.5999756
1126.185189	704.4000244
1126.743092	713.4000244
1127.300938	711.2000122
1127.858726	707.7999878
1128.416457	706.7999878
1128.974131	712.2000122
1129.531748	709.0
1130.089307	710.0
1130.646808	709.0
1131.204252	710.7999878
1131.761639	711.2000122
1132.318969	708.7999878
1132.876241	710.2000122
1133.433456	706.2000122
1133.990614	712.4000244
1134.547714	710.4000244
1135.104757	711.7999878
1135.661743	710.0
1136.218671	707.7999878
1136.775542	707.5999756
1137.332356	710.0
1137.889112	708.5999756
1138.445811	712.7999878
1139.002453	708.5999756
1139.559037	711.2000122
1140.115565	708.7999878
1140.672035	709.7999878
1141.228447	711.2000122
1141.784803	715.2000122
1142.341101	708.7999878
1142.897342	712.2000122
1143.453525	709.5999756
1144.009651	708.0
1144.565721	708.7999878
1145.121732	716.4000244
1145.677687	711.0
1146.233584	711.2000122
1146.789424	712.2000122
1147.345207	708.7999878
1147.900933	712.0
1148.456601	711.7999878
1149.012212	714.2000122
1149.567766	714.5999756
1150.123263	710.7999878
1150.678702	714.7999878
1151.234085	707.5999756
1151.78941	707.5999756
1152.344678	712.4000244
1152.899888	711.5999756
1153.455042	709.0
1154.010138	710.2000122
1154.565177	708.7999878
1155.120159	714.7999878
1155.675084	714.7999878
1156.229951	711.2000122
1156.784762	710.2000122
1157.339515	711.2000122
1157.894211	710.0
1158.44885	712.0
1159.003432	709.5999756
1159.557956	707.7999878
1160.112424	708.5999756
1160.666834	712.5999756
1161.221187	708.4000244
1161.775483	710.0
1162.329722	711.5999756
1162.883904	711.5999756
1163.438029	711.4000244
1163.992096	710.4000244
1164.546107	712.5999756
1165.10006	710.2000122
1165.653956	712.5999756
1166.207795	711.7999878
1166.761577	709.5999756
1167.315302	712.7999878
1167.86897	708.4000244
1168.422581	710.7999878
1168.976134	710.0
1169.529631	712.5999756
1170.08307	712.2000122
1170.636453	706.2000122
1171.189778	709.0
1171.743046	714.4000244
1172.296257	712.7999878
1172.849412	706.2000122
1173.402509	709.7999878
1173.955549	711.7999878
1174.508532	710.0
1175.061458	712.7999878
1175.614327	713.7999878
1176.167138	706.7999878
1176.719893	709.7999878
1177.272591	710.0
1177.825232	707.5999756
1178.377816	709.2000122
1178.930342	711.5999756
1179.482812	711.0
1180.035225	710.4000244
1180.587581	711.4000244
1181.139879	706.2000122
1181.692121	705.4000244
1182.244306	709.7999878
1182.796434	711.5999756
1183.348504	711.4000244
1183.900518	709.7999878
1184.452475	711.0
1185.004375	710.7999878
1185.556218	706.5999756
1186.108004	711.5999756
1186.659733	711.0
1187.211405	711.2000122
1187.76302	708.5999756
1188.314578	711.0
1188.866079	711.0
1189.417523	709.5999756
1189.96891	711.7999878
1190.520241	705.7999878
1191.071514	711.4000244
1191.622731	714.2000122
1192.17389	711.4000244
1192.724993	711.0
1193.276039	726.4000244
1193.827027	707.7999878
1194.377959	709.4000244
1194.928834	709.7999878
1195.479653	707.5999756
1196.030414	707.5999756
1196.581118	709.5999756
1197.131766	714.0
1197.682356	709.0
1198.23289	711.4000244
1198.783367	714.2000122
1199.333786	712.2000122
1199.88415	713.0
1200.434456	711.2000122
1200.984705	710.7999878
1201.534898	711.4000244
1202.085033	718.4000244
1202.635112	710.0
1203.185134	710.2000122
1203.735099	706.7999878
1204.285007	711.7999878
1204.834859	716.0
1205.384653	712.5999756
1205.934391	711.2000122
1206.484072	710.0
1207.033696	710.0
1207.583263	710.4000244
1208.132774	713.0
1208.682228	711.2000122
1209.231624	709.4000244
1209.780965	709.5999756
1210.330248	710.5999756
1210.879474	710.5999756
1211.428644	712.7999878
1211.977757	712.2000122
1212.526813	715.4000244
1213.075813	713.4000244
1213.624755	714.0
1214.173641	710.4000244
1214.72247	709.0
1215.271242	713.4000244
1215.819958	711.7999878
1216.368617	710.4000244
1216.917219	710.7999878
1217.465764	709.7999878
1218.014253	711.2000122
1218.562685	708.7999878
1219.11106	707.2000122
1219.659378	710.0
1220.20764	715.2000122
1220.755845	710.4000244
1221.303993	707.5999756
1221.852085	708.0
1222.400119	709.4000244
1222.948097	711.7999878
1223.496019	712.2000122
1224.043883	711.2000122
1224.591691	708.4000244
1225.139443	710.5999756
1225.687137	712.7999878
1226.234775	709.2000122
1226.782357	713.4000244
1227.329881	711.4000244
1227.877349	708.7999878
1228.42476	711.4000244
1228.972115	711.7999878
1229.519413	713.0
1230.066654	710.4000244
1230.613839	710.0
1231.160967	714.0
1231.708038	714.5999756
1232.255053	711.4000244
1232.802011	708.5999756
1233.348912	710.0
1233.895757	715.0
1234.442545	708.2000122
1234.989277	711.4000244
1235.535951	713.7999878
1236.08257	710.5999756
1236.629131	711.7999878
1237.175636	714.2000122
1237.722085	711.4000244
1238.268477	715.5999756
1238.814812	711.2000122
1239.361091	709.5999756
1239.907313	712.4000244
1240.453478	712.5999756
1240.999587	715.7999878
1241.54564	711.4000244
1242.091636	713.4000244
1242.637575	708.2000122
1243.183457	711.7999878
1243.729284	715.5999756
1244.275053	715.4000244
1244.820766	715.4000244
1245.366423	713.7999878
1245.912022	714.4000244
1246.457566	709.7999878
1247.003053	713.5999756
1247.548483	713.2000122
1248.093857	710.7999878
1248.639174	715.7999878
1249.184435	712.2000122
1249.729639	711.2000122
1250.274787	715.7999878
1250.819878	715.0
1251.364912	715.4000244
1251.909891	713.2000122
1252.454812	714.2000122
1252.999677	709.7999878
1253.544486	712.0
1254.089238	713.7999878
1254.633934	714.5999756
1255.178573	713.4000244
1255.723156	712.2000122
1256.267682	713.0
1256.812152	717.4000244
1257.356565	718.2000122
1257.900922	723.5999756
1258.445223	724.0
1258.989467	716.4000244
1259.533654	724.2000122
1260.077785	730.4000244
1260.62186	725.0
1261.165878	726.2000122
1261.70984	729.5999756
1262.253745	733.2000122
1262.797594	739.0
1263.341386	735.5999756
1263.885123	729.7999878
1264.428802	725.5999756
1264.972425	730.7999878
1265.515992	723.4000244
1266.059503	720.0
1266.602957	722.2000122
1267.146354	716.0
1267.689696	717.7999878
1268.23298	720.4000244
1268.776209	714.2000122
1269.319381	716.7999878
1269.862497	721.0
1270.405556	719.7999878
1270.948559	719.0
1271.491506	721.4000244
1272.034396	719.2000122
1272.57723	717.5999756
1273.120007	721.2000122
1273.662728	715.4000244
1274.205393	722.0
1274.748002	723.2000122
1275.290554	721.2000122
1275.83305	721.2000122
1276.375489	721.5999756
1276.917872	722.2000122
1277.460199	727.4000244
1278.00247	722.5999756
1278.544684	727.5999756
1279.086842	728.7999878
1279.628943	740.2000122
1280.170989	748.0
1280.712978	775.7999878
1281.25491	818.4000244
1281.796787	930.0
1282.338607	1089.800049
1282.880371	1193.199951
1283.422078	1111.199951
1283.963729	934.4000244
1284.505324	840.0
1285.046863	778.7999878
1285.588345	758.7999878
1286.129772	743.2000122
1286.671142	735.4000244
1287.212455	729.2000122
1287.753713	725.5999756
1288.294914	723.0
1288.836059	727.2000122
1289.377147	723.5999756
1289.91818	727.7999878
1290.459156	724.4000244
1291.000076	721.4000244
1291.54094	719.2000122
1292.081747	715.7999878
1292.622499	719.0
1293.163194	716.5999756
1293.703833	719.7999878
1294.244415	714.7999878
1294.784942	714.4000244
1295.325412	717.2000122
1295.865826	716.4000244
1296.406184	717.4000244
1296.946486	723.0
1297.486731	721.2000122
1298.026921	719.4000244
1298.567054	717.4000244
1299.107131	717.4000244
1299.647152	716.5999756
1300.187116	717.7999878
1300.727025	712.7999878
1301.266877	718.5999756
1301.806673	715.4000244
1302.346413	716.2000122
1302.886097	716.2000122
1303.425725	721.4000244
1303.965297	709.7999878
1304.504812	716.2000122
1305.044272	712.5999756
1305.583675	716.7999878
1306.123022	718.0
1306.662313	717.2000122
1307.201548	713.5999756
1307.740727	712.5999756
1308.279849	712.4000244
1308.818916	716.7999878
1309.357926	717.2000122
1309.896881	714.0
1310.435779	709.7999878
1310.974621	715.4000244
1311.513407	712.0
1312.052137	718.2000122
1312.590811	711.5999756
1313.129429	715.2000122
1313.667991	711.0
1314.206497	716.7999878
1314.744946	710.7999878
1315.28334	714.7999878
1315.821678	710.2000122
1316.359959	713.2000122
1316.898184	713.5999756
1317.436354	709.5999756
1317.974467	713.5999756
1318.512525	712.2000122
1319.050526	717.0
1319.588471	711.0
1320.12636	713.5999756
1320.664194	717.4000244
1321.201971	712.4000244
1321.739692	713.5999756
1322.277357	714.2000122
1322.814967	708.7999878
1323.35252	709.7999878
1323.890017	714.4000244
1324.427458	713.2000122
1324.964843	709.2000122
1325.502173	707.7999878
1326.039446	712.2000122
1326.576663	712.0
1327.113824	713.4000244
1327.65093	714.7999878
1328.187979	716.0
1328.724972	711.4000244
1329.26191	710.2000122
1329.798791	715.0
1330.335617	714.5999756
1330.872386	712.0
1331.4091	708.2000122
1331.945758	710.7999878
1332.48236	716.0
1333.018905	712.4000244
1333.555395	712.5999756
1334.091829	711.4000244
1334.628207	706.7999878
1335.164529	713.7999878
1335.700796	712.0
1336.237006	708.4000244
1336.77316	715.2000122
1337.309259	713.4000244
1337.845301	711.7999878
1338.381288	714.7999878
1338.917219	716.5999756
1339.453094	713.5999756
1339.988913	710.5999756
1340.524676	709.7999878
1341.060383	710.0
1341.596034	712.2000122
1342.13163	711.4000244
1342.66717	714.5999756
1343.202653	709.4000244
1343.738081	716.7999878
1344.273453	710.5999756
1344.80877	716.0
1345.34403	711.2000122
1345.879235	710.2000122
1346.414383	714.4000244
1346.949476	716.5999756
1347.484513	714.2000122
1348.019494	713.5999756
1348.55442	714.4000244
1349.089289	709.0
1349.624103	714.2000122
1350.158861	711.7999878
1350.693563	712.5999756
1351.228209	714.5999756
1351.7628	713.2000122
1352.297334	709.0
1352.831813	710.0
1353.366236	712.5999756
1353.900604	713.4000244
1354.434915	713.0
1354.969171	718.2000122
1355.503371	717.7999878
1356.037515	710.4000244
1356.571604	718.0
1357.105636	712.2000122
1357.639613	715.2000122
1358.173535	715.2000122
1358.7074	707.5999756
1359.24121	713.7999878
1359.774964	712.2000122
1360.308662	716.2000122
1360.842304	713.2000122
1361.375891	711.0
1361.909422	712.4000244
1362.442897	718.0
1362.976317	714.5999756
1363.50968	713.0
1364.042989	717.7999878
1364.576241	720.0
1365.109438	721.7999878
1365.642579	714.0
1366.175664	713.5999756
1366.708693	713.0
1367.241667	717.4000244
1367.774585	720.5999756
1368.307448	723.0
1368.840255	721.5999756
1369.373006	726.4000244
1369.905701	729.0
1370.438341	724.7999878
1370.970925	722.7999878
1371.503454	714.5999756
1372.035926	716.5999756
1372.568344	717.5999756
1373.100705	716.0
1373.633011	723.0
1374.165261	716.5999756
1374.697456	718.0
1375.229595	717.4000244
1375.761678	718.5999756
1376.293705	720.2000122
1376.825677	721.2000122
1377.357594	721.7999878
1377.889455	727.4000244
1378.42126	721.5999756
1378.953009	724.5999756
1379.484703	726.0
1380.016342	724.2000122
1380.547924	728.2000122
1381.079452	730.7999878
1381.610923	731.5999756
1382.142339	732.0
1382.673699	740.2000122
1383.205004	743.4000244
1383.736253	754.0
1384.267447	762.4000244
1384.798585	777.7999878
1385.329668	815.5999756
1385.860695	891.0
1386.391666	1075.199951
1386.922582	1435.800049
1387.453442	1689.800049
1387.984247	1428.199951
1388.514996	1055.0
1389.04569	877.4000244
1389.576328	804.5999756
1390.10691	780.4000244
1390.637437	754.7999878
1391.167909	743.7999878
1391.698325	733.5999756
1392.228685	734.4000244
1392.75899	736.4000244
1393.28924	729.0
1393.819434	728.4000244
1394.349572	726.2000122
1394.879655	720.4000244
1395.409683	721.4000244
1395.939655	719.2000122
1396.469571	725.2000122
1396.999432	720.4000244
1397.529237	718.7999878
1398.058987	724.4000244
1398.588682	722.2000122
1399.118321	719.0
1399.647905	720.5999756
1400.177433	718.4000244
1400.706906	720.0
1401.236323	723.2000122
1401.765685	720.2000122
1402.294991	723.2000122
1402.824242	720.7999878
1403.353437	720.5999756
1403.882577	724.5999756
1404.411662	718.4000244
1404.940691	724.7999878
1405.469665	722.7999878
1405.998583	726.5999756
1406.527446	732.7999878
1407.056253	737.0
1407.585005	743.7999878
1408.113702	750.5999756
1408.642343	755.2000122
1409.170929	757.4000244
1409.69946	752.2000122
1410.227935	739.2000122
1410.756354	734.4000244
1411.284719	728.4000244
1411.813028	722.7999878
1412.341281	721.7999878
1412.869479	720.2000122
1413.397622	717.4000244
1413.92571	717.7999878
1414.453742	714.2000122
1414.981718	719.2000122
1415.50964	724.5999756
1416.037506	711.2000122
1416.565316	711.5999756
1417.093072	712.5999756
1417.620772	710.4000244
1418.148416	711.2000122
1418.676005	715.4000244
1419.203539	709.0
1419.731018	714.5999756
1420.258441	713.7999878
1420.785809	711.0
1421.313122	710.2000122
1421.840379	713.5999756
1422.367582	712.4000244
1422.894728	714.4000244
1423.42182	709.7999878
1423.948856	709.5999756
1424.475837	710.5999756
1425.002762	707.4000244
1425.529633	711.7999878
1426.056448	711.7999878
1426.583207	706.7999878
1427.109912	712.5999756
1427.636561	708.0
1428.163155	710.7999878
1428.689694	715.2000122
1429.216177	714.0
1429.742605	706.4000244
1430.268978	713.2000122
1430.795296	708.0
1431.321558	712.0
1431.847765	707.7999878
1432.373917	710.7999878
1432.900014	710.5999756
1433.426056	710.7999878
1433.952042	714.4000244
1434.477973	707.5999756
1435.003849	709.7999878
1435.529669	711.4000244
1436.055435	712.4000244
1436.581145	706.5999756
1437.1068	709.2000122
1437.632399	710.0
1438.157944	708.2000122
1438.683433	708.4000244
1439.208868	709.0
1439.734247	709.7999878
1440.25957	711.4000244
1440.784839	705.7999878
1441.310053	709.5999756
1441.835211	702.4000244
1442.360314	707.5999756
1442.885362	707.4000244
1443.410355	709.7999878
1443.935292	709.0
1444.460175	706.7999878
1444.985002	711.7999878
1445.509774	707.4000244
1446.034491	709.5999756
1446.559153	712.4000244
1447.08376	706.5999756
1447.608312	706.7999878
1448.132808	706.7999878
1448.65725	707.4000244
1449.181636	706.4000244
1449.705967	707.7999878
1450.230243	710.0
1450.754464	708.2000122
1451.27863	709.2000122
1451.802741	711.0
1452.326797	708.4000244
1452.850797	706.0
1453.374743	705.5999756
1453.898633	705.7999878
1454.422468	706.5999756
1454.946249	708.5999756
1455.469974	710.2000122
1455.993644	707.7999878
1456.517259	711.4000244
1457.040819	709.2000122
1457.564324	709.2000122
1458.087773	709.5999756
1458.611168	704.2000122
1459.134508	707.7999878
1459.657793	706.4000244
1460.181022	709.0
1460.704197	705.4000244
1461.227316	708.2000122
1461.750381	706.7999878
1462.27339	706.4000244
1462.796345	706.5999756
1463.319244	709.2000122
1463.842089	704.7999878
1464.364878	708.2000122
1464.887613	710.7999878
1465.410292	709.4000244
1465.932916	704.4000244
1466.455486	714.4000244
1466.978	703.5999756
1467.50046	706.5999756
1468.022864	707.7999878
1468.545214	705.4000244
1469.067508	707.0
1469.589748	709.0
1470.111932	708.7999878
1470.634062	709.4000244
1471.156136	704.4000244
1471.678156	699.7999878
1472.20012	706.4000244
1472.72203	707.4000244
1473.243885	705.5999756
1473.765685	708.2000122
1474.28743	707.2000122
1474.80912	710.0
1475.330755	709.2000122
1475.852335	712.0
1476.37386	706.7999878
1476.89533	707.5999756
1477.416745	709.4000244
1477.938106	707.7999878
1478.459411	707.7999878
1478.980662	706.5999756
1479.501857	703.5999756
1480.022998	709.5999756
1480.544084	712.0
1481.065115	704.5999756
1481.586091	705.7999878
1482.107012	707.0
1482.627878	700.2000122
1483.14869	703.5999756
1483.669446	705.5999756
1484.190148	705.5999756
1484.710794	705.0
1485.231386	704.4000244
1485.751923	703.7999878
1486.272406	703.5999756
1486.792833	702.7999878
1487.313205	707.7999878
1487.833523	705.4000244
1488.353786	708.2000122
1488.873994	703.7999878
1489.394147	701.7999878
1489.914245	705.7999878
1490.434288	706.0
1490.954277	705.0
1491.474211	705.7999878
1491.99409	706.0
1492.513914	707.0
1493.033683	706.2000122
1493.553398	710.2000122
1494.073057	707.0
1494.592662	703.0
1495.112212	706.5999756
1495.631708	700.4000244
1496.151148	703.7999878
1496.670534	705.0
1497.189865	708.0
1497.709141	699.2000122
1498.228362	709.0
1498.747529	708.7999878
1499.266641	709.5999756
1499.785698	715.7999878
1500.3047	706.4000244
1500.823648	708.7999878
1501.34254	707.7999878
1501.861379	705.0
1502.380162	705.2000122
1502.89889	702.0
1503.417564	703.7999878
1503.936183	708.2000122
1504.454748	707.5999756
1504.973257	704.7999878
1505.491712	706.5999756
1506.010112	705.2000122
1506.528458	705.0
1507.046748	710.5999756
1507.564984	706.2000122
1508.083166	707.2000122
1508.601292	703.0
1509.119364	700.0
1509.637381	705.7999878
1510.155344	704.2000122
1510.673252	709.2000122
1511.191105	704.0
1511.708903	707.0
1512.226647	705.5999756
1512.744336	707.0
1513.261971	702.7999878
1513.77955	701.7999878
1514.297076	702.2000122
1514.814546	701.0
1515.331962	703.4000244
1515.849323	702.5999756
1516.366629	703.2000122
1516.883881	703.4000244
1517.401078	703.7999878
1517.918221	705.7999878
1518.435309	702.7999878
1518.952342	708.5999756
1519.469321	706.4000244
1519.986245	702.5999756
1520.503114	704.2000122
1521.019929	703.5999756
1521.536689	707.2000122
1522.053395	703.7999878
1522.570046	705.0
1523.086642	705.0
1523.603184	702.4000244
1524.119671	702.7999878
1524.636103	703.2000122
1525.152481	705.5999756
1525.668805	704.4000244
1526.185073	701.2000122
1526.701288	705.4000244
1527.217447	705.5999756
1527.733552	704.7999878
1528.249603	705.0
1528.765599	700.7999878
1529.28154	704.4000244
1529.797427	706.2000122
1530.313259	703.0
1530.829037	702.5999756
1531.34476	704.5999756
1531.860429	707.7999878
1532.376043	706.0
1532.891602	703.5999756
1533.407107	705.7999878
1533.922558	708.5999756
1534.437954	706.4000244
1534.953295	707.5999756
1535.468582	703.7999878
1535.983815	706.0
1536.498993	703.7999878
1537.014116	706.2000122
1537.529185	704.2000122
1538.044199	705.0
1538.559159	705.2000122
1539.074064	704.2000122
1539.588915	703.2000122
1540.103712	706.5999756
1540.618454	702.4000244
1541.133141	707.2000122
1541.647774	703.4000244
1542.162353	703.0
1542.676877	703.2000122
1543.191346	706.2000122
1543.705761	700.7999878
1544.220122	705.7999878
1544.734428	702.5999756
1545.24868	706.4000244
1545.762877	701.7999878
1546.27702	707.0
1546.791109	706.0
1547.305143	704.7999878
1547.819122	704.7999878
1548.333047	702.0
1548.846918	702.7999878
1549.360734	706.5999756
1549.874496	703.7999878
1550.388204	698.4000244
1550.901857	709.7999878
1551.415455	707.0
1551.929	707.2000122
1552.442489	703.7999878
1552.955925	705.4000244
1553.469306	705.2000122
1553.982632	703.0
1554.495905	704.2000122
1555.009123	703.5999756
1555.522286	704.2000122
1556.035395	707.7999878
1556.54845	705.0
1557.06145	703.5999756
1557.574396	704.5999756
1558.087288	704.2000122
1558.600125	704.2000122
1559.112908	704.2000122
1559.625637	703.0
1560.138311	704.2000122
1560.650931	704.7999878
1561.163497	705.4000244
1561.676008	706.5999756
1562.188465	707.5999756
1562.700867	706.0
1563.213216	705.7999878
1563.725509	701.2000122
1564.237749	706.0
1564.749934	704.2000122
1565.262065	705.0
1565.774142	703.7999878
1566.286164	700.0
1566.798132	702.5999756
1567.310046	705.5999756
1567.821906	705.5999756
1568.333711	704.5999756
1568.845462	705.5999756
1569.357158	706.5999756
1570.891922	703.7999878
1571.403402	705.0
1571.914827	702.5999756
1572.426198	707.0
1572.937515	700.7999878
1573.448777	709.0
1573.959985	702.2000122
1574.471139	704.5999756
1574.982239	705.5999756
1575.493285	707.7999878
1576.004276	706.7999878
1576.515213	701.4000244
1577.026096	703.7999878
1577.536924	703.7999878
1578.047698	701.7999878
1578.558419	705.0
1579.069084	702.2000122
1579.579696	706.4000244
1580.090254	702.7999878
1580.600757	703.0
1581.111206	706.2000122
1581.621601	703.7999878
1582.131941	707.2000122
1582.642228	703.5999756
1583.15246	700.7999878
1583.662638	704.5999756
1584.172762	702.0
1584.682832	706.7999878
1585.192847	704.5999756
1585.702809	703.7999878
1586.212716	702.4000244
1586.722569	703.7999878
1587.232368	704.2000122
1587.742113	704.7999878
1588.251803	706.0
1588.76144	702.4000244
1589.271022	700.0
1589.78055	708.5999756
1590.290024	699.5999756
1590.799444	703.4000244
1591.30881	702.5999756
1591.818121	707.4000244
1592.327379	703.5999756
