1042.414189	681.25
1042.980685	683.5
1043.547124	681.0
1044.113505	680.25
1044.679828	681.25
1045.246093	681.25
1045.8123	680.25
1046.378449	681.5
1046.94454	681.25
1047.510573	681.25
1048.076548	679.25
1048.642465	679.25
1049.208325	676.75
1049.774126	675.25
1050.339869	675.25
1050.905555	681.0
1051.471183	675.25
1052.036752	676.0
1052.602264	674.5
1053.167718	673.75
1053.733114	673.25
1054.298452	678.0
1054.863733	673.75
1055.428955	675.75
1055.994119	673.5
1056.559226	674.5
1057.124275	674.5
1057.689266	672.0
1058.254199	673.0
1058.819074	676.0
1059.383891	674.0
1059.94865	671.0
1060.513352	673.5
1061.077996	670.0
1061.642582	675.5
1062.20711	673.0
1062.77158	672.25
1063.335992	672.25
1063.900347	672.25
1064.464643	676.0
1065.028882	672.25
1065.593063	675.75
1066.157187	673.5
1066.721252	673.0
1067.28526	676.25
1067.84921	672.5
1068.413102	670.25
1068.976936	675.25
1069.540713	672.5
1070.104431	682.0
1070.668092	669.25
1071.231696	671.75
1071.795241	674.0
1072.358729	672.75
1072.922159	675.25
1073.485531	671.75
1074.048845	673.75
1074.612102	673.0
1075.175301	672.25
1075.738442	674.5
1076.301525	669.75
1076.864551	671.75
1077.427519	670.25
1077.990429	673.0
1078.553281	672.5
1079.116076	671.25
1079.678813	669.5
1080.241492	671.25
1080.804114	671.25
1081.366678	676.75
1081.929184	672.5
1082.491633	670.25
1083.054024	670.25
1083.616357	670.75
1084.178632	668.0
1084.74085	673.75
1085.30301	674.5
1085.865113	674.5
1086.427158	670.75
1086.989145	672.5
1087.551074	670.75
1088.112946	670.75
1088.67476	674.25
1089.236517	673.25
1089.798216	670.25
1090.359857	670.75
1090.92144	673.0
1091.482966	673.25
1092.044435	671.75
1092.605845	670.0
1093.167199	672.25
1093.728494	672.0
1094.289732	671.5
1094.850912	672.0
1095.412035	678.25
1095.9731	669.75
1096.534107	670.25
1097.095057	678.25
1097.65595	670.75
1098.216784	670.0
1098.777561	674.0
1099.338281	668.75
1099.898943	673.25
1100.459547	669.0
1101.020094	673.25
1101.580584	669.25
1102.141015	671.0
1102.701389	670.5
1103.261706	669.75
1103.821965	672.5
1104.382167	671.25
1104.942311	670.25
1105.502397	670.25
1106.062426	671.75
1106.622398	669.0
1107.182312	671.5
1107.742168	674.5
1108.301967	672.75
1108.861708	673.0
1109.421392	670.75
1109.981019	672.0
1110.540587	666.25
1111.100099	672.0
1111.659553	672.75
1112.218949	673.0
1112.778288	673.0
1113.33757	670.25
1113.896794	672.5
1114.45596	669.25
1115.015069	669.25
1115.574121	670.0
1116.133115	671.5
1116.692052	671.25
1117.250931	676.0
1117.809753	671.75
1118.368517	672.25
1118.927224	670.25
1119.485873	670.5
1120.044465	670.0
1120.603	670.0
1121.161477	671.25
1121.719897	673.5
1122.278259	669.5
1122.836564	671.75
1123.394812	672.0
1123.953002	670.25
1124.511135	670.0
1125.06921	672.25
1125.627228	666.75
1126.185189	671.0
1126.743092	669.0
1127.300938	673.25
1127.858726	674.0
1128.416457	672.0
1128.974131	672.0
1129.531748	674.5
1130.089307	671.5
1130.646808	672.0
1131.204252	674.75
1131.761639	668.75
1132.318969	675.0
1132.876241	671.0
1133.433456	671.0
1133.990614	671.5
1134.547714	672.75
1135.104757	673.25
1135.661743	672.5
1136.218671	668.5
1136.775542	671.25
1137.332356	670.75
1137.889112	668.25
1138.445811	669.75
1139.002453	669.75
1139.559037	671.0
1140.115565	671.0
1140.672035	669.75
1141.228447	670.5
1141.784803	672.25
1142.341101	671.5
1142.897342	669.5
1143.453525	671.0
1144.009651	671.75
1144.565721	667.25
1145.121732	672.25
1145.677687	670.5
1146.233584	672.0
1146.789424	670.25
1147.345207	670.75
1147.900933	668.75
1148.456601	672.75
1149.012212	674.25
1149.567766	670.5
1150.123263	671.75
1150.678702	668.25
1151.234085	668.75
1151.78941	672.25
1152.344678	667.5
1152.899888	671.0
1153.455042	673.0
1154.010138	667.0
1154.565177	669.25
1155.120159	673.5
1155.675084	672.5
1156.229951	670.0
1156.784762	671.5
1157.339515	672.0
1157.894211	676.25
1158.44885	671.25
1159.003432	673.25
1159.557956	672.25
1160.112424	670.25
1160.666834	672.0
1161.221187	670.0
1161.775483	671.0
1162.329722	673.0
1162.883904	671.0
1163.438029	670.0
1163.992096	673.0
1164.546107	670.5
1165.10006	672.5
1165.653956	671.75
1166.207795	672.5
1166.761577	669.5
1167.315302	669.0
1167.86897	668.5
1168.422581	672.25
1168.976134	669.75
1169.529631	671.0
1170.08307	670.0
1170.636453	669.75
1171.189778	668.75
1171.743046	671.0
1172.296257	674.0
1172.849412	670.5
1173.402509	668.0
1173.955549	671.75
1174.508532	671.75
1175.061458	671.25
1175.614327	669.75
1176.167138	668.5
1176.719893	671.5
1177.272591	669.75
1177.825232	667.75
1178.377816	671.5
1178.930342	671.25
1179.482812	669.0
1180.035225	669.5
1180.587581	667.75
1181.139879	671.0
1181.692121	672.5
1182.244306	671.25
1182.796434	671.0
1183.348504	669.25
1183.900518	670.5
1184.452475	667.75
1185.004375	670.5
1185.556218	671.0
1186.108004	671.5
1186.659733	667.75
1187.211405	667.5
1187.76302	672.0
1188.314578	670.25
1188.866079	672.25
1189.417523	672.0
1189.96891	671.25
1190.520241	670.0
1191.071514	671.0
1191.622731	670.5
1192.17389	671.5
1192.724993	670.25
1193.276039	690.25
1193.827027	668.5
1194.377959	672.5
1194.928834	672.25
1195.479653	671.5
1196.030414	672.5
1196.581118	671.25
1197.131766	669.5
1197.682356	671.75
1198.23289	669.5
1198.783367	669.5
1199.333786	670.5
1199.88415	673.0
1200.434456	671.75
1200.984705	670.25
1201.534898	667.75
1202.085033	671.5
1202.635112	670.0
1203.185134	670.5
1203.735099	669.75
1204.285007	668.0
1204.834859	672.5
1205.384653	670.0
1205.934391	669.25
1206.484072	670.75
1207.033696	669.75
1207.583263	673.25
1208.132774	672.25
1208.682228	670.5
1209.231624	675.25
1209.780965	674.25
1210.330248	672.0
1210.879474	672.5
1211.428644	671.0
1211.977757	671.5
1212.526813	671.5
1213.075813	674.0
1213.624755	672.5
1214.173641	669.75
1214.72247	673.25
1215.271242	670.75
1215.819958	673.0
1216.368617	672.5
1216.917219	670.0
1217.465764	670.75
1218.014253	672.75
1218.562685	669.75
1219.11106	669.5
1219.659378	672.5
1220.20764	670.5
1220.755845	673.25
1221.303993	672.0
1221.852085	670.5
1222.400119	670.5
1222.948097	668.75
1223.496019	670.0
1224.043883	670.25
1224.591691	670.75
1225.139443	669.0
1225.687137	673.75
1226.234775	674.0
1226.782357	673.5
1227.329881	674.75
1227.877349	668.5
1228.42476	671.75
1228.972115	671.75
1229.519413	671.5
1230.066654	669.75
1230.613839	672.0
1231.160967	672.25
1231.708038	675.0
1232.255053	669.0
1232.802011	669.25
1233.348912	671.5
1233.895757	674.0
1234.442545	672.25
1234.989277	674.0
1235.535951	672.5
1236.08257	673.75
1236.629131	671.75
1237.175636	670.0
1237.722085	672.0
1238.268477	674.25
1238.814812	674.5
1239.361091	672.5
1239.907313	670.5
1240.453478	673.5
1240.999587	672.25
1241.54564	672.25
1242.091636	668.5
1242.637575	669.25
1243.183457	671.0
1243.729284	672.5
1244.275053	673.0
1244.820766	672.25
1245.366423	668.75
1245.912022	671.75
1246.457566	672.5
1247.003053	672.25
1247.548483	674.5
1248.093857	673.25
1248.639174	670.75
1249.184435	669.5
1249.729639	673.25
1250.274787	673.75
1250.819878	670.75
1251.364912	675.75
1251.909891	674.75
1252.454812	673.5
1252.999677	668.25
1253.544486	672.75
1254.089238	672.5
1254.633934	673.25
1255.178573	672.0
1255.723156	671.5
1256.267682	671.0
1256.812152	673.5
1257.356565	670.0
1257.900922	671.0
1258.445223	673.25
1258.989467	672.25
1259.533654	673.75
1260.077785	685.5
1260.62186	671.75
1261.165878	672.25
1261.70984	674.25
1262.253745	674.25
1262.797594	677.0
1263.341386	680.25
1263.885123	681.25
1264.428802	683.5
1264.972425	695.25
1265.515992	700.0
1266.059503	687.25
1266.602957	675.5
1267.146354	677.0
1267.689696	674.5
1268.23298	675.25
1268.776209	673.75
1269.319381	675.25
1269.862497	673.75
1270.405556	671.5
1270.948559	675.5
1271.491506	672.75
1272.034396	676.75
1272.57723	672.5
1273.120007	672.25
1273.662728	673.5
1274.205393	670.5
1274.748002	672.25
1275.290554	674.5
1275.83305	672.0
1276.375489	675.0
1276.917872	670.25
1277.460199	673.25
1278.00247	674.25
1278.544684	675.0
1279.086842	675.5
1279.628943	672.5
1280.170989	673.75
1280.712978	677.0
1281.25491	674.75
1281.796787	676.25
1282.338607	683.75
1282.880371	685.75
1283.422078	695.0
1283.963729	717.25
1284.505324	780.0
1285.046863	939.0
1285.588345	1023.75
1286.129772	845.75
1286.671142	726.0
1287.212455	695.5
1287.753713	682.75
1288.294914	683.75
1288.836059	680.5
1289.377147	676.0
1289.91818	674.75
1290.459156	675.5
1291.000076	673.75
1291.54094	679.75
1292.081747	673.25
1292.622499	672.5
1293.163194	674.25
1293.703833	672.75
1294.244415	672.5
1294.784942	671.25
1295.325412	671.25
1295.865826	672.25
1296.406184	671.5
1296.946486	673.5
1297.486731	670.25
1298.026921	671.25
1298.567054	670.75
1299.107131	671.5
1299.647152	673.5
1300.187116	672.5
1300.727025	670.25
1301.266877	671.25
1301.806673	671.25
1302.346413	674.5
1302.886097	674.75
1303.425725	669.5
1303.965297	672.5
1304.504812	670.5
1305.044272	671.25
1305.583675	671.0
1306.123022	671.5
1306.662313	671.75
1307.201548	670.75
1307.740727	670.0
1308.279849	670.75
1308.818916	670.5
1309.357926	672.0
1309.896881	672.25
1310.435779	669.0
1310.974621	671.5
1311.513407	669.75
1312.052137	674.25
1312.590811	669.75
1313.129429	670.0
1313.667991	676.0
1314.206497	669.0
1314.744946	670.5
1315.28334	673.5
1315.821678	668.5
1316.359959	668.25
1316.898184	670.75
1317.436354	672.0
1317.974467	670.25
1318.512525	671.75
1319.050526	670.25
1319.588471	670.0
1320.12636	672.75
1320.664194	670.5
1321.201971	671.5
1321.739692	669.0
1322.277357	667.75
1322.814967	671.0
1323.35252	669.25
1323.890017	674.5
1324.427458	672.75
1324.964843	674.0
1325.502173	672.5
1326.039446	672.0
1326.576663	672.5
1327.113824	671.0
1327.65093	673.75
1328.187979	669.0
1328.724972	673.5
1329.26191	672.75
1329.798791	670.5
1330.335617	673.25
1330.872386	670.75
1331.4091	669.0
1331.945758	668.25
1332.48236	673.25
1333.018905	671.25
1333.555395	672.25
1334.091829	669.5
1334.628207	671.5
1335.164529	671.0
1335.700796	668.5
1336.237006	671.25
1336.77316	668.5
1337.309259	675.25
1337.845301	669.25
1338.381288	672.75
1338.917219	673.25
1339.453094	672.0
1339.988913	672.0
1340.524676	669.25
1341.060383	668.25
1341.596034	673.0
1342.13163	672.0
1342.66717	671.5
1343.202653	669.75
1343.738081	672.25
1344.273453	671.0
1344.80877	671.0
1345.34403	674.75
1345.879235	671.5
1346.414383	671.25
1346.949476	670.25
1347.484513	675.0
1348.019494	671.25
1348.55442	671.5
1349.089289	672.25
1349.624103	670.0
1350.158861	669.5
1350.693563	671.0
1351.228209	671.25
1351.7628	670.75
1352.297334	668.75
1352.831813	673.0
1353.366236	671.75
1353.900604	670.5
1354.434915	673.0
1354.969171	671.5
1355.503371	667.0
1356.037515	667.25
1356.571604	673.75
1357.105636	671.0
1357.639613	670.75
1358.173535	670.5
1358.7074	669.5
1359.24121	669.25
1359.774964	671.75
1360.308662	671.5
1360.842304	669.5
1361.375891	674.0
1361.909422	670.0
1362.442897	673.0
1362.976317	673.0
1363.50968	670.5
1364.042989	669.75
1364.576241	672.25
1365.109438	673.75
1365.642579	673.0
1366.175664	671.25
1366.708693	672.75
1367.241667	672.75
1367.774585	669.25
1368.307448	675.25
1368.840255	671.5
1369.373006	670.5
1369.905701	676.0
1370.438341	677.75
1370.970925	681.75
1371.503454	673.5
1372.035926	672.75
1372.568344	671.5
1373.100705	673.25
1373.633011	672.0
1374.165261	670.5
1374.697456	672.0
1375.229595	671.25
1375.761678	671.5
1376.293705	675.0
1376.825677	674.25
1377.357594	674.0
1377.889455	672.25
1378.42126	675.5
1378.953009	672.25
1379.484703	676.0
1380.016342	672.25
1380.547924	672.5
1381.079452	672.0
1381.610923	672.25
1382.142339	679.5
1382.673699	674.5
1383.205004	676.25
1383.736253	676.0
1384.267447	676.25
1384.798585	680.0
1385.329668	680.0
1385.860695	685.0
1386.391666	695.25
1386.922582	699.0
1387.453442	735.0
1387.984247	845.0
1388.514996	1213.5
1389.04569	1322.25
1389.576328	904.5
1390.10691	739.25
1390.637437	702.25
1391.167909	687.25
1391.698325	682.25
1392.228685	678.25
1392.75899	677.5
1393.28924	677.0
1393.819434	674.25
1394.349572	674.5
1394.879655	673.0
1395.409683	673.25
1395.939655	675.0
1396.469571	669.25
1396.999432	671.75
1397.529237	671.5
1398.058987	672.0
1398.588682	674.25
1399.118321	675.0
1399.647905	672.75
1400.177433	671.25
1400.706906	669.75
1401.236323	674.5
1401.765685	672.0
1402.294991	670.75
1402.824242	673.75
1403.353437	673.75
1403.882577	672.75
1404.411662	673.75
1404.940691	671.5
1405.469665	673.75
1405.998583	674.75
1406.527446	672.25
1407.056253	671.0
1407.585005	673.5
1408.113702	674.0
1408.642343	681.25
1409.170929	692.0
1409.69946	712.5
1410.227935	717.5
1410.756354	707.25
1411.284719	686.5
1411.813028	679.75
1412.341281	676.0
1412.869479	674.75
1413.397622	669.75
1413.92571	671.25
1414.453742	669.75
1414.981718	671.5
1415.50964	685.75
1416.037506	671.5
1416.565316	672.0
1417.093072	671.5
1417.620772	672.5
1418.148416	670.75
1418.676005	672.75
1419.203539	671.5
1419.731018	674.75
1420.258441	671.5
1420.785809	671.25
1421.313122	670.0
1421.840379	672.5
1422.367582	672.25
1422.894728	670.5
1423.42182	671.75
1423.948856	672.75
1424.475837	673.5
1425.002762	674.5
1425.529633	671.5
1426.056448	671.0
1426.583207	670.0
1427.109912	672.0
1427.636561	671.75
1428.163155	668.0
1428.689694	668.0
1429.216177	668.5
1429.742605	667.25
1430.268978	669.25
1430.795296	672.25
1431.321558	671.75
1431.847765	667.0
1432.373917	667.5
1432.900014	669.75
1433.426056	669.75
1433.952042	668.0
1434.477973	667.75
1435.003849	668.5
1435.529669	667.5
1436.055435	670.25
1436.581145	671.25
1437.1068	667.5
1437.632399	670.5
1438.157944	670.0
1438.683433	672.75
1439.208868	668.5
1439.734247	666.5
1440.25957	671.0
1440.784839	667.25
1441.310053	668.0
1441.835211	669.0
1442.360314	665.75
1442.885362	668.25
1443.410355	672.0
1443.935292	666.75
1444.460175	668.5
1444.985002	672.5
1445.509774	670.25
1446.034491	670.25
1446.559153	670.25
1447.08376	670.75
1447.608312	666.5
1448.132808	668.0
1448.65725	670.25
1449.181636	669.0
1449.705967	669.75
1450.230243	667.5
1450.754464	665.25
1451.27863	666.5
1451.802741	668.5
1452.326797	667.5
1452.850797	667.5
1453.374743	670.0
1453.898633	667.25
1454.422468	667.0
1454.946249	668.5
1455.469974	666.5
1455.993644	666.75
1456.517259	669.0
1457.040819	667.25
1457.564324	667.0
1458.087773	670.25
1458.611168	667.25
1459.134508	665.5
1459.657793	668.75
1460.181022	667.75
1460.704197	668.25
1461.227316	665.75
1461.750381	665.75
1462.27339	670.0
1462.796345	670.5
1463.319244	667.75
1463.842089	667.75
1464.364878	664.75
1464.887613	667.25
1465.410292	665.75
1465.932916	666.75
1467.50046	669.75
1468.022864	665.5
1468.545214	666.25
1469.067508	670.0
1469.589748	664.75
1470.111932	668.5
1470.634062	668.75
1471.156136	665.25
1471.678156	670.0
1472.20012	666.25
1472.72203	665.75
1473.243885	666.5
1473.765685	666.25
1474.28743	665.75
1474.80912	669.75
1475.330755	666.75
1475.852335	665.25
1476.37386	667.5
1476.89533	665.75
1477.416745	669.0
1477.938106	669.0
1478.459411	663.25
1478.980662	668.25
1479.501857	664.0
1480.022998	666.0
1480.544084	668.5
1481.065115	665.5
1481.586091	667.5
1482.107012	666.5
1482.627878	668.75
1483.14869	666.75
1483.669446	667.0
1484.190148	668.0
1484.710794	664.75
1485.231386	667.25
1485.751923	666.0
1486.272406	665.25
1486.792833	665.5
1487.313205	667.25
1487.833523	663.75
1488.353786	665.25
1488.873994	663.25
1489.394147	668.5
1489.914245	667.0
1490.434288	668.5
1490.954277	666.25
1491.474211	663.75
1491.99409	666.25
1492.513914	664.25
1493.033683	666.5
1493.553398	666.25
1494.073057	668.75
1494.592662	664.75
1495.112212	665.0
1495.631708	665.0
1496.151148	666.0
1496.670534	667.75
1497.189865	667.25
1497.709141	667.75
1498.228362	667.0
1498.747529	666.75
1499.266641	667.0
1499.785698	676.0
1500.3047	668.75
1500.823648	668.75
1501.34254	666.25
1501.861379	668.0
1502.380162	666.25
1502.89889	668.25
1503.417564	668.0
1503.936183	665.75
1504.454748	664.75
1504.973257	667.5
1505.491712	666.75
1506.010112	667.25
1506.528458	665.0
1507.046748	665.25
1507.564984	668.75
1508.083166	665.5
1508.601292	665.5
1509.119364	667.5
1509.637381	665.5
1510.155344	668.0
1510.673252	676.5
1511.191105	667.75
1511.708903	667.5
1512.226647	666.5
1512.744336	663.25
1513.261971	668.75
1513.77955	665.0
1514.297076	669.5
1514.814546	665.5
1515.331962	665.25
1515.849323	665.75
1516.366629	664.0
1516.883881	665.25
1517.401078	665.25
1517.918221	665.75
1518.435309	666.75
1518.952342	667.25
1519.469321	667.75
1519.986245	665.25
1520.503114	664.5
1521.019929	666.75
1521.536689	664.25
1522.053395	665.5
1522.570046	667.25
1523.086642	667.5
1523.603184	663.25
1524.119671	667.5
1524.636103	666.5
1525.152481	666.5
1525.668805	670.25
1526.185073	670.0
1526.701288	662.0
1527.217447	665.5
1527.733552	666.25
1528.249603	668.0
1528.765599	664.0
1529.28154	667.75
1529.797427	665.25
1530.313259	666.75
1530.829037	666.25
1531.34476	666.5
1531.860429	667.5
1532.376043	665.5
1532.891602	666.25
1533.407107	664.25
1533.922558	662.25
1534.437954	665.25
1534.953295	664.0
1535.468582	665.5
1535.983815	667.25
1536.498993	664.75
1537.014116	665.25
1537.529185	668.75
1538.044199	666.75
1538.559159	667.0
1539.074064	665.75
1539.588915	665.0
1540.103712	667.0
1540.618454	664.5
1541.133141	666.0
1541.647774	668.5
1542.162353	669.0
1542.676877	665.5
1543.191346	664.25
1543.705761	668.5
1544.220122	663.5
1544.734428	666.5
1545.24868	667.0
1545.762877	665.25
1546.27702	665.75
1546.791109	663.5
1547.305143	664.0
1547.819122	666.25
1548.333047	666.5
1548.846918	664.0
1549.360734	668.5
1549.874496	665.25
1550.388204	663.75
1550.901857	665.75
1551.415455	666.25
1551.929	666.0
1552.442489	666.5
1552.955925	666.25
1553.469306	665.25
1553.982632	666.25
1554.495905	663.0
1555.009123	666.0
1555.522286	662.0
1556.035395	666.5
1556.54845	665.75
1557.06145	665.25
1557.574396	665.25
1558.087288	669.0
1558.600125	667.25
1559.112908	666.25
1559.625637	665.0
1560.138311	663.75
1560.650931	664.5
1561.163497	665.25
1561.676008	667.0
1562.188465	669.25
1562.700867	665.5
1563.213216	667.0
1563.725509	663.75
1564.237749	663.75
1564.749934	665.75
1565.262065	666.0
1565.774142	666.0
1566.286164	667.0
1566.798132	662.5
1567.310046	663.75
1567.821906	664.0
1568.333711	667.75
1568.845462	663.75
1569.357158	669.0
1569.868801	666.0
1570.380389	666.0
1570.891922	665.25
1571.403402	662.25
1571.914827	664.75
1572.426198	664.0
1572.937515	661.75
1573.448777	665.5
1573.959985	663.75
1574.471139	667.25
1574.982239	665.0
1575.493285	665.0
1576.004276	667.0
1576.515213	664.25
1577.026096	664.75
1577.536924	668.0
1578.047698	666.25
1578.558419	666.5
1579.069084	663.75
1579.579696	665.5
1580.090254	667.0
1580.600757	666.0
1581.111206	667.25
1581.621601	666.5
1582.131941	666.5
1582.642228	664.25
1583.15246	664.0
1583.662638	667.5
1584.172762	663.5
1584.682832	667.5
1585.192847	668.5
1585.702809	664.5
1586.212716	667.0
1586.722569	665.25
1587.232368	665.0
1587.742113	666.0
1588.251803	664.0
1588.76144	665.25
1589.271022	665.75
1589.78055	663.75
1590.290024	665.0
1590.799444	666.75
1591.30881	664.75
1591.818121	664.5
1592.327379	662.75
