1042.414189	693.0
1042.980685	692.75
1043.547124	690.5
1044.113505	688.0
1044.679828	692.5
1045.246093	686.5
1045.8123	686.25
1046.378449	684.0
1046.94454	682.25
1047.510573	684.0
1048.076548	685.0
1048.642465	681.25
1049.208325	680.75
1049.774126	680.5
1050.339869	678.25
1050.905555	682.5
1051.471183	679.0
1052.036752	679.75
1052.602264	679.0
1053.167718	678.5
1053.733114	676.5
1054.298452	679.75
1054.863733	679.0
1055.428955	678.5
1055.994119	674.5
1056.559226	678.25
1057.124275	674.5
1057.689266	676.0
1058.254199	675.0
1058.819074	675.25
1059.383891	673.75
1059.94865	674.75
1060.513352	673.75
1061.077996	676.75
1061.642582	673.0
1062.20711	677.0
1062.77158	672.75
1063.335992	671.75
1063.900347	675.0
1064.464643	670.0
1065.028882	672.75
1065.593063	676.0
1066.157187	676.5
1066.721252	673.0
1067.28526	673.5
1067.84921	674.5
1068.413102	673.25
1068.976936	672.75
1069.540713	671.75
1070.104431	682.75
1070.668092	670.5
1071.231696	671.5
1071.795241	671.0
1072.358729	676.0
1072.922159	674.5
1073.485531	673.75
1074.048845	675.25
1074.612102	672.0
1075.175301	671.75
1075.738442	669.75
1076.301525	674.25
1076.864551	672.25
1077.427519	672.75
1077.990429	669.25
1078.553281	669.75
1079.116076	673.5
1079.678813	674.5
1080.241492	673.0
1080.804114	669.75
1081.366678	675.0
1081.929184	672.5
1082.491633	677.25
1083.054024	674.0
1083.616357	672.0
1084.178632	672.75
1084.74085	675.75
1085.30301	675.25
1085.865113	671.25
1086.427158	672.75
1086.989145	674.5
1087.551074	675.0
1088.112946	675.0
1088.67476	672.0
1089.236517	675.25
1089.798216	673.0
1090.359857	670.5
1090.92144	671.5
1091.482966	674.0
1092.044435	677.75
1092.605845	674.5
1093.167199	672.5
1093.728494	674.75
1094.289732	672.5
1094.850912	673.25
1095.412035	681.0
1095.9731	671.0
1096.534107	673.5
1097.095057	681.75
1097.65595	670.5
1098.216784	673.5
1098.777561	670.75
1099.338281	673.5
1099.898943	670.5
1100.459547	669.75
1101.020094	674.5
1101.580584	673.5
1102.141015	671.25
1102.701389	673.25
1103.261706	671.75
1103.821965	674.5
1104.382167	670.5
1104.942311	672.0
1105.502397	671.75
1106.062426	671.0
1106.622398	674.75
1107.182312	671.75
1107.742168	669.5
1108.301967	672.75
1108.861708	670.25
1109.421392	673.0
1109.981019	672.25
1110.540587	673.75
1111.100099	669.0
1111.659553	673.0
1112.218949	670.5
1112.778288	669.75
1113.33757	675.25
1113.896794	671.25
1114.45596	673.0
1115.015069	673.25
1115.574121	671.25
1116.133115	671.0
1116.692052	671.5
1117.250931	674.75
1117.809753	673.75
1118.368517	670.0
1118.927224	668.25
1119.485873	672.25
1120.044465	669.25
1120.603	671.25
1121.161477	674.5
1121.719897	670.5
1122.278259	674.0
1122.836564	671.5
1123.394812	672.25
1123.953002	671.5
1124.511135	669.25
1125.06921	669.75
1125.627228	671.75
1126.185189	671.5
1126.743092	668.5
1127.300938	672.5
1127.858726	672.0
1128.416457	669.0
1128.974131	671.5
1129.531748	667.25
1130.089307	670.0
1130.646808	673.0
1131.204252	672.75
1131.761639	672.25
1132.318969	669.0
1132.876241	669.75
1133.433456	672.0
1133.990614	672.5
1134.547714	671.5
1135.104757	672.5
1135.661743	671.25
1136.218671	673.0
1136.775542	670.25
1137.332356	670.25
1137.889112	671.25
1138.445811	671.0
1139.002453	670.75
1139.559037	671.0
1140.115565	670.5
1140.672035	672.0
1141.228447	670.5
1141.784803	670.0
1142.341101	671.5
1142.897342	673.75
1143.453525	674.25
1144.009651	673.5
1144.565721	670.0
1145.121732	669.75
1145.677687	669.5
1146.233584	672.25
1146.789424	671.25
1147.345207	672.25
1147.900933	673.5
1148.456601	671.5
1149.012212	671.5
1149.567766	670.75
1150.123263	674.0
1150.678702	673.25
1151.234085	671.25
1151.78941	672.75
1152.344678	668.75
1152.899888	670.5
1153.455042	669.5
1154.010138	668.75
1154.565177	671.5
1155.120159	670.75
1155.675084	668.75
1156.229951	671.5
1156.784762	667.75
1157.339515	673.25
1157.894211	671.5
1158.44885	673.75
1159.003432	672.25
1159.557956	667.25
1160.112424	673.0
1160.666834	668.25
1161.221187	672.0
1161.775483	668.25
1162.329722	670.75
1162.883904	671.0
1163.438029	670.5
1163.992096	672.0
1164.546107	671.75
1165.10006	672.5
1165.653956	671.25
1166.207795	670.75
1166.761577	670.75
1167.315302	673.25
1167.86897	672.0
1168.422581	669.75
1168.976134	669.5
1169.529631	671.5
1170.08307	671.0
1170.636453	670.5
1171.189778	669.5
1171.743046	667.5
1172.296257	670.5
1172.849412	669.5
1173.402509	668.75
1173.955549	672.0
1174.508532	671.0
1175.061458	671.5
1175.614327	669.75
1176.167138	670.0
1176.719893	671.25
1177.272591	669.25
1177.825232	672.25
1178.377816	670.75
1178.930342	671.5
1179.482812	670.75
1180.035225	670.5
1180.587581	671.5
1181.139879	670.25
1181.692121	671.75
1182.244306	671.25
1182.796434	669.75
1183.348504	673.75
1183.900518	675.0
1184.452475	673.0
1185.004375	671.0
1185.556218	670.75
1186.108004	672.0
1186.659733	672.75
1187.211405	671.5
1187.76302	669.5
1188.314578	674.0
1188.866079	670.75
1189.417523	672.0
1189.96891	674.5
1190.520241	670.25
1191.071514	671.75
1191.622731	673.0
1192.17389	672.75
1192.724993	671.5
1193.276039	692.0
1193.827027	670.25
1194.377959	669.25
1194.928834	669.75
1195.479653	670.25
1196.030414	673.5
1196.581118	673.75
1197.131766	671.25
1197.682356	671.0
1198.23289	671.0
1198.783367	669.0
1199.333786	674.25
1199.88415	670.0
1200.434456	669.75
1200.984705	673.5
1201.534898	668.5
1202.085033	674.5
1202.635112	671.5
1203.185134	671.75
1203.735099	673.25
1204.285007	672.0
1204.834859	671.0
1205.384653	672.5
1205.934391	670.25
1206.484072	670.0
1207.033696	673.5
1207.583263	672.0
1208.132774	673.5
1208.682228	670.75
1209.231624	670.5
1209.780965	672.0
1210.330248	671.75
1210.879474	670.0
1211.428644	671.0
1211.977757	673.0
1212.526813	671.0
1213.075813	671.25
1213.624755	671.75
1214.173641	673.5
1214.72247	669.5
1215.271242	672.0
1215.819958	671.5
1216.368617	672.75
1216.917219	671.5
1217.465764	676.25
1218.014253	674.0
1218.562685	674.0
1219.11106	671.0
1219.659378	675.5
1220.20764	674.5
1220.755845	673.0
1221.303993	671.25
1221.852085	668.75
1222.400119	675.5
1222.948097	674.5
1223.496019	672.0
1224.043883	671.5
1224.591691	673.5
1225.139443	671.25
1225.687137	670.75
1226.234775	672.0
1226.782357	673.5
1227.329881	674.0
1227.877349	671.75
1228.42476	671.75
1228.972115	669.5
1229.519413	672.75
1230.066654	672.25
1230.613839	671.0
1231.160967	673.25
1231.708038	673.25
1232.255053	672.0
1232.802011	671.75
1233.348912	675.5
1233.895757	673.0
1234.442545	675.0
1234.989277	668.25
1235.535951	670.75
1236.08257	671.25
1236.629131	672.75
1237.175636	674.0
1237.722085	670.25
1238.268477	676.25
1238.814812	672.25
1239.361091	689.25
1240.453478	671.5
1240.999587	671.5
1241.54564	672.5
1242.091636	670.25
1242.637575	673.75
1243.183457	673.75
1243.729284	672.75
1244.275053	671.25
1244.820766	671.0
1245.366423	672.25
1245.912022	670.25
1246.457566	671.5
1247.003053	672.5
1247.548483	671.5
1248.093857	673.5
1248.639174	670.75
1249.184435	669.75
1249.729639	671.25
1250.274787	673.5
1250.819878	676.0
1251.364912	673.25
1251.909891	669.25
1252.454812	673.0
1252.999677	669.75
1253.544486	671.5
1254.089238	672.25
1254.633934	669.0
1255.178573	672.25
1255.723156	673.5
1256.267682	670.5
1256.812152	668.0
1257.356565	673.25
1257.900922	666.25
1258.445223	669.5
1258.989467	674.0
1259.533654	674.25
1260.077785	683.25
1260.62186	671.0
1261.165878	674.25
1261.70984	671.25
1262.253745	672.25
1262.797594	672.25
1263.341386	672.0
1263.885123	675.5
1264.428802	676.75
1264.972425	677.5
1265.515992	677.0
1266.059503	676.5
1266.602957	673.25
1267.146354	672.75
1267.689696	672.75
1268.23298	672.75
1268.776209	669.5
1269.319381	670.75
1269.862497	668.75
1270.405556	672.25
1270.948559	670.75
1271.491506	669.5
1272.034396	669.25
1272.57723	670.5
1273.120007	674.0
1273.662728	668.0
1274.205393	672.25
1274.748002	672.5
1275.290554	671.0
1275.83305	669.0
1276.375489	670.25
1276.917872	669.0
1277.460199	673.5
1278.00247	670.0
1278.544684	667.0
1279.086842	670.5
1279.628943	673.5
1280.170989	671.5
1280.712978	669.25
1281.25491	671.5
1281.796787	672.5
1282.338607	671.5
1282.880371	673.5
1283.422078	678.5
1283.963729	681.25
1284.505324	702.75
1285.046863	751.25
1285.588345	777.25
1286.129772	722.25
1286.671142	690.5
1287.212455	678.5
1287.753713	671.75
1288.294914	671.25
1288.836059	671.25
1289.377147	670.5
1289.91818	667.75
1290.459156	671.5
1291.000076	671.0
1291.54094	673.75
1292.081747	669.25
1292.622499	670.25
1293.163194	672.25
1293.703833	671.5
1294.244415	670.5
1294.784942	672.0
1295.325412	671.5
1295.865826	667.0
1296.406184	669.25
1296.946486	669.25
1297.486731	670.25
1298.026921	672.0
1298.567054	670.25
1299.107131	666.75
1299.647152	669.75
1300.187116	673.25
1300.727025	669.25
1301.266877	670.75
1301.806673	671.25
1302.346413	669.0
1302.886097	668.75
1303.425725	668.75
1303.965297	670.25
1304.504812	671.0
1305.044272	671.0
1305.583675	670.0
1306.123022	668.5
1306.662313	668.75
1307.201548	670.0
1307.740727	671.25
1308.279849	666.75
1308.818916	671.25
1309.357926	668.25
1309.896881	672.25
1310.435779	669.25
1310.974621	668.25
1311.513407	669.5
1312.052137	669.75
1312.590811	666.0
1313.129429	671.75
1313.667991	668.0
1314.206497	666.5
1314.744946	668.75
1315.28334	668.0
1315.821678	671.75
1316.359959	670.75
1316.898184	670.75
1317.436354	668.75
1317.974467	669.75
1318.512525	674.0
1319.050526	672.5
1319.588471	673.25
1320.12636	668.25
1320.664194	668.25
1321.201971	669.25
1321.739692	671.25
1322.277357	670.25
1322.814967	672.0
1323.35252	668.25
1323.890017	676.75
1324.427458	670.25
1324.964843	667.25
1325.502173	671.0
1326.039446	670.25
1326.576663	669.75
1327.113824	671.0
1327.65093	670.0
1328.187979	666.75
1328.724972	668.5
1329.26191	670.0
1329.798791	666.5
1330.335617	669.75
1330.872386	669.75
1331.4091	668.0
1331.945758	671.25
1332.48236	668.75
1333.018905	668.0
1333.555395	671.5
1334.091829	668.75
1334.628207	668.25
1335.164529	668.5
1335.700796	667.75
1336.237006	671.75
1336.77316	670.0
1337.309259	668.25
1337.845301	671.5
1338.381288	671.0
1338.917219	671.0
1339.453094	668.25
1339.988913	671.25
1340.524676	667.75
1341.060383	671.25
1341.596034	668.75
1342.13163	670.0
1342.66717	672.25
1343.202653	668.0
1343.738081	672.0
1344.273453	667.25
1344.80877	671.25
1345.34403	668.0
1345.879235	669.0
1346.414383	668.25
1346.949476	668.5
1347.484513	668.75
1348.019494	672.0
1348.55442	670.25
1349.089289	668.0
1349.624103	668.25
1350.158861	668.25
1350.693563	669.25
1351.228209	671.0
1351.7628	668.75
1352.297334	671.0
1352.831813	672.25
1353.366236	668.25
1353.900604	670.5
1354.434915	670.5
1354.969171	666.25
1355.503371	670.75
1356.037515	670.75
1356.571604	669.5
1357.105636	667.25
1357.639613	667.5
1358.173535	670.0
1358.7074	670.75
1359.24121	670.75
1359.774964	668.75
1360.308662	667.75
1360.842304	668.5
1361.375891	668.75
1361.909422	668.25
1362.442897	668.25
1362.976317	670.25
1363.50968	668.25
1364.042989	671.25
1364.576241	668.25
1365.109438	670.25
1365.642579	670.0
1366.175664	665.75
1366.708693	669.0
1367.241667	668.25
1367.774585	668.0
1368.307448	671.0
1368.840255	667.75
1369.373006	670.5
1369.905701	669.75
1370.438341	671.25
1370.970925	671.25
1371.503454	669.75
1372.035926	667.5
1372.568344	669.25
1373.100705	669.0
1373.633011	668.5
1374.165261	671.0
1374.697456	670.0
1375.229595	670.25
1375.761678	669.75
1376.293705	673.0
1376.825677	670.5
1377.357594	668.25
1377.889455	670.75
1378.42126	669.0
1378.953009	671.25
1379.484703	667.75
1380.016342	671.0
1380.547924	672.5
1381.079452	672.0
1381.610923	671.25
1382.142339	672.0
1382.673699	671.5
1383.205004	668.5
1383.736253	670.75
1384.267447	673.0
1384.798585	671.75
1385.329668	672.25
1385.860695	675.25
1386.391666	675.0
1386.922582	676.25
1387.453442	684.75
1387.984247	717.5
1388.514996	825.0
1389.04569	850.25
1389.576328	735.5
1390.10691	687.75
1390.637437	677.0
1391.167909	672.75
1391.698325	672.5
1392.228685	670.5
1392.75899	669.75
1393.28924	670.5
1393.819434	672.75
1394.349572	672.25
1394.879655	670.75
1395.409683	674.75
1395.939655	670.75
1396.469571	668.0
1396.999432	669.5
1397.529237	670.25
1398.058987	670.25
1398.588682	669.5
1399.118321	668.5
1399.647905	669.5
1400.177433	669.0
1400.706906	668.75
1401.236323	668.0
1401.765685	671.75
1402.294991	668.5
1402.824242	669.75
1403.353437	671.25
1403.882577	670.0
1404.411662	669.5
1404.940691	675.5
1405.469665	671.25
1405.998583	668.25
1406.527446	670.5
1407.056253	670.25
1407.585005	671.5
1408.113702	670.75
1408.642343	670.5
1409.170929	676.0
1409.69946	679.0
1410.227935	682.75
1410.756354	676.75
1411.284719	672.75
1411.813028	668.25
1412.341281	672.25
1412.869479	667.75
1413.397622	667.5
1413.92571	667.0
1414.453742	670.75
1414.981718	672.0
1415.50964	679.75
1416.037506	668.0
1416.565316	667.75
1417.093072	670.25
1417.620772	669.5
1418.148416	668.0
1418.676005	669.5
1419.203539	668.25
1419.731018	665.75
1420.258441	670.0
1420.785809	669.5
1421.313122	668.25
1421.840379	668.5
1422.367582	667.5
1422.894728	670.0
1423.42182	667.0
1423.948856	671.5
1424.475837	669.0
1425.002762	668.0
1425.529633	665.5
1426.056448	669.75
1426.583207	671.5
1427.109912	671.25
1427.636561	669.25
1428.163155	668.25
1428.689694	667.75
1429.216177	666.25
1429.742605	669.5
1430.268978	671.25
1430.795296	669.75
1431.321558	668.0
1431.847765	666.25
1432.373917	668.0
1432.900014	669.5
1433.426056	670.0
1433.952042	669.5
1434.477973	666.25
1435.003849	668.0
1435.529669	669.0
1436.055435	670.0
1436.581145	670.0
1437.1068	668.75
1437.632399	668.0
1438.157944	670.5
1438.683433	668.25
1439.208868	671.5
1439.734247	671.25
1440.25957	668.25
1440.784839	666.75
1441.310053	665.75
1441.835211	668.75
1442.360314	668.75
1442.885362	669.5
1443.410355	666.5
1443.935292	668.0
1444.460175	669.0
1444.985002	666.75
1445.509774	670.25
1446.034491	668.5
1446.559153	670.75
1447.08376	669.0
1447.608312	669.5
1448.132808	671.0
1448.65725	668.5
1449.181636	668.75
1449.705967	670.25
1450.230243	669.25
1450.754464	668.5
1451.27863	667.5
1451.802741	667.5
1452.326797	668.0
1452.850797	667.5
1453.374743	669.5
1453.898633	668.0
1454.422468	672.75
1454.946249	669.0
1455.469974	669.5
1455.993644	672.25
1456.517259	669.0
1457.040819	668.5
1457.564324	670.0
1458.087773	669.75
1458.611168	669.5
1459.134508	668.75
1459.657793	665.5
1460.181022	669.0
1460.704197	668.5
1461.227316	672.75
1461.750381	668.0
1462.27339	671.75
1462.796345	674.75
1463.319244	668.25
1463.842089	668.0
1464.364878	670.5
1464.887613	669.5
1465.410292	670.25
1465.932916	669.5
1466.455486	666.0
1466.978	664.75
1467.50046	670.5
1468.022864	669.0
1468.545214	667.75
1469.067508	669.75
1469.589748	667.0
1470.111932	668.75
1470.634062	668.25
1471.156136	669.5
1471.678156	668.25
1472.20012	667.0
1472.72203	665.75
1473.243885	666.25
1473.765685	670.0
1474.28743	671.0
1474.80912	665.75
1475.330755	669.0
1475.852335	666.0
1476.37386	665.25
1476.89533	667.25
1477.416745	668.25
1477.938106	670.25
1478.459411	671.0
1478.980662	671.25
1479.501857	670.5
1480.022998	669.5
1480.544084	667.25
1481.065115	668.0
1481.586091	666.5
1482.107012	669.0
1482.627878	667.75
1483.14869	668.0
1483.669446	668.0
1484.190148	667.75
1484.710794	669.0
1485.231386	669.5
1485.751923	666.5
1486.272406	670.75
1486.792833	666.5
1487.313205	671.0
1487.833523	667.5
1488.353786	663.5
1488.873994	666.0
1489.394147	668.75
1489.914245	668.25
1490.434288	663.75
1490.954277	667.5
1491.474211	664.25
1491.99409	667.25
1492.513914	666.0
1493.033683	667.75
1493.553398	670.0
1494.073057	668.5
1494.592662	667.25
1495.112212	667.25
1495.631708	667.75
1496.151148	666.75
1496.670534	666.75
1497.189865	665.25
1497.709141	668.75
1498.228362	667.75
1498.747529	664.75
1499.266641	667.25
1499.785698	674.75
1500.3047	668.0
1500.823648	664.5
1501.34254	668.25
1501.861379	666.5
1502.380162	665.0
1502.89889	668.75
1503.417564	666.75
1503.936183	668.0
1504.454748	666.75
1504.973257	668.25
1505.491712	669.5
1506.010112	666.0
1506.528458	667.0
1507.046748	668.5
1507.564984	667.75
1508.083166	666.0
1508.601292	668.5
1509.119364	666.25
1509.637381	666.5
1510.155344	667.5
1510.673252	677.25
1511.191105	668.0
1511.708903	668.5
1512.226647	668.0
1512.744336	669.25
1513.261971	668.0
1513.77955	668.0
1514.297076	664.5
1514.814546	666.25
1515.331962	663.5
1515.849323	668.0
1516.366629	668.75
1516.883881	663.5
1517.401078	665.25
1517.918221	669.5
1518.435309	668.5
1518.952342	667.0
1519.469321	669.75
1519.986245	667.75
1520.503114	667.25
1521.019929	666.75
1521.536689	669.5
1522.053395	667.0
1522.570046	665.75
1523.086642	670.0
1523.603184	667.0
1524.119671	667.5
1524.636103	666.75
1525.152481	667.5
1525.668805	669.5
1526.185073	671.0
1526.701288	670.0
1527.217447	667.5
1527.733552	667.75
1528.249603	666.5
1528.765599	669.75
1529.28154	667.75
1529.797427	667.0
1530.313259	666.25
1530.829037	666.75
1531.34476	664.75
1531.860429	666.75
1532.376043	668.0
1532.891602	666.75
1533.407107	666.75
1533.922558	667.25
1534.437954	670.0
1534.953295	666.75
1535.468582	670.5
1535.983815	665.5
1536.498993	666.0
1537.014116	666.5
1537.529185	666.75
1538.044199	668.0
1538.559159	666.0
1539.074064	666.0
1539.588915	669.0
1540.103712	669.25
1540.618454	668.5
1541.133141	667.0
1541.647774	666.5
1542.162353	669.0
1542.676877	665.25
1543.191346	669.5
1543.705761	666.75
1544.220122	668.75
1544.734428	665.75
1545.24868	668.25
1545.762877	664.5
1546.27702	666.75
1546.791109	665.25
1547.305143	665.25
1547.819122	666.25
1548.333047	667.75
1548.846918	667.75
1549.360734	666.75
1549.874496	668.0
1550.388204	668.25
1550.901857	666.75
1551.415455	669.5
1551.929	667.0
1552.442489	663.75
1552.955925	666.25
1553.469306	666.75
1553.982632	668.0
1554.495905	667.5
1555.009123	666.0
1555.522286	668.0
1556.035395	666.5
1556.54845	668.25
1557.06145	665.25
1557.574396	666.0
1558.087288	664.75
1558.600125	668.25
1559.112908	666.75
1559.625637	667.5
1560.138311	669.0
1560.650931	667.75
1561.163497	668.25
1561.676008	667.75
1562.188465	666.75
1562.700867	669.0
1563.213216	665.75
1563.725509	666.75
1564.237749	666.0
1564.749934	667.25
1565.262065	667.0
1565.774142	666.0
1566.286164	666.5
1566.798132	666.5
1567.310046	669.25
1567.821906	667.75
1568.333711	666.0
1568.845462	663.0
1569.357158	667.0
1569.868801	669.5
1570.380389	667.5
1570.891922	664.5
1571.403402	667.5
1571.914827	666.75
1572.426198	667.25
1572.937515	664.75
1573.448777	668.25
1573.959985	668.0
1574.471139	665.75
1574.982239	667.75
1575.493285	667.0
1576.004276	666.75
1576.515213	667.0
1577.026096	663.25
1577.536924	666.0
1578.047698	665.75
1578.558419	667.75
1579.069084	666.0
1579.579696	664.0
1580.090254	668.0
1580.600757	665.0
1581.111206	667.5
1581.621601	666.5
1582.131941	669.0
1582.642228	666.0
1583.15246	667.75
1583.662638	668.0
1584.172762	667.75
1584.682832	664.0
1585.192847	666.75
1585.702809	665.0
1586.212716	667.25
1586.722569	667.75
1587.232368	667.25
1587.742113	663.0
1588.251803	667.75
1588.76144	666.5
1589.271022	665.0
1589.78055	667.25
1590.290024	666.0
1590.799444	668.5
1591.30881	667.0
1591.818121	666.25
1592.327379	662.0
