1042.414189	684.0
1042.980685	683.25
1043.547124	681.0
1044.113505	680.75
1044.679828	679.5
1045.246093	679.75
1045.8123	679.25
1046.378449	677.25
1046.94454	674.75
1047.510573	672.5
1048.076548	675.75
1048.642465	674.5
1049.208325	671.25
1049.774126	672.75
1050.339869	676.0
1050.905555	675.25
1051.471183	675.25
1052.036752	673.0
1052.602264	670.0
1053.167718	669.25
1053.733114	671.0
1054.298452	668.75
1054.863733	673.0
1055.428955	669.0
1055.994119	667.0
1056.559226	672.0
1057.124275	671.75
1057.689266	667.25
1058.254199	666.25
1058.819074	666.5
1059.383891	667.0
1059.94865	666.75
1060.513352	666.25
1061.077996	665.0
1061.642582	666.25
1062.20711	667.25
1062.77158	667.75
1063.335992	666.5
1063.900347	666.25
1064.464643	666.0
1065.028882	665.5
1065.593063	668.0
1066.157187	669.0
1066.721252	665.5
1067.28526	664.5
1067.84921	668.0
1068.413102	663.25
1068.976936	665.0
1069.540713	669.25
1070.104431	673.25
1070.668092	666.0
1071.231696	664.5
1071.795241	667.75
1072.358729	665.5
1072.922159	664.75
1073.485531	667.75
1074.048845	665.5
1074.612102	666.0
1075.175301	664.0
1075.738442	667.5
1076.301525	666.25
1076.864551	664.75
1077.427519	661.5
1077.990429	665.5
1078.553281	665.5
1079.116076	665.0
1079.678813	664.25
1080.241492	666.75
1080.804114	666.0
1081.366678	665.0
1081.929184	665.5
1082.491633	664.0
1083.054024	662.25
1083.616357	664.25
1084.178632	662.75
1084.74085	663.5
1085.30301	665.5
1085.865113	666.25
1086.427158	662.0
1086.989145	663.75
1087.551074	662.75
1088.112946	663.25
1088.67476	664.75
1089.236517	667.0
1089.798216	663.0
1090.359857	663.25
1090.92144	666.25
1091.482966	665.25
1092.044435	664.75
1092.605845	665.25
1093.167199	664.75
1093.728494	665.75
1094.289732	664.5
1094.850912	663.0
1095.412035	671.75
1095.9731	667.5
1096.534107	664.75
1097.095057	673.25
1097.65595	663.25
1098.216784	664.0
1098.777561	665.25
1099.338281	662.0
1099.898943	663.0
1100.459547	665.5
1101.020094	667.25
1101.580584	662.5
1102.141015	666.5
1102.701389	666.0
1103.261706	664.25
1103.821965	661.5
1104.382167	664.5
1104.942311	662.0
1105.502397	664.25
1106.062426	664.0
1106.622398	667.75
1107.182312	664.75
1107.742168	663.25
1108.301967	663.25
1108.861708	667.5
1109.421392	664.5
1109.981019	663.5
1110.540587	660.75
1111.100099	664.5
1111.659553	664.25
1112.218949	666.75
1112.778288	666.0
1113.33757	663.75
1113.896794	662.75
1114.45596	665.5
1115.015069	661.75
1115.574121	662.5
1116.133115	664.5
1116.692052	665.75
1117.250931	667.25
1117.809753	662.75
1118.368517	663.5
1118.927224	663.5
1119.485873	663.0
1120.044465	663.0
1120.603	663.0
1121.161477	663.75
1121.719897	663.5
1122.278259	662.25
1122.836564	664.75
1123.394812	664.25
1123.953002	664.75
1124.511135	661.75
1125.06921	663.0
1125.627228	664.75
1126.185189	665.25
1126.743092	663.25
1127.300938	664.25
1127.858726	661.25
1128.416457	664.25
1128.974131	663.0
1129.531748	664.0
1130.089307	661.0
1130.646808	663.75
1131.204252	663.75
1131.761639	660.75
1132.318969	665.5
1132.876241	660.5
1133.433456	663.25
1133.990614	664.75
1134.547714	664.75
1135.104757	664.0
1135.661743	662.75
1136.218671	659.5
1136.775542	662.5
1137.332356	662.0
1137.889112	659.75
1138.445811	662.5
1139.002453	664.0
1139.559037	662.5
1140.115565	665.5
1140.672035	662.75
1141.228447	663.0
1141.784803	664.5
1142.341101	665.25
1142.897342	663.5
1143.453525	664.5
1144.009651	664.0
1144.565721	662.25
1145.121732	663.5
1145.677687	659.75
1146.233584	663.5
1146.789424	663.75
1147.345207	665.0
1147.900933	663.0
1148.456601	661.75
1149.012212	665.0
1149.567766	665.25
1150.123263	663.5
1150.678702	664.5
1151.234085	661.5
1151.78941	660.5
1152.344678	662.5
1152.899888	663.25
1153.455042	663.75
1154.010138	667.0
1154.565177	667.5
1155.120159	664.5
1155.675084	663.0
1156.229951	666.5
1156.784762	662.25
1157.339515	663.5
1157.894211	662.75
1158.44885	662.75
1159.003432	663.5
1159.557956	661.0
1160.112424	661.25
1160.666834	663.5
1161.221187	664.0
1161.775483	664.5
1162.329722	663.0
1162.883904	666.0
1163.438029	660.5
1163.992096	664.25
1164.546107	662.25
1165.10006	663.5
1165.653956	663.0
1166.207795	662.75
1166.761577	662.75
1167.315302	664.5
1167.86897	661.5
1168.422581	664.5
1168.976134	664.0
1169.529631	662.0
1170.08307	664.0
1170.636453	663.25
1171.189778	664.25
1171.743046	662.5
1172.296257	663.25
1172.849412	662.5
1173.402509	661.75
1173.955549	661.75
1174.508532	661.25
1175.061458	664.5
1175.614327	661.0
1176.167138	663.0
1176.719893	663.0
1177.272591	663.5
1177.825232	663.75
1178.377816	663.25
1178.930342	662.25
1179.482812	663.5
1180.035225	662.75
1180.587581	664.5
1181.139879	664.5
1181.692121	663.75
1182.244306	664.0
1182.796434	662.75
1183.348504	664.0
1183.900518	663.0
1184.452475	660.0
1185.004375	664.25
1185.556218	662.25
1186.108004	660.75
1186.659733	664.25
1187.211405	663.0
1187.76302	666.25
1188.314578	664.25
1188.866079	665.25
1189.417523	663.0
1189.96891	662.0
1190.520241	664.75
1191.071514	663.25
1191.622731	663.75
1192.17389	662.5
1192.724993	665.0
1193.276039	682.75
1193.827027	661.25
1194.377959	660.75
1194.928834	664.25
1195.479653	662.75
1196.030414	663.25
1196.581118	662.5
1197.131766	662.75
1197.682356	663.5
1198.23289	665.0
1198.783367	661.25
1199.333786	664.5
1199.88415	663.0
1200.434456	661.75
1200.984705	663.25
1201.534898	659.0
1202.085033	660.75
1202.635112	663.0
1203.185134	660.5
1203.735099	662.5
1204.285007	662.25
1204.834859	663.75
1205.384653	664.0
1205.934391	660.75
1206.484072	660.5
1207.033696	663.25
1207.583263	662.5
1208.132774	662.25
1208.682228	664.5
1209.231624	664.25
1209.780965	663.5
1210.330248	662.25
1210.879474	660.25
1211.428644	662.0
1211.977757	664.0
1212.526813	663.75
1213.075813	665.0
1213.624755	662.0
1214.173641	659.75
1214.72247	662.0
1215.271242	663.5
1215.819958	665.0
1216.368617	664.75
1216.917219	662.75
1217.465764	663.5
1218.014253	662.0
1218.562685	662.0
1219.11106	664.0
1219.659378	663.75
1220.20764	662.75
1220.755845	661.25
1221.303993	665.75
1221.852085	666.0
1222.400119	662.0
1222.948097	664.25
1223.496019	662.75
1224.043883	661.0
1224.591691	661.75
1225.139443	662.75
1225.687137	659.5
1226.234775	662.75
1226.782357	660.75
1227.329881	664.25
1227.877349	665.0
1228.42476	660.25
1228.972115	663.75
1229.519413	665.5
1230.066654	663.5
1230.613839	662.75
1231.160967	661.5
1231.708038	662.0
1232.255053	661.75
1232.802011	666.0
1233.348912	663.0
1233.895757	662.5
1234.442545	663.0
1234.989277	660.5
1235.535951	665.75
1236.08257	662.0
1236.629131	662.75
1237.175636	663.75
1237.722085	664.25
1238.268477	662.5
1238.814812	661.5
1239.361091	663.0
1239.907313	664.5
1240.453478	663.5
1240.999587	665.75
1241.54564	661.5
1242.091636	663.25
1242.637575	662.0
1243.183457	663.5
1243.729284	661.75
1244.275053	662.25
1244.820766	664.75
1245.366423	661.75
1245.912022	663.75
1246.457566	662.0
1247.003053	664.25
1247.548483	661.75
1248.093857	662.5
1248.639174	664.0
1249.184435	664.0
1249.729639	665.5
1250.274787	661.75
1250.819878	663.25
1251.364912	659.25
1251.909891	662.25
1252.454812	663.5
1252.999677	659.5
1253.544486	663.75
1254.089238	664.5
1254.633934	663.0
1255.178573	665.5
1255.723156	662.5
1256.267682	662.75
1256.812152	660.75
1257.356565	662.0
1257.900922	661.0
1258.445223	662.75
1258.989467	661.0
1259.533654	663.75
1260.077785	676.5
1260.62186	663.0
1261.165878	660.0
1261.70984	665.0
1262.253745	661.25
1262.797594	664.25
1263.341386	664.0
1263.885123	663.0
1264.428802	665.0
1264.972425	665.5
1265.515992	669.75
1266.059503	665.75
1266.602957	665.25
1267.146354	664.0
1267.689696	662.25
1268.23298	666.0
1268.776209	664.25
1269.319381	663.0
1269.862497	661.5
1270.405556	661.25
1270.948559	661.0
1271.491506	661.0
1272.034396	663.0
1272.57723	663.75
1273.120007	663.75
1273.662728	661.5
1274.205393	661.75
1274.748002	661.75
1275.290554	663.75
1275.83305	662.5
1276.375489	661.75
1276.917872	659.5
1277.460199	662.25
1278.00247	663.5
1278.544684	661.0
1279.086842	664.75
1279.628943	661.0
1280.170989	663.75
1280.712978	660.0
1281.25491	663.25
1281.796787	663.75
1282.338607	664.25
1282.880371	662.75
1283.422078	662.5
1283.963729	666.0
1284.505324	666.5
1285.046863	677.5
1285.588345	717.5
1286.129772	725.75
1286.671142	684.75
1287.212455	667.25
1287.753713	665.0
1288.294914	663.0
1288.836059	664.25
1289.377147	666.25
1289.91818	662.0
1290.459156	659.25
1291.000076	664.0
1291.54094	663.25
1292.081747	663.25
1292.622499	660.75
1293.163194	662.0
1293.703833	662.25
1294.244415	664.25
1294.784942	661.25
1295.325412	661.0
1296.946486	662.0
1297.486731	662.0
1298.026921	659.5
1298.567054	664.25
1299.107131	663.75
1299.647152	663.5
1300.187116	662.5
1300.727025	664.0
1301.266877	661.25
1301.806673	660.5
1302.346413	664.75
1302.886097	663.75
1303.425725	660.75
1303.965297	661.25
1304.504812	662.25
1305.044272	661.0
1305.583675	664.0
1306.123022	660.0
1306.662313	663.75
1307.201548	663.0
1307.740727	662.5
1308.279849	665.0
1308.818916	663.0
1309.357926	663.0
1309.896881	661.25
1310.435779	662.25
1310.974621	664.0
1311.513407	662.0
1312.052137	663.0
1312.590811	662.5
1313.129429	660.25
1313.667991	662.75
1314.206497	662.75
1314.744946	661.75
1315.28334	664.0
1315.821678	663.5
1316.359959	662.75
1316.898184	662.5
1317.436354	663.75
1317.974467	658.5
1318.512525	661.75
1319.050526	662.25
1319.588471	662.75
1320.12636	661.5
1320.664194	660.5
1321.201971	663.25
1321.739692	661.75
1322.277357	662.75
1322.814967	661.25
1323.35252	660.5
1323.890017	666.75
1324.427458	662.75
1324.964843	662.75
1325.502173	665.0
1326.039446	664.0
1326.576663	664.0
1327.113824	662.0
1327.65093	663.75
1328.187979	661.0
1328.724972	666.25
1329.26191	663.0
1329.798791	661.5
1330.335617	663.25
1330.872386	663.0
1331.4091	661.25
1331.945758	662.0
1332.48236	661.0
1333.018905	663.0
1333.555395	662.25
1334.091829	661.75
1334.628207	663.25
1335.164529	660.5
1335.700796	661.75
1336.237006	664.25
1336.77316	663.25
1337.309259	663.0
1337.845301	660.0
1338.381288	662.75
1338.917219	661.25
1339.453094	662.25
1339.988913	664.75
1340.524676	662.5
1341.060383	663.0
1341.596034	661.75
1342.13163	663.0
1342.66717	660.75
1343.202653	662.0
1343.738081	664.75
1344.273453	664.25
1344.80877	660.5
1345.34403	661.25
1345.879235	661.5
1346.414383	661.25
1346.949476	662.25
1347.484513	662.0
1348.019494	664.0
1348.55442	665.0
1349.089289	661.5
1349.624103	660.75
1350.158861	661.75
1350.693563	662.0
1351.228209	661.75
1351.7628	662.75
1352.297334	661.75
1352.831813	662.0
1353.366236	662.25
1353.900604	664.0
1354.434915	661.25
1354.969171	663.0
1355.503371	661.75
1356.037515	661.5
1356.571604	665.75
1357.105636	661.75
1357.639613	660.5
1358.173535	660.0
1358.7074	663.25
1359.24121	661.5
1359.774964	663.0
1360.308662	664.0
1360.842304	663.5
1361.375891	660.25
1361.909422	662.5
1362.442897	665.0
1362.976317	662.75
1363.50968	661.5
1364.042989	662.5
1364.576241	663.75
1365.109438	664.0
1365.642579	661.5
1366.175664	661.0
1366.708693	662.5
1367.241667	662.75
1367.774585	663.0
1368.307448	666.0
1368.840255	660.75
1369.373006	664.75
1369.905701	662.75
1370.438341	662.75
1370.970925	665.0
1371.503454	662.25
1372.035926	660.75
1372.568344	662.0
1373.100705	662.25
1373.633011	660.75
1374.165261	662.5
1374.697456	661.25
1375.229595	662.0
1375.761678	660.0
1376.293705	659.5
1376.825677	664.5
1377.357594	661.5
1377.889455	662.25
1378.42126	661.0
1378.953009	661.5
1379.484703	663.75
1380.016342	664.5
1380.547924	663.5
1381.079452	661.75
1381.610923	663.0
1382.142339	662.25
1382.673699	661.0
1383.205004	662.0
1383.736253	664.25
1384.267447	665.75
1384.798585	665.25
1385.329668	665.25
1385.860695	662.25
1386.391666	665.0
1386.922582	666.75
1387.453442	665.5
1387.984247	672.25
1388.514996	707.75
1389.04569	789.0
1389.576328	723.25
1390.10691	675.5
1390.637437	665.0
1391.167909	663.75
1391.698325	664.0
1392.228685	661.75
1392.75899	663.0
1393.28924	662.75
1393.819434	663.75
1394.349572	664.25
1394.879655	662.75
1395.409683	659.0
1395.939655	658.75
1396.469571	662.25
1396.999432	661.75
1397.529237	659.0
1398.058987	661.5
1398.588682	661.75
1399.118321	663.5
1399.647905	662.0
1400.177433	663.25
1400.706906	662.75
1401.236323	664.5
1401.765685	662.0
1402.294991	663.25
1402.824242	661.5
1403.353437	661.25
1403.882577	660.25
1404.411662	663.0
1404.940691	662.5
1405.469665	663.25
1405.998583	661.0
1406.527446	662.5
1407.056253	660.25
1407.585005	663.5
1408.113702	662.0
1408.642343	664.25
1409.170929	662.75
1409.69946	664.25
1410.227935	668.0
1410.756354	670.0
1411.284719	665.25
1411.813028	660.0
1412.341281	660.5
1412.869479	661.25
1413.397622	665.25
1413.92571	662.25
1414.453742	661.75
1414.981718	662.25
1415.50964	676.75
1416.037506	662.0
1416.565316	662.0
1417.093072	661.75
1417.620772	663.0
1418.148416	662.75
1418.676005	659.25
1419.203539	661.5
1419.731018	662.5
1420.258441	662.0
1420.785809	660.5
1421.313122	661.0
1421.840379	663.75
1422.367582	664.75
1422.894728	663.0
1423.42182	662.0
1423.948856	663.25
1424.475837	663.5
1425.002762	663.25
1425.529633	662.25
1426.056448	661.5
1426.583207	663.5
1427.109912	662.25
1427.636561	661.75
1428.163155	662.25
1428.689694	659.25
1429.216177	661.0
1429.742605	661.5
1430.268978	661.5
1430.795296	660.5
1431.321558	662.0
1431.847765	661.0
1432.373917	662.75
1432.900014	661.5
1433.426056	661.75
1433.952042	662.25
1434.477973	663.5
1435.003849	662.5
1435.529669	658.0
1436.055435	662.75
1436.581145	663.0
1437.1068	660.5
1437.632399	662.0
1438.157944	661.5
1438.683433	661.25
1439.208868	661.25
1439.734247	659.25
1440.25957	662.0
1440.784839	660.5
1441.310053	661.75
1441.835211	660.75
1442.360314	660.25
1442.885362	661.75
1443.410355	664.25
1443.935292	661.25
1444.460175	662.75
1444.985002	662.25
1445.509774	661.25
1446.034491	660.5
1446.559153	665.25
1447.08376	661.0
1447.608312	665.5
1448.132808	661.25
1448.65725	662.5
1449.181636	664.25
1449.705967	662.0
1450.230243	662.25
1450.754464	664.0
1451.27863	659.75
1451.802741	659.75
1452.326797	663.75
1452.850797	662.75
1453.374743	662.0
1453.898633	661.5
1454.422468	659.75
1454.946249	662.0
1455.469974	661.0
1455.993644	661.75
1456.517259	659.5
1457.040819	660.25
1457.564324	663.0
1458.087773	664.25
1458.611168	662.25
1459.134508	662.75
1459.657793	659.25
1460.181022	661.25
1460.704197	662.25
1461.227316	661.25
1461.750381	661.75
1462.27339	661.0
1462.796345	663.25
1463.319244	662.25
1463.842089	659.5
1464.364878	660.5
1464.887613	660.75
1465.410292	661.25
1465.932916	661.75
1466.455486	659.75
1466.978	661.5
1467.50046	659.0
1468.022864	660.75
1468.545214	662.75
1469.067508	661.75
1469.589748	663.75
1470.111932	663.75
1470.634062	661.5
1471.156136	660.25
1471.678156	663.25
1472.20012	663.5
1472.72203	661.75
1473.243885	659.75
1473.765685	660.5
1474.28743	661.5
1474.80912	660.5
1475.330755	660.75
1475.852335	661.75
1476.37386	661.75
1476.89533	660.75
1477.416745	660.75
1477.938106	664.0
1478.459411	660.0
1478.980662	663.75
1479.501857	662.75
1480.022998	661.25
1480.544084	660.75
1481.065115	662.75
1481.586091	661.75
1482.107012	661.0
1482.627878	661.75
1483.14869	663.0
1483.669446	658.25
1484.190148	660.75
1484.710794	661.0
1485.231386	660.5
1485.751923	663.75
1486.272406	661.0
1486.792833	663.75
1487.313205	662.75
1487.833523	662.5
1488.353786	661.0
1488.873994	659.5
1489.394147	663.75
1489.914245	662.25
1490.434288	660.5
1490.954277	659.75
1491.474211	660.75
1491.99409	661.25
1492.513914	659.5
1493.033683	662.5
1493.553398	661.25
1494.073057	663.5
1494.592662	661.25
1495.112212	663.75
1495.631708	661.75
1496.151148	659.5
1496.670534	660.75
1497.189865	662.0
1497.709141	661.75
1498.228362	662.0
1498.747529	661.25
1499.266641	660.0
1499.785698	671.0
1500.3047	657.75
1500.823648	661.5
1501.34254	664.0
1501.861379	661.5
1502.380162	660.5
1502.89889	659.0
1503.417564	661.0
1503.936183	662.25
1504.454748	661.5
1504.973257	660.5
1505.491712	662.25
1506.010112	663.0
1506.528458	659.75
1507.046748	662.25
1507.564984	662.0
1508.083166	661.75
1508.601292	658.5
1509.119364	661.0
1509.637381	660.25
1510.155344	660.5
1510.673252	668.5
1511.191105	662.0
1511.708903	657.75
1512.226647	662.5
1512.744336	663.0
1513.261971	665.75
1513.77955	660.75
1514.297076	663.75
1514.814546	661.0
1515.331962	660.25
1515.849323	660.75
1516.366629	661.25
1516.883881	657.75
1517.401078	659.0
1517.918221	660.75
1518.435309	660.0
1518.952342	661.75
1519.469321	663.25
1519.986245	659.25
1520.503114	662.5
1521.019929	662.25
1521.536689	662.0
1522.053395	661.5
1522.570046	659.25
1523.086642	661.25
1523.603184	661.0
1524.119671	663.5
1524.636103	659.25
1525.152481	661.75
1525.668805	661.25
1526.185073	662.25
1526.701288	662.0
1527.217447	659.0
1527.733552	661.0
1528.249603	662.5
1528.765599	663.0
1529.28154	663.0
1529.797427	663.25
1530.313259	660.0
1530.829037	661.75
1531.34476	660.75
1531.860429	661.0
1532.376043	661.75
1532.891602	660.75
1533.407107	661.75
1533.922558	661.75
1534.437954	662.25
1534.953295	661.5
1535.468582	660.5
1535.983815	662.75
1536.498993	659.25
1537.014116	660.25
1537.529185	660.0
1538.044199	663.5
1538.559159	660.0
1539.074064	662.25
1539.588915	661.5
1540.103712	660.0
1540.618454	660.75
1541.133141	660.0
1541.647774	661.5
1542.162353	661.25
1542.676877	659.0
1543.191346	663.25
1543.705761	662.0
1544.220122	663.0
1544.734428	660.5
1545.24868	662.0
1545.762877	663.25
1546.27702	661.5
1546.791109	661.75
1547.305143	659.0
1547.819122	659.5
1548.333047	664.0
1548.846918	658.25
1549.360734	661.25
1549.874496	662.5
1550.388204	659.5
1550.901857	660.25
1551.415455	662.25
1551.929	658.75
1552.442489	661.75
1552.955925	660.75
1553.469306	659.75
1553.982632	660.75
1554.495905	661.75
1555.009123	661.5
1555.522286	661.25
1556.035395	661.5
1556.54845	660.25
1557.06145	660.75
1557.574396	662.5
1558.087288	661.25
1558.600125	661.0
1559.112908	660.25
1559.625637	662.75
1560.138311	662.5
1560.650931	660.75
1561.163497	659.75
1561.676008	659.25
1562.188465	659.75
1562.700867	661.5
1563.213216	660.0
1563.725509	659.25
1564.237749	661.5
1564.749934	659.25
1565.262065	661.25
1565.774142	660.75
1566.286164	658.5
1566.798132	659.75
1567.310046	660.5
1567.821906	660.75
1568.333711	661.25
1568.845462	659.75
1569.357158	660.25
1569.868801	662.75
1570.380389	660.5
1570.891922	660.75
1571.403402	661.75
1571.914827	663.0
1572.426198	660.0
1572.937515	663.5
1573.448777	658.75
1573.959985	659.75
1574.471139	662.5
1574.982239	658.25
1575.493285	661.5
1576.004276	661.75
1576.515213	659.5
1577.026096	662.25
1577.536924	661.5
1578.047698	660.25
1578.558419	660.5
1579.069084	662.5
1579.579696	661.0
1580.090254	660.75
1580.600757	661.5
1581.111206	662.5
1581.621601	657.25
1582.131941	662.5
1582.642228	661.5
1583.15246	660.75
1583.662638	662.75
1584.172762	660.25
1584.682832	658.5
1585.192847	663.0
1585.702809	660.25
1586.212716	661.0
1586.722569	661.75
1587.232368	661.75
1587.742113	660.25
1588.251803	662.0
1588.76144	660.25
1589.271022	662.5
1589.78055	659.5
1590.290024	658.75
1590.799444	660.0
1591.30881	659.25
1591.818121	660.0
1592.327379	658.25
