1042.414189	704.25
1042.980685	699.75
1043.547124	701.5
1044.113505	698.25
1044.679828	696.75
1045.246093	696.5
1045.8123	694.0
1046.378449	694.75
1046.94454	693.0
1047.510573	690.75
1048.076548	688.75
1048.642465	691.0
1049.208325	690.25
1049.774126	685.5
1050.339869	686.5
1050.905555	684.75
1051.471183	690.25
1052.036752	691.25
1052.602264	689.5
1053.167718	689.75
1053.733114	685.75
1054.298452	685.75
1054.863733	684.75
1055.428955	687.75
1055.994119	685.0
1056.559226	686.0
1057.124275	686.5
1057.689266	684.25
1058.254199	683.0
1058.819074	679.5
1059.383891	684.75
1059.94865	682.0
1060.513352	680.25
1061.077996	680.25
1061.642582	682.25
1062.20711	681.75
1062.77158	682.5
1063.335992	683.75
1063.900347	680.5
1064.464643	683.25
1065.028882	679.75
1065.593063	680.75
1066.157187	686.5
1066.721252	679.25
1067.28526	687.25
1067.84921	682.25
1068.413102	679.75
1068.976936	680.0
1069.540713	679.5
1070.104431	687.75
1070.668092	681.25
1071.231696	683.75
1071.795241	680.0
1072.358729	677.25
1072.922159	677.25
1073.485531	679.0
1074.048845	680.75
1074.612102	678.25
1075.175301	681.5
1075.738442	676.5
1076.301525	681.0
1076.864551	680.75
1077.427519	679.25
1077.990429	682.25
1078.553281	680.75
1079.116076	681.5
1079.678813	678.0
1080.241492	678.75
1080.804114	678.75
1081.366678	679.75
1081.929184	681.75
1082.491633	681.0
1083.054024	681.5
1083.616357	679.75
1084.178632	679.25
1084.74085	683.0
1085.30301	677.75
1085.865113	680.0
1086.427158	674.75
1086.989145	678.75
1087.551074	678.5
1088.112946	676.5
1088.67476	679.0
1089.236517	676.25
1089.798216	678.75
1090.359857	678.25
1090.92144	682.0
1091.482966	679.0
1092.044435	680.0
1092.605845	682.0
1093.167199	678.5
1093.728494	680.0
1094.289732	676.75
1094.850912	676.75
1095.412035	686.0
1095.9731	678.5
1096.534107	680.75
1097.095057	686.25
1097.65595	677.75
1098.216784	677.25
1098.777561	676.25
1099.338281	678.0
1099.898943	678.0
1100.459547	678.25
1101.020094	680.25
1101.580584	675.25
1102.141015	678.75
1102.701389	679.75
1103.261706	680.0
1103.821965	678.75
1104.382167	675.0
1104.942311	676.5
1105.502397	679.5
1106.062426	677.25
1106.622398	678.5
1107.182312	678.5
1107.742168	681.75
1108.301967	680.25
1108.861708	674.75
1109.421392	680.0
1109.981019	675.5
1110.540587	678.25
1111.100099	681.0
1111.659553	677.25
1112.218949	680.25
1112.778288	677.25
1113.33757	680.0
1113.896794	677.25
1114.45596	677.5
1115.015069	676.0
1115.574121	678.5
1116.133115	679.0
1116.692052	677.0
1117.250931	681.0
1117.809753	678.75
1118.368517	679.25
1118.927224	681.5
1119.485873	680.25
1120.044465	677.75
1120.603	676.75
1121.161477	676.25
1121.719897	678.25
1122.278259	677.0
1122.836564	676.25
1123.394812	680.75
1123.953002	680.5
1124.511135	679.5
1125.06921	680.75
1125.627228	679.25
1126.185189	675.0
1126.743092	676.75
1127.300938	677.0
1127.858726	676.5
1128.416457	677.75
1128.974131	677.0
1129.531748	679.0
1130.089307	677.5
1130.646808	676.25
1131.204252	677.5
1131.761639	678.25
1132.318969	679.5
1132.876241	677.0
1133.433456	679.75
1133.990614	680.5
1134.547714	679.0
1135.104757	677.5
1135.661743	679.0
1136.218671	676.75
1136.775542	677.0
1137.332356	679.75
1137.889112	678.25
1138.445811	679.25
1139.002453	680.0
1139.559037	680.25
1140.115565	679.5
1140.672035	679.75
1141.228447	678.5
1141.784803	678.75
1142.341101	676.5
1142.897342	682.0
1143.453525	676.75
1144.009651	679.25
1144.565721	680.0
1145.121732	677.0
1145.677687	679.0
1146.233584	678.75
1146.789424	683.5
1147.345207	679.5
1147.900933	679.25
1148.456601	681.75
1149.012212	679.5
1149.567766	687.25
1150.123263	701.0
1150.678702	695.25
1151.234085	684.75
1151.78941	678.0
1152.344678	679.25
1152.899888	678.25
1153.455042	678.75
1154.010138	678.25
1154.565177	678.75
1155.120159	679.25
1155.675084	677.25
1156.229951	679.75
1156.784762	679.5
1157.339515	678.25
1157.894211	677.25
1158.44885	680.0
1159.003432	678.0
1159.557956	678.0
1160.112424	675.0
1160.666834	681.75
1161.221187	680.25
1161.775483	678.75
1162.329722	677.5
1162.883904	676.5
1163.438029	677.5
1163.992096	679.25
1164.546107	678.5
1165.10006	678.5
1165.653956	680.25
1166.207795	678.75
1166.761577	672.5
1167.315302	681.75
1167.86897	681.75
1168.422581	679.25
1168.976134	681.5
1169.529631	678.75
1170.08307	675.75
1170.636453	678.25
1171.189778	681.0
1171.743046	677.5
1172.296257	677.75
1172.849412	677.0
1173.402509	676.0
1173.955549	677.0
1174.508532	677.0
1175.061458	677.0
1175.614327	676.5
1176.167138	677.5
1176.719893	676.5
1177.272591	675.5
1177.825232	676.75
1178.377816	676.0
1178.930342	681.25
1179.482812	682.0
1180.035225	678.75
1180.587581	678.25
1181.139879	675.75
1181.692121	677.25
1182.244306	675.75
1182.796434	679.75
1183.348504	678.5
1183.900518	676.0
1184.452475	675.25
1185.004375	681.0
1185.556218	676.75
1186.108004	677.5
1186.659733	679.5
1187.211405	674.25
1187.76302	678.0
1188.314578	678.0
1188.866079	678.0
1189.417523	681.0
1189.96891	681.75
1190.520241	675.25
1191.071514	679.25
1191.622731	676.0
1192.17389	682.25
1192.724993	677.0
1193.276039	699.0
1193.827027	675.0
1194.377959	678.25
1194.928834	678.5
1195.479653	679.0
1196.030414	677.5
1196.581118	676.0
1197.131766	678.5
1197.682356	677.75
1198.23289	676.0
1198.783367	679.25
1199.333786	676.0
1199.88415	677.25
1200.434456	677.0
1200.984705	677.0
1201.534898	679.5
1202.085033	678.0
1202.635112	677.0
1203.185134	680.5
1203.735099	679.25
1204.285007	681.25
1204.834859	677.0
1205.384653	677.5
1205.934391	678.5
1206.484072	682.25
1207.033696	680.25
1207.583263	678.0
1208.132774	681.0
1208.682228	679.75
1209.231624	679.75
1209.780965	673.75
1210.330248	681.75
1210.879474	679.5
1211.428644	677.0
1211.977757	684.0
1212.526813	680.25
1213.075813	681.5
1213.624755	677.75
1214.173641	677.75
1214.72247	680.5
1215.271242	676.75
1215.819958	683.75
1216.368617	681.5
1216.917219	676.75
1217.465764	680.5
1218.014253	683.25
1218.562685	679.75
1219.11106	680.25
1219.659378	683.5
1220.20764	678.0
1220.755845	681.25
1221.303993	679.5
1221.852085	682.5
1222.400119	684.25
1222.948097	681.0
1223.496019	682.75
1224.043883	677.0
1224.591691	679.25
1225.139443	680.5
1225.687137	681.25
1226.234775	682.75
1226.782357	686.0
1227.329881	682.5
1227.877349	684.75
1228.42476	684.75
1228.972115	684.5
1229.519413	682.5
1230.066654	682.5
1230.613839	684.5
1231.160967	685.5
1231.708038	686.25
1232.255053	682.5
1232.802011	682.75
1233.348912	683.5
1233.895757	682.75
1234.442545	682.5
1234.989277	685.25
1235.535951	686.25
1236.08257	682.25
1236.629131	684.5
1237.175636	686.0
1237.722085	685.5
1238.268477	681.25
1238.814812	688.75
1239.361091	687.75
1239.907313	688.0
1240.453478	685.5
1240.999587	683.75
1241.54564	685.5
1242.091636	683.75
1242.637575	686.25
1243.183457	685.25
1243.729284	684.25
1244.275053	691.75
1244.820766	689.25
1245.366423	686.0
1245.912022	682.5
1246.457566	689.25
1247.003053	692.5
1247.548483	689.75
1248.093857	690.5
1248.639174	692.5
1249.184435	692.75
1249.729639	687.25
1250.274787	691.0
1250.819878	694.5
1251.364912	692.0
1251.909891	687.5
1252.454812	690.0
1252.999677	692.25
1253.544486	692.75
1254.089238	695.0
1254.633934	693.25
1255.178573	691.25
1255.723156	695.5
1256.267682	689.0
1256.812152	695.75
1257.356565	699.25
1257.900922	705.75
1258.445223	710.25
1258.989467	703.75
1259.533654	704.5
1260.077785	720.0
1260.62186	714.0
1261.165878	722.0
1261.70984	731.75
1262.253745	736.75
1262.797594	747.25
1263.341386	772.5
1263.885123	779.0
1264.428802	766.75
1264.972425	749.5
1265.515992	737.25
1266.059503	729.25
1266.602957	712.75
1267.146354	715.5
1267.689696	706.25
1268.23298	707.25
1268.776209	704.75
1269.319381	709.0
1269.862497	702.75
1270.405556	710.5
1270.948559	705.75
1271.491506	701.75
1272.034396	707.5
1272.57723	706.25
1273.120007	706.25
1273.662728	703.25
1274.205393	705.25
1274.748002	707.75
1275.290554	705.25
1275.83305	707.75
1276.375489	709.75
1276.917872	715.25
1277.460199	711.75
1278.00247	719.25
1278.544684	725.5
1279.086842	726.5
1279.628943	736.25
1280.170989	750.0
1280.712978	775.25
1281.25491	807.5
1281.796787	894.75
1282.338607	1070.5
1282.880371	1418.25
1283.422078	1894.0
1283.963729	2098.25
1284.505324	1806.5
1285.046863	1291.25
1285.588345	998.5
1286.129772	853.5
1286.671142	784.5
1287.212455	759.75
1287.753713	742.75
1288.294914	734.5
1288.836059	724.5
1289.377147	721.25
1289.91818	717.5
1290.459156	714.5
1291.000076	715.5
1291.54094	715.0
1292.081747	709.0
1292.622499	704.75
1293.163194	708.0
1293.703833	704.0
1294.244415	701.75
1294.784942	702.25
1295.325412	699.0
1295.865826	699.0
1296.406184	702.0
1296.946486	700.5
1297.486731	699.5
1298.026921	699.75
1298.567054	702.0
1299.107131	698.75
1299.647152	698.25
1300.187116	698.25
1300.727025	697.0
1301.266877	698.75
1301.806673	694.75
1302.346413	698.25
1302.886097	695.5
1303.425725	695.75
1303.965297	691.5
1304.504812	689.5
1305.044272	690.5
1305.583675	696.75
1306.123022	691.75
1306.662313	694.75
1307.201548	695.75
1307.740727	694.75
1308.279849	691.5
1308.818916	695.5
1310.435779	697.0
1310.974621	692.75
1311.513407	693.75
1312.052137	695.5
1312.590811	689.75
1313.129429	697.0
1313.667991	690.25
1314.206497	690.0
1314.744946	692.75
1315.28334	689.5
1315.821678	687.25
1316.359959	691.5
1316.898184	689.75
1317.436354	694.5
1317.974467	687.5
1318.512525	688.75
1319.050526	691.5
1319.588471	688.75
1320.12636	685.0
1320.664194	687.0
1321.201971	690.0
1321.739692	697.25
1322.277357	689.25
1322.814967	691.0
1323.35252	686.25
1323.890017	696.25
1324.427458	690.0
1324.964843	689.75
1325.502173	691.5
1326.039446	689.0
1326.576663	689.5
1327.113824	691.25
1327.65093	690.0
1328.187979	691.75
1328.724972	690.75
1329.26191	691.0
1329.798791	692.5
1330.335617	691.25
1330.872386	692.25
1331.4091	689.25
1331.945758	690.0
1332.48236	692.0
1333.018905	687.5
1333.555395	690.0
1334.091829	690.5
1334.628207	687.75
1335.164529	689.25
1335.700796	689.25
1336.237006	692.75
1336.77316	693.25
1337.309259	693.75
1337.845301	689.5
1338.381288	690.25
1338.917219	692.25
1339.453094	690.5
1339.988913	691.0
1340.524676	686.25
1341.060383	690.25
1341.596034	687.75
1342.13163	687.75
1342.66717	694.0
1343.202653	691.0
1343.738081	693.5
1344.273453	692.0
1344.80877	691.0
1345.34403	689.75
1345.879235	690.25
1346.414383	687.0
1346.949476	692.5
1347.484513	693.5
1348.019494	693.5
1348.55442	694.5
1349.089289	687.5
1349.624103	693.75
1350.158861	690.5
1350.693563	691.25
1351.228209	692.25
1351.7628	690.5
1352.297334	687.75
1352.831813	690.5
1353.366236	691.5
1353.900604	691.5
1354.434915	691.75
1354.969171	694.75
1355.503371	689.25
1356.037515	691.25
1356.571604	691.75
1357.105636	690.75
1357.639613	692.5
1358.173535	697.75
1358.7074	697.75
1359.24121	692.5
1359.774964	692.5
1360.308662	696.0
1360.842304	695.5
1361.375891	696.75
1361.909422	700.5
1362.442897	699.5
1362.976317	694.25
1363.50968	698.75
1364.042989	701.25
1364.576241	703.0
1365.109438	701.75
1365.642579	701.25
1366.175664	699.5
1366.708693	701.25
1367.241667	701.0
1367.774585	702.0
1368.307448	700.75
1368.840255	709.25
1369.373006	726.5
1369.905701	748.25
1370.438341	741.5
1370.970925	715.25
1371.503454	704.5
1372.035926	701.75
1372.568344	708.0
1373.100705	702.25
1373.633011	707.0
1374.165261	708.25
1374.697456	708.5
1375.229595	713.0
1375.761678	709.5
1376.293705	706.25
1376.825677	710.0
1377.357594	716.0
1377.889455	716.25
1378.42126	712.5
1378.953009	716.25
1379.484703	719.5
1380.016342	721.25
1380.547924	720.25
1381.079452	726.0
1381.610923	726.25
1382.142339	738.25
1382.673699	744.0
1383.205004	750.25
1383.736253	766.0
1384.267447	774.25
1384.798585	807.25
1385.329668	868.25
1385.860695	950.5
1386.391666	1184.5
1386.922582	1728.25
1387.453442	2860.5
1387.984247	3616.25
1388.514996	2657.25
1389.04569	1532.5
1389.576328	1062.0
1390.10691	887.25
1390.637437	821.25
1391.167909	786.0
1391.698325	765.0
1392.228685	751.25
1392.75899	740.5
1393.28924	736.5
1393.819434	733.5
1394.349572	726.5
1394.879655	721.5
1395.409683	726.5
1395.939655	723.75
1396.469571	717.0
1396.999432	717.75
1397.529237	709.25
1398.058987	710.5
1398.588682	713.75
1399.118321	716.75
1399.647905	711.25
1400.177433	708.25
1400.706906	715.75
1401.236323	706.75
1401.765685	709.25
1402.294991	711.0
1402.824242	711.25
1403.353437	710.25
1403.882577	714.0
1404.411662	715.0
1404.940691	726.75
1405.469665	717.75
1405.998583	727.75
1406.527446	733.75
1407.056253	747.5
1407.585005	762.5
1408.113702	790.75
1408.642343	813.0
1409.170929	850.5
1409.69946	856.0
1410.227935	816.75
1410.756354	772.25
1411.284719	750.0
1411.813028	730.25
1412.341281	720.75
1412.869479	710.0
1413.397622	705.5
1413.92571	707.75
1414.453742	701.5
1414.981718	697.5
1415.50964	712.25
1416.037506	693.0
1416.565316	692.75
1417.093072	694.5
1417.620772	698.0
1418.148416	695.25
1418.676005	689.5
1419.203539	688.5
1419.731018	692.25
1420.258441	687.25
1420.785809	696.25
1421.313122	692.25
1421.840379	687.0
1422.367582	693.25
1422.894728	696.5
1423.42182	692.5
1423.948856	689.5
1424.475837	692.5
1425.002762	692.5
1425.529633	689.25
1426.056448	687.5
1426.583207	694.75
1427.109912	690.5
1427.636561	691.0
1428.163155	683.5
1428.689694	688.0
1429.216177	688.25
1429.742605	684.75
1430.268978	686.0
1430.795296	684.75
1431.321558	685.0
1431.847765	680.75
1432.373917	687.0
1432.900014	680.0
1433.426056	683.75
1433.952042	684.5
1434.477973	681.5
1435.003849	684.5
1435.529669	684.75
1436.055435	683.75
1436.581145	681.25
1437.1068	682.75
1437.632399	681.75
1438.157944	681.75
1438.683433	683.0
1439.208868	683.5
1439.734247	682.75
1440.25957	681.75
1440.784839	679.25
1441.310053	680.75
1441.835211	678.0
1442.360314	679.25
1442.885362	680.75
1443.410355	677.5
1443.935292	679.75
1444.460175	678.5
1444.985002	681.75
1445.509774	678.5
1446.034491	681.25
1446.559153	679.0
1447.08376	681.25
1447.608312	678.0
1448.132808	679.25
1448.65725	678.75
1449.181636	680.25
1449.705967	674.75
1450.230243	680.0
1450.754464	673.75
1451.27863	676.0
1451.802741	678.0
1452.326797	680.25
1452.850797	676.75
1453.374743	675.25
1453.898633	681.5
1454.422468	681.0
1454.946249	675.25
1455.469974	674.5
1455.993644	676.75
1456.517259	677.5
1457.040819	673.75
1457.564324	675.5
1458.087773	677.25
1458.611168	672.75
1459.134508	677.75
1459.657793	675.5
1460.181022	674.5
1460.704197	674.25
1461.227316	680.25
1461.750381	675.25
1462.27339	675.5
1462.796345	675.5
1463.319244	678.0
1463.842089	678.75
1464.364878	675.5
1464.887613	675.75
1465.410292	675.5
1465.932916	671.5
1466.455486	673.75
1466.978	674.75
1467.50046	675.0
1468.022864	679.0
1468.545214	674.5
1469.067508	679.0
1469.589748	671.75
1470.111932	675.5
1470.634062	675.5
1471.156136	674.25
1471.678156	674.25
1472.20012	674.5
1472.72203	674.25
1473.243885	674.75
1473.765685	673.75
1474.28743	674.0
1474.80912	670.25
1475.330755	676.0
1475.852335	676.25
1476.37386	671.75
1476.89533	674.0
1477.416745	672.0
1477.938106	675.0
1478.459411	674.5
1478.980662	675.25
1479.501857	675.25
1480.022998	675.25
1480.544084	672.25
1481.065115	672.25
1481.586091	673.5
1482.107012	674.75
1482.627878	675.5
1483.14869	673.0
1483.669446	674.5
1484.190148	670.75
1484.710794	674.5
1485.231386	672.25
1485.751923	675.25
1486.272406	672.5
1486.792833	673.75
1487.313205	669.0
1487.833523	672.25
1488.353786	675.25
1488.873994	672.0
1489.394147	674.75
1489.914245	671.25
1490.434288	671.75
1490.954277	676.75
1491.474211	670.0
1491.99409	674.25
1492.513914	672.5
1493.033683	677.75
1493.553398	674.5
1494.073057	676.5
1494.592662	672.5
1495.112212	670.0
1495.631708	670.5
1496.151148	676.5
1496.670534	674.25
1497.189865	673.25
1497.709141	672.25
1498.228362	676.25
1498.747529	674.25
1499.266641	673.25
1499.785698	681.75
1500.3047	672.75
1500.823648	671.0
1501.34254	672.25
1501.861379	672.0
1502.380162	671.0
1502.89889	675.0
1503.417564	668.5
1503.936183	671.75
1504.454748	678.25
1504.973257	671.25
1505.491712	671.0
1506.010112	674.25
1506.528458	675.0
1507.046748	669.25
1507.564984	670.0
1508.083166	671.75
1508.601292	672.75
1509.119364	671.75
1509.637381	670.75
1510.155344	674.25
1510.673252	682.25
1511.191105	672.0
1511.708903	672.0
1512.226647	669.75
1512.744336	672.5
1513.261971	673.75
1513.77955	672.5
1514.297076	672.0
1514.814546	671.25
1515.331962	670.75
1515.849323	667.25
1516.366629	673.75
1516.883881	672.75
1517.401078	669.0
1517.918221	675.0
1518.435309	672.25
1518.952342	672.75
1519.469321	670.75
1519.986245	676.0
1520.503114	672.75
1521.019929	668.5
1521.536689	670.75
1522.053395	672.75
1522.570046	673.25
1523.086642	672.75
1523.603184	670.5
1524.119671	675.5
1524.636103	671.5
1525.152481	672.25
1525.668805	676.25
1526.185073	672.25
1526.701288	673.0
1527.217447	677.25
1527.733552	669.25
1528.249603	673.25
1528.765599	674.0
1529.28154	673.75
1529.797427	673.75
1530.313259	675.5
1530.829037	670.5
1531.34476	670.75
1531.860429	670.25
1532.376043	675.75
1532.891602	669.5
1533.407107	674.5
1533.922558	671.25
1534.437954	669.5
1534.953295	673.0
1535.468582	671.75
1535.983815	671.5
1536.498993	671.25
1537.014116	668.75
1537.529185	670.5
1538.044199	672.75
1538.559159	673.5
1539.074064	672.25
1539.588915	667.0
1540.103712	673.0
1540.618454	670.25
1541.133141	670.25
1541.647774	671.5
1542.162353	673.75
1542.676877	669.25
1543.191346	670.25
1543.705761	670.5
1544.220122	669.0
1544.734428	672.5
1545.24868	672.75
1545.762877	672.75
1546.27702	672.25
1546.791109	672.0
1547.305143	669.25
1547.819122	670.5
1548.333047	671.25
1548.846918	674.5
1549.360734	673.0
1549.874496	671.75
1550.388204	672.25
1550.901857	672.0
1551.415455	670.5
1551.929	670.25
1552.442489	670.75
1552.955925	671.25
1553.469306	673.0
1553.982632	671.5
1554.495905	668.5
1555.009123	671.25
1555.522286	673.0
1556.035395	672.0
1556.54845	674.25
1557.06145	670.0
1557.574396	673.25
1558.087288	671.25
1558.600125	674.0
1559.112908	669.5
1559.625637	673.0
1560.138311	674.0
1560.650931	669.75
1561.163497	673.0
1561.676008	672.75
1562.188465	671.5
1562.700867	669.5
1563.213216	670.0
1563.725509	672.25
1564.237749	673.25
1564.749934	670.5
1565.262065	672.25
1565.774142	672.0
1566.286164	671.25
1566.798132	671.0
1567.310046	676.5
1567.821906	674.5
1568.333711	673.0
1568.845462	666.75
1569.357158	666.25
1569.868801	670.0
1570.380389	671.25
1570.891922	671.75
1571.403402	674.25
1571.914827	672.0
1572.426198	673.25
1572.937515	671.75
1573.448777	670.75
1573.959985	674.75
1574.471139	670.5
1574.982239	671.5
1575.493285	667.75
1576.004276	670.5
1576.515213	670.75
1577.026096	669.75
1577.536924	672.25
1578.047698	670.25
1578.558419	673.25
1579.069084	667.75
1579.579696	671.0
1580.090254	671.75
1580.600757	673.5
1581.111206	670.25
1581.621601	669.5
1582.131941	670.0
1582.642228	670.75
1583.15246	668.75
1583.662638	673.5
1584.172762	668.25
1584.682832	670.0
1585.192847	669.25
1585.702809	669.0
1586.212716	672.25
1586.722569	672.25
1587.232368	669.5
1587.742113	670.75
1588.251803	669.25
1588.76144	671.25
1589.271022	669.5
1589.78055	669.25
1590.290024	666.75
1590.799444	670.75
1591.30881	673.25
1591.818121	669.5
1592.327379	670.0
