1042.414189	691.75
1042.980685	692.0
1043.547124	695.0
1044.113505	690.0
1044.679828	686.25
1045.246093	687.75
1045.8123	687.0
1046.378449	684.5
1046.94454	683.5
1047.510573	683.0
1048.076548	685.0
1048.642465	679.5
1049.208325	680.25
1049.774126	679.75
1050.339869	681.25
1050.905555	682.5
1051.471183	679.25
1052.036752	676.25
1052.602264	678.0
1053.167718	680.0
1053.733114	676.5
1054.298452	675.25
1054.863733	677.25
1055.428955	676.75
1055.994119	675.5
1056.559226	676.75
1057.124275	676.25
1057.689266	673.5
1058.254199	677.5
1058.819074	672.75
1059.383891	674.0
1059.94865	675.0
1060.513352	674.0
1061.077996	671.25
1061.642582	676.25
1062.20711	671.0
1062.77158	676.0
1063.335992	675.5
1063.900347	675.5
1064.464643	673.75
1065.028882	674.5
1065.593063	674.25
1066.157187	669.25
1066.721252	671.5
1067.28526	672.75
1067.84921	672.75
1068.413102	673.75
1068.976936	671.5
1069.540713	671.5
1070.104431	680.25
1070.668092	670.5
1071.231696	673.5
1071.795241	668.75
1072.358729	670.75
1072.922159	673.0
1073.485531	671.0
1074.048845	671.25
1074.612102	674.0
1075.175301	670.75
1075.738442	669.25
1076.301525	671.0
1076.864551	674.5
1077.427519	672.5
1077.990429	668.0
1078.553281	675.0
1079.116076	667.75
1079.678813	672.0
1080.241492	672.5
1080.804114	668.75
1081.366678	673.5
1081.929184	668.0
1082.491633	671.75
1083.054024	669.0
1083.616357	669.75
1084.178632	671.0
1084.74085	670.0
1085.30301	670.75
1085.865113	668.5
1086.427158	671.0
1086.989145	669.0
1087.551074	671.25
1088.112946	671.25
1088.67476	671.0
1090.359857	670.0
1090.92144	670.5
1091.482966	673.5
1092.044435	671.25
1092.605845	669.5
1093.167199	671.0
1093.728494	670.0
1094.289732	672.75
1094.850912	672.0
1095.412035	675.0
1095.9731	672.0
1096.534107	668.5
1097.095057	679.0
1097.65595	669.25
1098.216784	670.75
1098.777561	671.5
1099.338281	670.0
1099.898943	670.5
1100.459547	667.0
1101.020094	672.25
1101.580584	668.0
1102.141015	671.75
1102.701389	670.5
1103.261706	671.5
1103.821965	667.75
1104.382167	670.0
1104.942311	668.0
1105.502397	669.5
1106.062426	671.25
1106.622398	669.5
1107.182312	667.0
1107.742168	671.25
1108.301967	667.25
1108.861708	670.75
1109.421392	673.25
1109.981019	668.75
1110.540587	665.0
1111.100099	671.5
1111.659553	672.25
1112.218949	670.25
1112.778288	669.75
1113.33757	668.0
1113.896794	670.0
1114.45596	668.5
1115.015069	667.75
1115.574121	670.75
1116.133115	670.5
1116.692052	670.75
1117.250931	673.25
1117.809753	668.0
1118.368517	671.5
1118.927224	669.5
1119.485873	669.75
1120.044465	667.0
1120.603	670.25
1121.161477	670.5
1121.719897	670.0
1122.278259	668.75
1122.836564	672.25
1123.394812	670.25
1123.953002	668.25
1124.511135	671.5
1125.06921	672.0
1125.627228	672.0
1126.185189	668.0
1126.743092	667.5
1127.300938	667.75
1127.858726	671.0
1128.416457	670.0
1128.974131	671.5
1129.531748	668.75
1130.089307	668.75
1130.646808	666.75
1131.204252	673.75
1131.761639	667.25
1132.318969	667.5
1132.876241	672.75
1133.433456	671.0
1133.990614	668.5
1134.547714	669.5
1135.104757	669.0
1135.661743	670.25
1136.218671	668.25
1136.775542	672.0
1137.332356	667.5
1137.889112	672.5
1138.445811	669.25
1139.002453	668.5
1139.559037	670.25
1140.115565	672.5
1140.672035	669.25
1141.228447	672.0
1141.784803	671.25
1142.341101	670.25
1142.897342	670.75
1143.453525	668.25
1144.009651	669.75
1144.565721	667.5
1145.121732	669.75
1145.677687	671.25
1146.233584	670.75
1146.789424	670.25
1147.345207	671.5
1147.900933	670.75
1148.456601	670.5
1149.012212	669.0
1149.567766	674.25
1150.123263	682.0
1150.678702	685.75
1151.234085	673.5
1151.78941	669.5
1152.344678	669.25
1152.899888	667.75
1153.455042	670.0
1154.010138	670.75
1154.565177	670.75
1155.120159	667.5
1155.675084	669.25
1156.229951	667.75
1156.784762	669.0
1157.339515	671.0
1157.894211	669.0
1158.44885	669.5
1159.003432	665.75
1159.557956	670.0
1160.112424	674.25
1160.666834	669.75
1161.221187	669.5
1161.775483	668.75
1162.329722	668.0
1162.883904	668.5
1163.438029	669.75
1163.992096	670.5
1164.546107	668.0
1165.10006	670.25
1165.653956	669.0
1166.207795	667.75
1166.761577	670.25
1167.315302	669.25
1167.86897	669.25
1168.422581	668.5
1168.976134	669.5
1169.529631	667.5
1170.08307	669.75
1170.636453	669.25
1171.189778	668.0
1171.743046	669.25
1172.296257	670.0
1172.849412	671.25
1173.402509	668.25
1173.955549	668.0
1174.508532	670.0
1175.061458	668.75
1175.614327	667.75
1176.167138	670.25
1176.719893	670.25
1177.272591	669.0
1177.825232	672.25
1178.377816	667.0
1178.930342	665.5
1179.482812	669.25
1180.035225	669.25
1180.587581	670.25
1181.139879	666.5
1181.692121	668.5
1182.244306	671.25
1182.796434	668.0
1183.348504	670.5
1183.900518	666.75
1184.452475	667.75
1185.004375	668.25
1185.556218	670.25
1186.108004	666.75
1186.659733	670.0
1187.211405	669.25
1187.76302	671.5
1188.314578	671.25
1188.866079	671.5
1189.417523	670.5
1189.96891	671.0
1190.520241	668.0
1191.071514	669.75
1191.622731	668.75
1192.17389	668.5
1192.724993	670.25
1193.276039	691.75
1193.827027	667.5
1194.377959	670.5
1194.928834	672.0
1195.479653	671.25
1196.030414	670.5
1196.581118	668.75
1197.131766	669.0
1197.682356	671.5
1198.23289	667.0
1198.783367	667.75
1199.333786	669.75
1199.88415	671.25
1200.434456	669.75
1200.984705	670.5
1201.534898	669.0
1202.085033	668.0
1202.635112	668.25
1203.185134	668.25
1203.735099	669.75
1204.285007	666.75
1204.834859	671.5
1205.384653	668.25
1205.934391	673.75
1206.484072	669.5
1207.033696	672.75
1207.583263	669.5
1208.132774	669.0
1208.682228	672.5
1209.231624	671.25
1209.780965	669.75
1210.330248	670.75
1210.879474	670.25
1211.428644	671.25
1211.977757	672.0
1212.526813	674.0
1213.075813	669.75
1213.624755	668.25
1214.173641	671.5
1214.72247	669.0
1215.271242	672.5
1215.819958	669.75
1216.368617	670.0
1216.917219	670.25
1217.465764	667.75
1218.014253	670.25
1218.562685	670.75
1219.11106	671.25
1219.659378	672.75
1220.20764	673.75
1220.755845	668.75
1221.303993	669.0
1221.852085	669.25
1222.400119	670.0
1222.948097	670.0
1223.496019	671.5
1224.043883	675.0
1224.591691	670.5
1225.139443	674.25
1225.687137	671.25
1226.234775	673.5
1226.782357	675.75
1227.329881	675.25
1227.877349	670.0
1228.42476	670.5
1228.972115	673.5
1229.519413	673.75
1230.066654	673.0
1230.613839	676.0
1231.160967	670.0
1231.708038	669.75
1232.255053	673.5
1232.802011	674.75
1233.348912	672.75
1233.895757	672.5
1234.442545	672.0
1234.989277	669.75
1235.535951	673.5
1236.08257	672.75
1236.629131	673.5
1237.175636	673.75
1237.722085	676.25
1238.268477	673.5
1238.814812	673.75
1239.361091	676.0
1239.907313	674.0
1240.453478	674.75
1240.999587	672.5
1241.54564	674.5
1242.091636	673.75
1242.637575	673.0
1243.183457	675.75
1243.729284	675.5
1244.275053	675.75
1244.820766	675.0
1245.366423	674.75
1245.912022	672.5
1246.457566	677.5
1247.003053	677.0
1247.548483	675.25
1248.093857	678.0
1248.639174	674.75
1249.184435	677.5
1249.729639	680.0
1250.274787	677.0
1250.819878	679.75
1251.364912	676.5
1251.909891	676.0
1252.454812	678.0
1252.999677	678.25
1253.544486	677.25
1254.089238	678.75
1254.633934	675.75
1255.178573	677.25
1255.723156	680.75
1256.267682	680.25
1256.812152	681.75
1257.356565	682.0
1257.900922	686.5
1258.445223	684.0
1258.989467	685.25
1259.533654	685.5
1260.077785	702.0
1260.62186	689.75
1261.165878	690.75
1261.70984	695.5
1262.253745	704.0
1262.797594	715.75
1263.341386	727.5
1263.885123	724.0
1264.428802	726.0
1264.972425	710.25
1265.515992	703.75
1266.059503	696.75
1266.602957	694.5
1267.146354	687.25
1267.689696	687.0
1268.23298	686.5
1268.776209	685.5
1269.319381	686.5
1269.862497	685.0
1270.405556	685.0
1270.948559	688.25
1271.491506	686.75
1272.034396	688.0
1272.57723	682.75
1273.120007	686.5
1273.662728	690.25
1274.205393	688.75
1274.748002	688.5
1275.290554	687.0
1275.83305	687.0
1276.375489	689.25
1276.917872	690.25
1277.460199	690.75
1278.00247	693.75
1278.544684	691.25
1279.086842	700.0
1279.628943	702.25
1280.170989	707.0
1280.712978	723.0
1281.25491	751.25
1281.796787	800.0
1282.338607	908.0
1282.880371	1107.25
1283.422078	1382.5
1283.963729	1482.5
1284.505324	1308.0
1285.046863	1035.5
1285.588345	861.0
1286.129772	779.25
1286.671142	733.0
1287.212455	722.75
1287.753713	703.5
1288.294914	699.25
1288.836059	702.0
1289.377147	692.5
1289.91818	693.75
1290.459156	691.5
1291.000076	689.5
1291.54094	687.25
1292.081747	689.5
1292.622499	685.5
1293.163194	685.0
1293.703833	686.0
1294.244415	683.0
1294.784942	687.5
1295.325412	681.25
1295.865826	680.25
1296.406184	680.75
1296.946486	679.75
1297.486731	683.75
1298.026921	681.25
1298.567054	679.75
1299.107131	678.5
1299.647152	685.5
1300.187116	681.25
1300.727025	678.75
1301.266877	680.5
1301.806673	681.75
1302.346413	679.0
1302.886097	676.75
1303.425725	682.25
1303.965297	680.0
1304.504812	680.25
1305.044272	682.0
1305.583675	679.25
1306.123022	679.25
1306.662313	677.75
1307.201548	681.25
1307.740727	678.0
1308.279849	678.25
1308.818916	679.25
1309.357926	675.5
1309.896881	676.75
1310.435779	677.0
1310.974621	679.5
1311.513407	676.75
1312.052137	675.0
1312.590811	676.75
1313.129429	676.0
1313.667991	676.75
1314.206497	673.75
1314.744946	680.0
1315.28334	679.5
1315.821678	676.0
1316.359959	676.0
1316.898184	677.25
1317.436354	680.0
1317.974467	676.75
1318.512525	677.0
1319.050526	679.25
1319.588471	673.75
1320.12636	675.75
1320.664194	676.75
1321.201971	678.5
1321.739692	676.75
1322.277357	676.5
1322.814967	675.75
1323.35252	675.75
1323.890017	680.75
1324.427458	675.0
1324.964843	676.75
1325.502173	675.0
1326.039446	677.75
1326.576663	678.5
1327.113824	676.5
1327.65093	675.25
1328.187979	674.75
1328.724972	676.75
1329.26191	675.75
1329.798791	674.0
1330.335617	673.25
1330.872386	674.25
1331.4091	676.25
1331.945758	677.0
1332.48236	676.5
1333.018905	673.25
1333.555395	675.75
1334.091829	676.5
1334.628207	676.75
1335.164529	678.0
1335.700796	678.5
1336.237006	679.0
1336.77316	677.75
1337.309259	675.75
1337.845301	678.5
1338.381288	675.0
1338.917219	676.5
1339.453094	677.0
1339.988913	677.75
1340.524676	675.0
1341.060383	676.0
1341.596034	676.0
1342.13163	673.75
1342.66717	679.5
1343.202653	674.25
1343.738081	676.75
1344.273453	678.5
1344.80877	677.5
1345.34403	675.25
1345.879235	678.25
1346.414383	674.0
1346.949476	676.25
1347.484513	678.75
1348.019494	677.75
1348.55442	678.25
1349.089289	680.5
1349.624103	677.25
1350.158861	677.75
1350.693563	677.25
1351.228209	677.75
1351.7628	681.25
1352.297334	678.75
1352.831813	674.5
1353.366236	679.75
1353.900604	678.5
1354.434915	678.25
1354.969171	678.25
1355.503371	679.75
1356.037515	678.5
1356.571604	675.25
1357.105636	678.25
1357.639613	677.0
1358.173535	681.25
1358.7074	681.0
1359.24121	678.75
1359.774964	678.5
1360.308662	678.75
1360.842304	681.0
1361.375891	680.75
1361.909422	681.25
1362.442897	680.25
1362.976317	681.25
1363.50968	682.25
1364.042989	679.75
1364.576241	683.75
1365.109438	682.5
1365.642579	682.75
1366.175664	682.25
1366.708693	680.5
1367.241667	685.0
1367.774585	681.5
1368.307448	680.5
1368.840255	686.5
1369.373006	698.5
1369.905701	715.25
1370.438341	702.75
1370.970925	697.75
1371.503454	687.25
1372.035926	689.0
1372.568344	686.5
1373.100705	683.5
1373.633011	688.75
1374.165261	684.0
1374.697456	682.75
1375.229595	688.25
1375.761678	685.75
1376.293705	688.75
1376.825677	686.75
1377.357594	689.0
1377.889455	689.5
1378.42126	692.75
1378.953009	693.5
1379.484703	697.0
1380.016342	693.5
1380.547924	693.75
1381.079452	698.0
1381.610923	699.0
1382.142339	703.0
1382.673699	705.0
1383.205004	707.0
1383.736253	719.0
1384.267447	730.5
1384.798585	749.0
1385.329668	776.75
1385.860695	835.0
1386.391666	955.25
1386.922582	1279.75
1387.453442	1960.25
1387.984247	2390.0
1388.514996	1825.0
1389.04569	1167.75
1389.576328	894.5
1390.10691	798.75
1390.637437	749.5
1391.167909	727.5
1391.698325	719.0
1392.228685	712.25
1392.75899	708.0
1393.28924	700.25
1393.819434	703.0
1394.349572	699.25
1394.879655	697.75
1395.409683	697.25
1395.939655	692.5
1396.469571	691.25
1396.999432	691.0
1397.529237	695.0
1398.058987	689.5
1398.588682	689.0
1399.118321	691.0
1399.647905	690.75
1400.177433	692.25
1400.706906	687.25
1401.236323	690.75
1401.765685	687.5
1402.294991	688.0
1402.824242	688.25
1403.353437	691.75
1403.882577	686.75
1404.411662	693.25
1404.940691	693.0
1405.469665	693.5
1405.998583	697.0
1406.527446	702.5
1407.056253	713.0
1407.585005	716.75
1408.113702	730.0
1408.642343	747.5
1409.170929	763.75
1409.69946	764.75
1410.227935	751.75
1410.756354	724.75
1411.284719	707.0
1411.813028	699.5
1412.341281	692.5
1412.869479	692.5
1413.397622	688.5
1413.92571	681.75
1414.453742	681.25
1414.981718	681.75
1415.50964	693.25
1416.037506	678.75
1416.565316	681.75
1417.093072	678.75
1417.620772	678.0
1418.148416	675.5
1418.676005	677.75
1419.203539	679.75
1419.731018	679.0
1420.258441	678.0
1420.785809	678.0
1421.313122	679.5
1421.840379	678.75
1422.367582	676.25
1422.894728	677.75
1423.42182	677.75
1423.948856	680.5
1424.475837	676.0
1425.002762	679.25
1425.529633	674.5
1426.056448	678.5
1426.583207	676.25
1427.109912	677.0
1427.636561	675.0
1428.163155	673.25
1428.689694	674.75
1429.216177	676.0
1429.742605	674.0
1430.268978	673.5
1430.795296	674.25
1431.321558	674.5
1431.847765	675.25
1432.373917	674.25
1432.900014	670.0
1433.426056	671.0
1433.952042	671.0
1434.477973	669.75
1435.003849	674.75
1435.529669	673.0
1436.055435	672.5
1436.581145	674.0
1437.1068	672.0
1437.632399	671.25
1438.157944	670.25
1438.683433	668.0
1439.208868	672.75
1439.734247	671.0
1440.25957	670.0
1440.784839	664.75
1441.310053	672.75
1441.835211	668.0
1442.360314	670.25
1442.885362	671.75
1443.410355	671.5
1443.935292	671.75
1444.460175	670.25
1444.985002	669.0
1445.509774	670.25
1446.034491	667.5
1446.559153	669.75
1447.08376	670.5
1447.608312	669.25
1448.132808	669.5
1448.65725	670.25
1449.181636	671.0
1449.705967	667.75
1450.230243	669.5
1450.754464	669.5
1451.27863	666.5
1451.802741	667.75
1452.326797	672.25
1452.850797	669.75
1453.374743	664.5
1453.898633	669.0
1454.422468	669.5
1454.946249	669.25
1455.469974	667.25
1455.993644	666.5
1456.517259	666.0
1457.040819	667.5
1457.564324	667.75
1458.087773	666.0
1458.611168	669.5
1459.134508	667.25
1459.657793	671.25
1460.181022	666.5
1460.704197	669.25
1461.227316	670.5
1461.750381	667.75
1462.27339	669.25
1462.796345	669.75
1463.319244	666.75
1463.842089	671.25
1464.364878	664.75
1464.887613	666.5
1465.410292	670.0
1465.932916	666.5
1466.455486	667.25
1466.978	666.75
1467.50046	666.5
1468.022864	667.25
1468.545214	665.5
1469.067508	669.75
1469.589748	669.0
1470.111932	666.75
1470.634062	667.0
1471.156136	667.25
1471.678156	666.75
1472.20012	671.0
1472.72203	669.0
1473.243885	665.0
1473.765685	667.25
1474.28743	669.5
1474.80912	668.0
1475.330755	669.25
1475.852335	666.0
1476.37386	668.0
1476.89533	666.0
1477.416745	667.0
1477.938106	665.25
1478.459411	667.75
1478.980662	665.75
1479.501857	670.25
1480.022998	666.0
1480.544084	668.0
1481.065115	665.25
1481.586091	665.75
1482.107012	668.0
1482.627878	665.0
1483.14869	667.0
1483.669446	667.25
1484.190148	667.5
1484.710794	667.5
1485.231386	668.0
1485.751923	666.25
1486.272406	664.5
1486.792833	663.5
1487.313205	670.75
1487.833523	663.75
1488.353786	666.0
1488.873994	666.5
1489.394147	667.25
1489.914245	666.0
1490.434288	668.5
1490.954277	667.25
1491.474211	666.5
1491.99409	671.5
1492.513914	668.75
1493.033683	664.75
1493.553398	665.5
1494.073057	667.75
1494.592662	663.75
1495.112212	666.0
1495.631708	667.75
1496.151148	665.75
1496.670534	664.25
1497.189865	665.5
1497.709141	666.25
1498.228362	667.25
1498.747529	667.5
1499.266641	667.0
1499.785698	674.25
1500.3047	667.25
1500.823648	668.25
1501.34254	666.5
1501.861379	667.0
1502.380162	664.5
1502.89889	665.75
1503.417564	663.25
1503.936183	665.75
1504.454748	666.75
1504.973257	668.0
1505.491712	667.0
1506.010112	664.5
1506.528458	666.5
1507.046748	668.0
1507.564984	665.0
1508.083166	664.5
1508.601292	663.5
1509.119364	665.0
1509.637381	667.0
1510.155344	664.25
1510.673252	676.0
1511.191105	666.0
1511.708903	666.0
1512.226647	664.75
1512.744336	667.5
1513.261971	664.75
1513.77955	663.75
1514.297076	667.5
1514.814546	661.0
1515.331962	667.5
1515.849323	667.0
1516.366629	666.25
1516.883881	663.0
1517.401078	667.25
1517.918221	666.25
1518.435309	665.75
1518.952342	667.0
1519.469321	665.5
1519.986245	670.25
1520.503114	665.25
1521.019929	664.25
1521.536689	664.25
1522.053395	664.75
1522.570046	668.5
1523.086642	665.25
1523.603184	663.75
1524.119671	665.0
1524.636103	665.25
1525.152481	668.75
1525.668805	666.75
1526.185073	668.25
1526.701288	667.75
1527.217447	664.75
1527.733552	664.25
1528.249603	667.0
1528.765599	666.75
1529.28154	666.5
1529.797427	668.75
1530.313259	665.5
1530.829037	664.75
1531.34476	664.75
1531.860429	662.0
1532.376043	664.75
1532.891602	664.75
1533.407107	664.5
1533.922558	665.25
1534.437954	663.75
1534.953295	667.25
1535.468582	667.0
1535.983815	665.5
1536.498993	662.5
1537.014116	666.5
1537.529185	667.0
1538.044199	665.25
1538.559159	666.75
1539.074064	663.0
1539.588915	667.25
1540.103712	668.0
1540.618454	666.0
1541.133141	666.25
1541.647774	667.75
1542.162353	665.0
1542.676877	662.25
1543.191346	667.25
1543.705761	664.75
1544.220122	665.25
1544.734428	664.0
1545.24868	669.75
1545.762877	666.25
1546.27702	663.0
1546.791109	666.0
1547.305143	664.75
1547.819122	666.5
1548.333047	665.25
1548.846918	662.25
1549.360734	666.0
1549.874496	666.25
1550.388204	666.5
1550.901857	665.75
1551.415455	664.75
1551.929	664.5
1552.442489	665.75
1552.955925	661.0
1553.469306	665.5
1553.982632	663.0
1554.495905	664.5
1555.009123	665.75
1555.522286	665.5
1556.035395	664.25
1556.54845	662.25
1557.06145	664.0
1557.574396	672.5
1558.087288	664.75
1558.600125	664.75
1559.112908	666.75
1559.625637	666.25
1560.138311	664.25
1560.650931	663.5
1561.163497	667.5
1561.676008	666.25
1562.188465	665.5
1562.700867	665.25
1563.213216	663.0
1563.725509	667.0
1564.237749	664.25
1564.749934	664.25
1565.262065	667.0
1565.774142	664.0
1566.286164	665.25
1566.798132	663.75
1567.310046	666.5
1567.821906	665.75
1568.333711	667.25
1568.845462	665.75
1569.357158	664.0
1569.868801	665.75
1570.380389	665.5
1570.891922	664.25
1571.403402	664.0
1571.914827	664.75
1572.426198	665.25
1572.937515	667.0
1573.448777	663.5
1573.959985	663.25
1574.471139	664.75
1574.982239	664.0
1575.493285	666.25
1576.004276	665.75
1576.515213	667.75
1577.026096	664.5
1577.536924	661.25
1578.047698	664.5
1578.558419	665.75
1579.069084	664.5
1579.579696	665.0
1580.090254	664.0
1580.600757	665.25
1581.111206	664.0
1581.621601	665.75
1582.131941	662.25
1582.642228	664.5
1583.15246	666.25
1583.662638	666.25
1584.172762	664.25
1584.682832	664.5
1585.192847	663.5
1585.702809	663.0
1586.212716	665.75
1586.722569	665.75
1587.232368	665.5
1587.742113	665.25
1588.251803	663.0
1588.76144	663.5
1589.271022	665.25
1589.78055	662.75
1590.290024	664.75
1590.799444	663.0
1591.30881	665.0
1591.818121	663.75
1592.327379	665.0
