1042.414189	730.75
1042.980685	733.25
1043.547124	725.5
1044.113505	726.5
1044.679828	725.5
1045.246093	722.25
1045.8123	718.0
1046.378449	715.0
1046.94454	717.0
1047.510573	714.25
1048.076548	711.75
1048.642465	712.25
1049.208325	713.75
1049.774126	713.5
1050.339869	712.75
1050.905555	706.0
1051.471183	704.25
1052.036752	704.75
1052.602264	709.5
1053.167718	706.5
1053.733114	703.0
1054.298452	702.25
1054.863733	704.5
1055.428955	706.5
1055.994119	701.0
1056.559226	701.5
1057.124275	701.75
1057.689266	699.0
1058.254199	705.0
1058.819074	699.0
1059.383891	703.0
1059.94865	701.5
1060.513352	703.5
1061.077996	708.0
1061.642582	697.5
1062.20711	700.0
1062.77158	702.25
1063.335992	702.25
1063.900347	699.0
1064.464643	701.5
1065.028882	707.5
1065.593063	701.5
1066.157187	708.0
1066.721252	703.0
1067.28526	706.25
1067.84921	695.75
1068.413102	704.0
1068.976936	704.0
1069.540713	705.75
1070.104431	717.0
1070.668092	703.75
1071.231696	699.75
1071.795241	703.25
1072.358729	705.75
1072.922159	700.25
1073.485531	704.75
1074.048845	704.5
1074.612102	707.5
1075.175301	707.5
1075.738442	712.25
1076.301525	707.75
1076.864551	708.25
1077.427519	708.5
1077.990429	709.75
1078.553281	713.5
1079.116076	718.0
1079.678813	709.25
1080.241492	707.75
1080.804114	708.5
1081.366678	714.25
1081.929184	716.0
1082.491633	718.0
1083.054024	720.0
1083.616357	718.0
1084.178632	722.0
1084.74085	720.0
1085.30301	719.5
1085.865113	725.25
1086.427158	725.5
1086.989145	724.5
1087.551074	730.25
1088.112946	727.75
1088.67476	729.5
1089.236517	728.0
1089.798216	728.75
1090.359857	732.25
1090.92144	725.0
1091.482966	730.25
1092.044435	731.0
1092.605845	729.0
1093.167199	729.75
1093.728494	726.75
1094.289732	732.0
1094.850912	720.0
1095.412035	739.25
1095.9731	720.5
1096.534107	723.0
1097.095057	726.25
1097.65595	719.25
1098.216784	712.25
1098.777561	717.0
1099.338281	709.75
1099.898943	713.5
1100.459547	710.75
1101.020094	707.75
1101.580584	704.5
1102.141015	712.75
1102.701389	698.25
1103.261706	702.25
1103.821965	708.5
1104.382167	702.25
1104.942311	705.5
1105.502397	707.25
1106.062426	707.75
1106.622398	703.75
1107.182312	702.75
1107.742168	700.25
1108.301967	699.25
1108.861708	702.5
1109.421392	701.75
1109.981019	698.0
1110.540587	696.5
1111.100099	703.5
1111.659553	699.5
1112.218949	698.25
1112.778288	700.25
1113.33757	705.25
1113.896794	699.75
1114.45596	698.75
1115.015069	698.5
1115.574121	703.25
1116.133115	700.25
1116.692052	695.75
1117.250931	697.75
1117.809753	699.75
1118.368517	696.0
1118.927224	697.75
1119.485873	697.0
1120.044465	698.75
1120.603	702.5
1121.161477	693.0
1121.719897	697.25
1122.278259	696.75
1122.836564	698.5
1123.394812	696.5
1123.953002	695.25
1124.511135	693.25
1125.06921	696.75
1125.627228	697.0
1126.185189	695.0
1126.743092	699.25
1127.300938	693.5
1127.858726	695.5
1128.416457	691.5
1128.974131	692.25
1129.531748	691.0
1130.089307	692.75
1130.646808	692.75
1131.204252	695.5
1131.761639	694.75
1132.318969	695.75
1132.876241	691.25
1133.433456	692.75
1133.990614	696.5
1134.547714	694.25
1135.104757	693.0
1135.661743	689.75
1136.218671	690.25
1136.775542	694.0
1137.332356	692.25
1137.889112	696.25
1138.445811	695.5
1139.002453	694.0
1139.559037	692.75
1140.115565	693.0
1140.672035	698.25
1141.228447	689.25
1141.784803	694.0
1142.341101	692.25
1142.897342	691.5
1143.453525	694.25
1144.009651	692.75
1144.565721	694.0
1145.121732	693.5
1145.677687	699.25
1146.233584	692.75
1146.789424	693.25
1147.345207	692.5
1147.900933	692.25
1148.456601	692.25
1149.012212	689.0
1149.567766	693.25
1150.123263	694.25
1150.678702	691.5
1151.234085	689.25
1151.78941	696.5
1152.344678	694.0
1152.899888	691.5
1153.455042	694.0
1154.010138	688.5
1154.565177	690.25
1155.120159	695.75
1155.675084	692.5
1156.229951	692.75
1156.784762	694.25
1157.339515	692.0
1157.894211	690.25
1158.44885	692.5
1159.003432	691.0
1159.557956	695.0
1160.112424	692.25
1160.666834	690.25
1161.221187	695.0
1161.775483	699.25
1162.329722	695.75
1162.883904	693.25
1163.438029	695.25
1163.992096	696.75
1164.546107	694.5
1165.10006	692.75
1165.653956	698.25
1166.207795	693.5
1166.761577	686.5
1167.315302	694.5
1167.86897	694.0
1168.422581	692.75
1168.976134	692.75
1169.529631	695.25
1170.08307	698.75
1170.636453	693.75
1171.189778	696.0
1171.743046	694.25
1172.296257	690.25
1172.849412	694.0
1173.402509	692.5
1173.955549	696.75
1174.508532	695.5
1175.061458	693.25
1175.614327	696.75
1176.167138	692.0
1176.719893	696.25
1177.272591	694.25
1177.825232	694.5
1178.377816	692.75
1178.930342	693.25
1179.482812	694.25
1180.035225	697.0
1180.587581	697.25
1181.139879	692.0
1181.692121	692.25
1182.244306	696.75
1182.796434	698.75
1183.348504	694.25
1183.900518	697.5
1184.452475	697.0
1185.004375	696.0
1185.556218	695.0
1186.108004	701.0
1186.659733	695.25
1187.211405	692.5
1187.76302	696.75
1188.314578	698.5
1188.866079	696.0
1189.417523	697.5
1189.96891	698.5
1190.520241	697.5
1191.071514	699.25
1191.622731	696.5
1192.17389	701.75
1192.724993	695.25
1193.276039	718.25
1193.827027	694.75
1194.377959	699.25
1194.928834	697.25
1195.479653	696.0
1196.030414	696.75
1196.581118	697.25
1197.131766	697.25
1197.682356	701.5
1198.23289	696.75
1198.783367	696.0
1199.333786	697.0
1199.88415	696.25
1200.434456	696.75
1200.984705	695.75
1201.534898	696.25
1202.085033	694.75
1202.635112	697.25
1203.185134	700.25
1203.735099	696.5
1204.285007	697.25
1204.834859	697.75
1205.384653	700.5
1205.934391	701.5
1206.484072	699.25
1207.033696	697.5
1207.583263	695.5
1208.132774	695.0
1208.682228	699.75
1209.231624	699.25
1209.780965	702.75
1210.330248	699.5
1210.879474	695.0
1211.428644	696.25
1211.977757	697.5
1212.526813	699.25
1213.075813	698.75
1213.624755	700.25
1214.173641	697.75
1214.72247	703.0
1215.271242	700.0
1215.819958	701.75
1216.368617	700.25
1216.917219	700.75
1217.465764	700.5
1218.014253	696.25
1218.562685	700.0
1219.11106	703.5
1219.659378	702.0
1220.20764	697.75
1220.755845	696.5
1221.303993	698.0
1222.948097	724.75
1223.496019	701.75
1224.043883	703.75
1224.591691	699.0
1225.139443	702.75
1225.687137	698.0
1226.234775	700.75
1226.782357	698.5
1227.329881	695.75
1227.877349	701.5
1228.42476	700.25
1228.972115	699.25
1229.519413	701.0
1230.066654	699.25
1230.613839	702.75
1231.160967	700.75
1231.708038	699.0
1232.255053	698.5
1232.802011	699.0
1233.348912	707.0
1233.895757	704.25
1234.442545	698.5
1234.989277	699.75
1235.535951	696.5
1236.08257	704.5
1236.629131	704.0
1237.175636	701.25
1237.722085	702.5
1238.268477	701.5
1238.814812	696.75
1239.361091	702.0
1239.907313	703.5
1240.453478	703.5
1240.999587	701.25
1241.54564	700.0
1242.091636	705.25
1242.637575	701.0
1243.183457	699.25
1243.729284	701.75
1244.275053	700.5
1244.820766	709.5
1245.366423	706.25
1245.912022	698.5
1246.457566	700.0
1247.003053	701.75
1247.548483	704.25
1248.093857	701.5
1248.639174	704.5
1249.184435	705.0
1249.729639	704.0
1250.274787	702.5
1250.819878	705.75
1251.364912	709.25
1251.909891	701.5
1252.454812	709.75
1252.999677	706.75
1253.544486	707.75
1254.089238	702.75
1254.633934	707.5
1255.178573	703.5
1255.723156	703.5
1256.267682	705.0
1256.812152	709.5
1257.356565	707.25
1257.900922	707.5
1258.445223	705.25
1258.989467	705.5
1259.533654	708.5
1260.077785	727.5
1260.62186	711.5
1261.165878	705.75
1261.70984	706.75
1262.253745	709.25
1262.797594	706.75
1263.341386	706.75
1263.885123	708.5
1264.428802	712.25
1264.972425	712.0
1265.515992	717.0
1266.059503	730.5
1266.602957	722.0
1267.146354	715.0
1267.689696	713.5
1268.23298	712.25
1268.776209	710.25
1269.319381	707.75
1269.862497	711.75
1270.405556	711.0
1270.948559	710.25
1271.491506	710.5
1272.034396	712.5
1272.57723	713.5
1273.120007	707.5
1273.662728	713.75
1274.205393	708.5
1274.748002	714.75
1275.290554	713.5
1275.83305	714.25
1276.375489	716.75
1276.917872	717.75
1277.460199	711.75
1278.00247	715.5
1278.544684	720.25
1279.086842	716.75
1279.628943	716.75
1280.170989	714.5
1280.712978	713.0
1281.25491	713.75
1281.796787	717.0
1282.338607	716.75
1282.880371	720.25
1283.422078	718.0
1283.963729	722.75
1284.505324	718.0
1285.046863	723.5
1285.588345	748.75
1286.129772	877.25
1286.671142	876.25
1287.212455	748.75
1287.753713	722.25
1288.294914	719.25
1288.836059	727.0
1289.377147	719.25
1289.91818	722.75
1290.459156	722.0
1291.000076	718.75
1291.54094	718.0
1292.081747	719.25
1292.622499	724.25
1293.163194	723.5
1293.703833	725.75
1294.244415	723.25
1294.784942	729.25
1295.325412	724.25
1295.865826	721.25
1296.406184	728.0
1296.946486	731.0
1297.486731	732.75
1298.026921	727.25
1298.567054	732.75
1299.107131	723.25
1299.647152	731.75
1300.187116	727.75
1300.727025	733.0
1301.266877	725.75
1301.806673	730.0
1302.346413	736.0
1302.886097	731.25
1303.425725	732.25
1303.965297	732.0
1304.504812	735.0
1305.044272	732.0
1305.583675	731.0
1306.123022	735.25
1306.662313	734.75
1307.201548	739.25
1307.740727	731.25
1308.279849	735.0
1308.818916	736.5
1309.357926	738.75
1309.896881	737.5
1310.435779	735.5
1310.974621	740.0
1311.513407	732.25
1312.052137	737.5
1312.590811	736.5
1313.129429	737.5
1313.667991	735.5
1314.206497	740.0
1314.744946	738.5
1315.28334	741.75
1315.821678	737.0
1316.359959	736.5
1316.898184	741.25
1317.436354	738.25
1317.974467	737.0
1318.512525	737.75
1319.050526	740.0
1319.588471	741.0
1320.12636	742.25
1320.664194	740.5
1321.201971	738.5
1321.739692	739.75
1322.277357	738.25
1322.814967	736.75
1323.35252	746.75
1323.890017	738.5
1324.427458	734.25
1324.964843	736.75
1325.502173	737.75
1326.039446	743.75
1326.576663	736.0
1327.113824	733.25
1327.65093	739.5
1328.187979	730.5
1328.724972	736.0
1329.26191	731.0
1329.798791	728.25
1330.335617	733.5
1330.872386	736.5
1331.4091	729.25
1331.945758	731.25
1332.48236	728.5
1333.018905	731.0
1333.555395	732.0
1334.091829	724.25
1334.628207	730.25
1335.164529	728.0
1335.700796	725.75
1336.237006	729.25
1336.77316	730.75
1337.309259	720.5
1337.845301	729.5
1338.381288	725.75
1338.917219	728.0
1339.453094	727.0
1339.988913	722.5
1340.524676	723.5
1341.060383	724.0
1341.596034	719.5
1342.13163	717.0
1342.66717	718.75
1343.202653	722.25
1343.738081	723.75
1344.273453	716.5
1344.80877	719.75
1345.34403	719.0
1345.879235	718.25
1346.414383	716.0
1346.949476	721.5
1347.484513	718.0
1348.019494	718.25
1348.55442	715.75
1349.089289	712.0
1349.624103	714.5
1350.158861	710.0
1350.693563	716.75
1351.228209	714.5
1351.7628	715.75
1352.297334	718.0
1352.831813	715.25
1353.366236	712.25
1353.900604	715.5
1354.434915	713.5
1354.969171	711.75
1355.503371	714.25
1356.037515	711.5
1356.571604	711.0
1357.105636	706.5
1357.639613	710.5
1358.173535	707.0
1358.7074	706.5
1359.24121	705.25
1359.774964	704.0
1360.308662	708.5
1360.842304	705.75
1361.375891	704.0
1361.909422	707.5
1362.442897	707.75
1362.976317	702.5
1363.50968	705.25
1364.042989	706.25
1364.576241	704.5
1365.109438	702.5
1365.642579	705.25
1366.175664	706.0
1366.708693	702.25
1367.241667	708.0
1367.774585	702.25
1368.307448	703.0
1368.840255	704.25
1369.373006	702.25
1369.905701	704.25
1370.438341	702.0
1370.970925	705.0
1371.503454	702.75
1372.035926	707.25
1372.568344	705.25
1373.100705	702.25
1373.633011	696.75
1374.165261	703.75
1374.697456	696.0
1375.229595	699.75
1375.761678	696.0
1376.293705	702.0
1376.825677	702.25
1377.357594	699.5
1377.889455	700.0
1378.42126	698.0
1378.953009	696.5
1379.484703	700.5
1380.016342	700.0
1380.547924	701.75
1381.079452	697.75
1381.610923	700.75
1382.142339	702.5
1382.673699	696.25
1383.205004	697.25
1383.736253	701.0
1384.267447	700.0
1384.798585	702.25
1385.329668	701.75
1385.860695	695.0
1386.391666	702.75
1386.922582	699.0
1387.453442	700.25
1387.984247	699.25
1388.514996	722.0
1389.04569	890.75
1389.576328	1002.75
1390.10691	755.0
1390.637437	707.25
1391.167909	699.0
1391.698325	695.5
1392.228685	699.0
1392.75899	696.0
1393.28924	693.75
1393.819434	698.0
1394.349572	697.0
1394.879655	693.0
1395.409683	697.25
1395.939655	697.75
1396.469571	698.25
1396.999432	694.0
1397.529237	695.25
1398.058987	696.5
1398.588682	696.25
1399.118321	689.0
1399.647905	694.0
1400.177433	696.0
1400.706906	695.25
1401.236323	694.5
1401.765685	694.0
1402.294991	695.5
1402.824242	696.75
1403.353437	695.25
1403.882577	694.5
1404.411662	697.25
1404.940691	691.75
1405.469665	694.25
1405.998583	693.25
1406.527446	692.5
1407.056253	690.5
1407.585005	690.5
1408.113702	696.0
1408.642343	690.25
1409.170929	692.5
1409.69946	695.75
1410.227935	706.25
1410.756354	730.5
1411.284719	702.5
1411.813028	694.0
1412.341281	690.5
1412.869479	691.5
1413.397622	695.75
1413.92571	691.5
1414.453742	693.5
1414.981718	695.75
1415.50964	705.0
1416.037506	695.25
1416.565316	693.25
1417.093072	694.0
1417.620772	693.0
1418.148416	694.0
1418.676005	691.5
1419.203539	694.5
1419.731018	691.75
1420.258441	689.25
1420.785809	693.25
1421.313122	691.0
1421.840379	693.5
1422.367582	691.25
1422.894728	691.25
1423.42182	688.75
1423.948856	694.25
1424.475837	692.25
1425.002762	692.0
1425.529633	690.0
1426.056448	694.5
1426.583207	692.25
1427.109912	695.25
1427.636561	693.0
1428.163155	690.0
1428.689694	687.25
1429.216177	691.75
1429.742605	690.75
1430.268978	696.25
1430.795296	690.5
1431.321558	691.5
1431.847765	694.25
1432.373917	692.75
1432.900014	686.5
1433.426056	691.25
1433.952042	690.25
1434.477973	688.0
1435.003849	690.75
1435.529669	694.25
1436.055435	691.25
1436.581145	688.0
1437.1068	690.0
1437.632399	690.25
1438.157944	692.25
1438.683433	692.5
1439.208868	691.75
1439.734247	688.25
1440.25957	690.75
1440.784839	686.5
1441.310053	689.5
1441.835211	690.5
1442.360314	691.0
1442.885362	688.5
1443.410355	692.0
1443.935292	689.25
1444.460175	691.75
1444.985002	690.75
1445.509774	692.5
1446.034491	688.5
1446.559153	691.0
1447.08376	693.25
1447.608312	697.25
1448.132808	696.0
1448.65725	690.0
1449.181636	696.75
1449.705967	689.5
1450.230243	691.75
1450.754464	691.25
1451.27863	687.5
1451.802741	688.75
1452.326797	691.25
1452.850797	690.0
1453.374743	690.5
1453.898633	690.75
1454.422468	690.75
1454.946249	692.0
1455.469974	692.75
1455.993644	696.5
1456.517259	691.5
1457.040819	685.75
1457.564324	689.5
1458.087773	694.25
1458.611168	690.75
1459.134508	689.75
1459.657793	689.5
1460.181022	690.75
1460.704197	693.25
1461.227316	689.25
1461.750381	690.0
1462.27339	688.0
1462.796345	694.5
1463.319244	691.25
1463.842089	682.5
1464.364878	693.75
1464.887613	692.75
1465.410292	691.0
1465.932916	692.25
1466.455486	687.25
1466.978	689.5
1467.50046	690.0
1468.022864	689.25
1468.545214	688.75
1469.067508	689.75
1469.589748	687.25
1470.111932	690.0
1470.634062	687.25
1471.156136	688.5
1471.678156	689.0
1472.20012	692.25
1472.72203	689.0
1473.243885	688.75
1473.765685	689.0
1474.28743	686.5
1474.80912	688.0
1475.330755	692.0
1475.852335	686.25
1476.37386	686.75
1476.89533	687.25
1477.416745	689.5
1477.938106	689.75
1478.459411	687.5
1478.980662	686.25
1479.501857	688.25
1480.022998	690.0
1480.544084	687.25
1481.065115	687.25
1481.586091	685.0
1482.107012	688.0
1482.627878	688.5
1483.14869	685.75
1483.669446	688.0
1484.190148	692.5
1484.710794	691.5
1485.231386	688.75
1485.751923	689.25
1486.272406	685.0
1486.792833	683.5
1487.313205	687.0
1487.833523	688.5
1488.353786	691.75
1488.873994	686.25
1489.394147	690.5
1489.914245	685.0
1490.434288	689.0
1490.954277	683.75
1491.474211	685.0
1491.99409	687.25
1492.513914	686.0
1493.033683	686.75
1493.553398	686.25
1494.073057	689.5
1494.592662	686.75
1495.112212	687.25
1495.631708	683.5
1496.151148	688.75
1496.670534	690.5
1497.189865	687.75
1497.709141	689.0
1498.228362	687.0
1498.747529	685.75
1499.266641	686.75
1499.785698	693.0
1500.3047	684.75
1500.823648	691.0
1501.34254	686.25
1501.861379	688.25
1502.380162	687.25
1502.89889	686.25
1503.417564	684.75
1503.936183	695.5
1504.454748	689.5
1504.973257	689.25
1505.491712	689.75
1506.010112	684.75
1506.528458	684.25
1507.046748	686.5
1507.564984	689.25
1508.083166	687.75
1508.601292	687.25
1509.119364	684.5
1509.637381	690.0
1510.155344	684.25
1510.673252	695.5
1511.191105	685.75
1511.708903	690.75
1512.226647	687.5
1512.744336	685.25
1513.261971	688.75
1513.77955	686.75
1514.297076	683.5
1514.814546	685.0
1515.331962	689.25
1515.849323	683.5
1516.366629	689.75
1516.883881	685.75
1517.401078	688.5
1517.918221	687.0
1518.435309	692.75
1518.952342	687.5
1519.469321	687.0
1519.986245	685.0
1520.503114	686.25
1521.019929	687.0
1521.536689	681.0
1522.053395	684.75
1522.570046	685.5
1523.086642	686.5
1523.603184	684.25
1524.119671	685.25
1524.636103	683.75
1525.152481	684.5
1525.668805	687.0
1526.185073	691.0
1526.701288	688.0
1527.217447	686.5
1527.733552	687.25
1528.249603	682.5
1528.765599	690.25
1529.28154	686.5
1529.797427	686.5
1530.313259	685.0
1530.829037	686.25
1531.34476	684.75
1531.860429	689.25
1532.376043	684.5
1532.891602	686.5
1533.407107	684.0
1533.922558	688.5
1534.437954	684.0
1534.953295	684.25
1535.468582	685.5
1535.983815	685.5
1536.498993	689.75
1537.014116	683.25
1537.529185	689.0
1538.044199	686.5
1538.559159	688.0
1539.074064	685.75
1539.588915	683.0
1540.103712	684.0
1540.618454	684.25
1541.133141	692.5
1541.647774	684.5
1542.162353	685.0
1542.676877	684.5
1543.191346	688.75
1543.705761	683.5
1544.220122	683.5
1544.734428	688.5
1545.24868	687.5
1545.762877	682.25
1546.27702	686.0
1546.791109	686.5
1547.305143	690.75
1547.819122	686.25
1548.333047	687.0
1548.846918	683.5
1549.360734	690.0
1549.874496	681.0
1550.388204	684.0
1550.901857	686.25
1551.415455	680.75
1551.929	683.0
1552.442489	687.25
1552.955925	685.5
1553.469306	685.0
1553.982632	688.0
1554.495905	687.5
1555.009123	686.75
1555.522286	686.5
1556.035395	684.0
1556.54845	684.75
1557.06145	685.25
1557.574396	686.0
1558.087288	683.0
1558.600125	687.0
1559.112908	684.0
1559.625637	686.75
1560.138311	688.25
1560.650931	684.0
1561.163497	684.75
1561.676008	684.25
1562.188465	686.0
1562.700867	686.75
1563.213216	685.25
1563.725509	686.25
1564.237749	683.25
1564.749934	687.25
1565.262065	686.25
1565.774142	686.75
1566.286164	681.75
1566.798132	684.25
1567.310046	688.25
1567.821906	681.5
1568.333711	684.5
1568.845462	686.75
1569.357158	687.75
1569.868801	684.25
1570.380389	687.25
1570.891922	689.0
1571.403402	682.5
1571.914827	691.25
1572.426198	683.5
1572.937515	682.25
1573.448777	689.0
1573.959985	687.75
1574.471139	687.75
1574.982239	683.25
1575.493285	684.75
1576.004276	685.5
1576.515213	684.75
1577.026096	688.75
1577.536924	689.0
1578.047698	685.0
1578.558419	687.0
1579.069084	685.5
1579.579696	688.75
1580.090254	683.25
1580.600757	685.25
1581.111206	684.0
1581.621601	684.25
1582.131941	689.25
1582.642228	684.0
1583.15246	685.0
1583.662638	688.0
1584.172762	683.0
1584.682832	687.0
1585.192847	685.5
1585.702809	683.25
1586.212716	684.0
1586.722569	686.5
1587.232368	682.5
1587.742113	685.5
1588.251803	682.75
1588.76144	678.75
1589.271022	684.0
1589.78055	685.0
1590.290024	684.0
1590.799444	685.25
1591.30881	685.0
1591.818121	684.0
1592.327379	680.0
