1042.414189	711.4000244
1042.980685	709.2000122
1043.547124	708.2000122
1044.113505	707.5999756
1045.246093	704.0
1045.8123	705.5999756
1046.378449	699.2000122
1046.94454	702.4000244
1047.510573	702.4000244
1048.076548	698.7999878
1048.642465	695.7999878
1049.208325	694.7999878
1049.774126	692.0
1050.339869	693.4000244
1050.905555	698.4000244
1051.471183	693.4000244
1052.036752	693.4000244
1052.602264	688.7999878
1053.167718	691.0
1053.733114	693.5999756
1054.298452	692.0
1054.863733	694.5999756
1055.428955	689.7999878
1055.994119	692.5999756
1056.559226	691.5999756
1057.124275	689.0
1057.689266	690.2000122
1058.254199	688.0
1058.819074	690.5999756
1059.383891	687.0
1059.94865	690.7999878
1060.513352	689.0
1061.077996	689.4000244
1061.642582	689.7999878
1062.20711	690.4000244
1062.77158	688.7999878
1063.335992	688.0
1063.900347	688.7999878
1064.464643	686.0
1065.028882	688.4000244
1065.593063	690.7999878
1066.157187	688.4000244
1066.721252	688.5999756
1067.28526	686.5999756
1067.84921	688.5999756
1068.413102	688.2000122
1068.976936	688.7999878
1069.540713	685.4000244
1070.104431	695.4000244
1070.668092	687.0
1071.231696	687.0
1071.795241	687.2000122
1072.358729	689.5999756
1072.922159	689.4000244
1073.485531	686.5999756
1074.048845	688.4000244
1074.612102	688.0
1075.175301	688.2000122
1075.738442	688.7999878
1076.301525	687.5999756
1076.864551	689.7999878
1077.427519	687.5999756
1077.990429	687.7999878
1078.553281	689.7999878
1079.116076	684.0
1079.678813	688.4000244
1080.241492	687.7999878
1080.804114	688.0
1081.366678	688.7999878
1081.929184	689.0
1082.491633	691.5999756
1083.054024	689.5999756
1083.616357	689.0
1084.178632	687.4000244
1084.74085	690.0
1085.30301	690.5999756
1085.865113	689.0
1086.427158	690.5999756
1086.989145	686.5999756
1087.551074	689.0
1088.112946	688.5999756
1088.67476	689.4000244
1089.236517	685.7999878
1089.798216	688.2000122
1090.359857	691.7999878
1090.92144	691.0
1091.482966	689.7999878
1092.044435	685.5999756
1092.605845	690.2000122
1093.167199	689.7999878
1093.728494	689.4000244
1094.289732	689.5999756
1094.850912	692.2000122
1095.412035	699.4000244
1095.9731	693.2000122
1096.534107	689.4000244
1097.095057	695.2000122
1097.65595	687.4000244
1098.216784	688.0
1098.777561	686.2000122
1099.338281	688.0
1099.898943	686.5999756
1100.459547	682.5999756
1101.020094	686.0
1101.580584	686.7999878
1102.141015	689.2000122
1102.701389	686.5999756
1103.261706	688.0
1103.821965	688.4000244
1104.382167	686.7999878
1104.942311	685.7999878
1105.502397	686.7999878
1106.062426	685.5999756
1106.622398	686.7999878
1107.182312	685.0
1107.742168	686.7999878
1108.301967	686.4000244
1108.861708	688.4000244
1109.421392	688.4000244
1109.981019	687.5999756
1110.540587	685.7999878
1111.100099	688.4000244
1111.659553	686.7999878
1112.218949	691.0
1112.778288	689.0
1113.33757	684.2000122
1113.896794	686.4000244
1114.45596	682.5999756
1115.015069	685.5999756
1115.574121	684.5999756
1116.133115	687.0
1116.692052	686.7999878
1117.250931	686.4000244
1117.809753	685.4000244
1118.368517	688.7999878
1118.927224	682.2000122
1119.485873	686.2000122
1120.044465	686.7999878
1120.603	686.4000244
1121.161477	685.5999756
1121.719897	689.5999756
1122.278259	687.0
1122.836564	686.4000244
1123.394812	688.2000122
1123.953002	686.7999878
1124.511135	687.5999756
1125.06921	690.2000122
1125.627228	688.0
1126.185189	685.5999756
1126.743092	688.0
1127.300938	686.0
1127.858726	686.0
1128.416457	687.5999756
1128.974131	687.4000244
1129.531748	682.2000122
1130.089307	687.2000122
1130.646808	686.2000122
1131.204252	683.7999878
1131.761639	684.5999756
1132.318969	687.7999878
1132.876241	684.4000244
1133.433456	686.7999878
1133.990614	686.5999756
1134.547714	688.2000122
1135.104757	685.4000244
1135.661743	685.5999756
1136.218671	686.7999878
1136.775542	687.2000122
1137.332356	685.0
1137.889112	687.7999878
1138.445811	683.4000244
1139.002453	685.5999756
1139.559037	685.4000244
1140.115565	689.2000122
1140.672035	688.0
1141.228447	683.0
1141.784803	688.4000244
1142.341101	686.0
1142.897342	685.5999756
1143.453525	687.7999878
1144.009651	686.5999756
1144.565721	685.7999878
1145.121732	686.2000122
1145.677687	683.5999756
1146.233584	684.7999878
1146.789424	687.7999878
1147.345207	689.7999878
1147.900933	686.4000244
1148.456601	687.7999878
1149.012212	689.0
1149.567766	685.4000244
1150.123263	684.5999756
1150.678702	683.7999878
1151.234085	688.0
1151.78941	687.4000244
1152.344678	686.4000244
1152.899888	687.0
1153.455042	685.2000122
1154.010138	685.5999756
1154.565177	687.2000122
1155.120159	690.5999756
1155.675084	687.7999878
1156.229951	686.0
1156.784762	686.7999878
1157.339515	687.2000122
1157.894211	689.7999878
1158.44885	687.5999756
1159.003432	692.4000244
1159.557956	840.5999756
1160.112424	689.4000244
1160.666834	689.2000122
1161.221187	690.5999756
1161.775483	687.0
1162.329722	686.0
1162.883904	687.4000244
1163.438029	686.0
1163.992096	685.5999756
1164.546107	689.2000122
1165.10006	687.7999878
1165.653956	686.2000122
1166.207795	688.4000244
1166.761577	687.5999756
1167.315302	688.7999878
1167.86897	689.5999756
1168.422581	685.7999878
1168.976134	681.4000244
1169.529631	686.4000244
1170.08307	683.7999878
1170.636453	686.4000244
1171.189778	685.4000244
1171.743046	685.2000122
1172.296257	687.5999756
1172.849412	686.7999878
1173.402509	690.4000244
1173.955549	683.0
1174.508532	684.7999878
1175.061458	688.5999756
1175.614327	684.5999756
1176.167138	686.0
1176.719893	689.2000122
1177.272591	688.4000244
1177.825232	685.2000122
1178.377816	685.7999878
1178.930342	687.2000122
1179.482812	683.7999878
1180.035225	684.4000244
1180.587581	689.2000122
1181.139879	686.4000244
1181.692121	688.7999878
1182.244306	686.2000122
1182.796434	687.2000122
1183.348504	688.2000122
1183.900518	688.0
1184.452475	682.5999756
1185.004375	687.4000244
1185.556218	687.4000244
1186.108004	686.2000122
1186.659733	687.2000122
1187.211405	687.7999878
1187.76302	687.4000244
1188.314578	686.4000244
1188.866079	688.7999878
1189.417523	687.4000244
1189.96891	687.7999878
1190.520241	690.2000122
1191.071514	688.2000122
1191.622731	687.5999756
1192.17389	686.7999878
1192.724993	685.5999756
1193.276039	705.7999878
1193.827027	686.4000244
1194.377959	686.2000122
1194.928834	685.0
1195.479653	688.0
1196.030414	685.5999756
1196.581118	691.2000122
1197.131766	687.0
1197.682356	690.0
1198.23289	691.2000122
1198.783367	684.7999878
1199.333786	690.4000244
1199.88415	689.2000122
1200.434456	688.4000244
1200.984705	688.2000122
1201.534898	686.5999756
1202.085033	690.2000122
1202.635112	690.4000244
1203.185134	687.0
1203.735099	688.7999878
1204.285007	688.0
1204.834859	690.0
1205.384653	689.4000244
1205.934391	690.4000244
1206.484072	688.5999756
1207.033696	690.5999756
1207.583263	689.2000122
1208.132774	690.0
1208.682228	689.0
1209.231624	688.0
1209.780965	686.7999878
1210.330248	689.0
1210.879474	691.2000122
1211.428644	688.7999878
1211.977757	685.7999878
1212.526813	687.2000122
1213.075813	686.0
1213.624755	686.4000244
1214.173641	684.5999756
1214.72247	686.5999756
1215.271242	685.2000122
1215.819958	683.7999878
1216.368617	685.2000122
1216.917219	690.4000244
1217.465764	687.5999756
1218.014253	688.2000122
1218.562685	689.0
1219.11106	692.5999756
1219.659378	689.0
1220.20764	690.4000244
1220.755845	688.0
1221.303993	686.0
1221.852085	687.4000244
1222.400119	690.4000244
1222.948097	688.4000244
1223.496019	688.5999756
1224.043883	691.0
1224.591691	688.4000244
1225.139443	691.2000122
1225.687137	689.5999756
1226.234775	693.4000244
1226.782357	690.2000122
1227.329881	691.5999756
1227.877349	688.5999756
1228.42476	688.7999878
1228.972115	690.0
1229.519413	690.4000244
1230.066654	687.7999878
1230.613839	690.2000122
1231.160967	686.0
1231.708038	691.5999756
1232.255053	688.5999756
1232.802011	690.7999878
1233.348912	686.7999878
1233.895757	688.0
1234.442545	688.4000244
1234.989277	689.7999878
1235.535951	687.2000122
1236.08257	691.5999756
1236.629131	694.7999878
1237.175636	690.5999756
1237.722085	687.5999756
1238.268477	686.7999878
1238.814812	689.7999878
1239.361091	689.0
1239.907313	693.2000122
1240.453478	689.7999878
1240.999587	690.2000122
1241.54564	689.4000244
1242.091636	688.2000122
1242.637575	694.4000244
1243.183457	689.4000244
1243.729284	691.0
1244.275053	691.0
1244.820766	688.0
1245.366423	692.4000244
1245.912022	691.2000122
1246.457566	695.0
1247.003053	693.2000122
1247.548483	689.5999756
1248.093857	693.2000122
1248.639174	694.4000244
1249.184435	691.0
1249.729639	689.0
1250.274787	691.2000122
1250.819878	693.0
1251.364912	693.4000244
1251.909891	695.5999756
1252.454812	692.7999878
1252.999677	693.2000122
1253.544486	696.2000122
1254.089238	691.4000244
1254.633934	693.4000244
1255.178573	697.7999878
1255.723156	693.7999878
1256.267682	691.5999756
1256.812152	694.5999756
1257.356565	698.0
1257.900922	701.7999878
1258.445223	700.2000122
1258.989467	698.4000244
1259.533654	700.7999878
1260.077785	713.5999756
1260.62186	707.4000244
1261.165878	708.0
1261.70984	714.7999878
1262.253745	718.0
1262.797594	728.0
1263.341386	721.4000244
1263.885123	711.7999878
1264.428802	708.4000244
1264.972425	707.0
1265.515992	703.7999878
1266.059503	704.5999756
1266.602957	702.4000244
1267.146354	697.7999878
1267.689696	699.4000244
1268.23298	701.7999878
1268.776209	699.0
1269.319381	700.4000244
1269.862497	700.2000122
1270.405556	702.0
1270.948559	698.5999756
1271.491506	698.7999878
1272.034396	698.0
1272.57723	697.7999878
1273.120007	698.5999756
1273.662728	700.2000122
1274.205393	698.7999878
1274.748002	699.0
1275.290554	698.4000244
1275.83305	703.7999878
1276.375489	701.5999756
1276.917872	706.5999756
1277.460199	705.2000122
1278.00247	705.4000244
1278.544684	712.2000122
1279.086842	716.2000122
1279.628943	722.7999878
1280.170989	743.0
1280.712978	770.7999878
1281.25491	828.7999878
1281.796787	959.4000244
1282.338607	1167.400024
1282.880371	1249.599976
1283.422078	1100.400024
1283.963729	937.4000244
1284.505324	817.4000244
1285.046863	765.0
1285.588345	744.4000244
1286.129772	724.4000244
1286.671142	722.5999756
1287.212455	714.7999878
1287.753713	707.4000244
1288.294914	710.5999756
1288.836059	707.2000122
1289.377147	705.7999878
1289.91818	703.2000122
1290.459156	701.4000244
1291.000076	697.0
1291.54094	700.5999756
1292.081747	704.0
1292.622499	702.5999756
1293.163194	700.4000244
1293.703833	696.5999756
1294.244415	696.0
1294.784942	698.0
1295.325412	699.7999878
1295.865826	698.0
1296.406184	693.7999878
1296.946486	697.7999878
1297.486731	699.0
1298.026921	699.7999878
1298.567054	697.7999878
1299.107131	695.0
1299.647152	696.5999756
1300.187116	698.5999756
1300.727025	698.5999756
1301.266877	696.5999756
1301.806673	698.4000244
1302.346413	694.2000122
1302.886097	695.0
1303.425725	695.4000244
1303.965297	696.4000244
1304.504812	696.4000244
1305.044272	697.7999878
1305.583675	695.4000244
1306.123022	695.4000244
1306.662313	692.2000122
1307.201548	692.4000244
1307.740727	695.2000122
1308.279849	694.7999878
1308.818916	696.4000244
1309.357926	695.7999878
1309.896881	695.7999878
1310.435779	691.2000122
1310.974621	694.2000122
1311.513407	693.2000122
1312.052137	694.2000122
1312.590811	693.0
1313.129429	695.5999756
1313.667991	692.2000122
1314.206497	696.0
1314.744946	694.0
1315.28334	691.5999756
1315.821678	690.4000244
1316.359959	693.0
1316.898184	694.4000244
1317.436354	689.5999756
1317.974467	693.7999878
1318.512525	694.0
1319.050526	691.7999878
1319.588471	694.5999756
1320.12636	693.2000122
1320.664194	691.5999756
1321.201971	693.0
1321.739692	695.7999878
1322.277357	688.2000122
1322.814967	692.4000244
1323.35252	691.4000244
1323.890017	696.4000244
1324.427458	692.4000244
1324.964843	688.2000122
1325.502173	694.4000244
1326.039446	695.2000122
1326.576663	693.2000122
1327.113824	692.7999878
1327.65093	693.7999878
1328.187979	692.7999878
1328.724972	693.4000244
1329.26191	692.2000122
1329.798791	693.7999878
1330.335617	692.0
1330.872386	695.0
1331.4091	694.4000244
1331.945758	694.5999756
1332.48236	689.4000244
1333.018905	692.4000244
1333.555395	693.0
1334.091829	693.0
1334.628207	693.4000244
1335.164529	693.5999756
1335.700796	692.2000122
1336.237006	694.7999878
1336.77316	692.2000122
1337.309259	694.0
1337.845301	691.2000122
1338.381288	691.0
1338.917219	696.7999878
1339.453094	694.7999878
1339.988913	691.5999756
1340.524676	693.2000122
1341.060383	691.5999756
1341.596034	696.2000122
1342.13163	694.7999878
1342.66717	686.0
1343.202653	692.5999756
1343.738081	693.0
1344.273453	692.7999878
1344.80877	692.7999878
1345.34403	695.2000122
1345.879235	697.2000122
1346.414383	691.7999878
1346.949476	691.7999878
1347.484513	694.4000244
1348.019494	693.5999756
1348.55442	693.4000244
1349.089289	698.0
1349.624103	695.2000122
1350.158861	691.4000244
1350.693563	689.0
1351.228209	691.5999756
1351.7628	695.2000122
1352.297334	693.7999878
1352.831813	695.2000122
1353.366236	691.4000244
1353.900604	700.7999878
1354.434915	696.0
1354.969171	690.5999756
1355.503371	693.5999756
1356.037515	693.0
1356.571604	694.2000122
1357.105636	694.0
1357.639613	692.4000244
1358.173535	696.0
1358.7074	693.0
1359.24121	695.5999756
1359.774964	699.2000122
1360.308662	694.4000244
1360.842304	696.0
1361.375891	694.2000122
1361.909422	693.5999756
1362.442897	698.0
1362.976317	694.2000122
1363.50968	694.4000244
1364.042989	698.4000244
1364.576241	696.0
1365.109438	696.0
1365.642579	698.0
1366.175664	697.7999878
1366.708693	694.2000122
1367.241667	697.4000244
1367.774585	694.5999756
1368.307448	703.7999878
1368.840255	703.7999878
1369.373006	711.2000122
1369.905701	715.4000244
1370.438341	701.5999756
1370.970925	701.0
1371.503454	699.2000122
1372.035926	696.5999756
1372.568344	698.5999756
1373.100705	700.5999756
1373.633011	700.4000244
1374.165261	698.7999878
1374.697456	703.2000122
1375.229595	699.4000244
1375.761678	700.2000122
1376.293705	700.0
1376.825677	704.4000244
1377.357594	703.7999878
1377.889455	703.5999756
1378.42126	706.4000244
1378.953009	706.0
1379.484703	709.0
1380.016342	707.5999756
1380.547924	707.5999756
1381.079452	711.2000122
1381.610923	711.2000122
1382.142339	717.2000122
1382.673699	717.0
1383.205004	725.2000122
1383.736253	737.5999756
1384.267447	754.7999878
1384.798585	773.4000244
1385.329668	820.2000122
1385.860695	928.5999756
1386.391666	1148.800049
1386.922582	1610.599976
1387.453442	1829.800049
1387.984247	1435.599976
1388.514996	1047.599976
1389.04569	870.2000122
1389.576328	799.2000122
1390.10691	755.2000122
1390.637437	732.2000122
1391.167909	730.2000122
1391.698325	722.7999878
1392.228685	716.2000122
1392.75899	714.4000244
1393.28924	710.7999878
1393.819434	714.2000122
1394.349572	711.7999878
1394.879655	708.5999756
1395.409683	705.7999878
1395.939655	705.2000122
1396.469571	705.4000244
1396.999432	701.4000244
1397.529237	702.4000244
1398.058987	703.7999878
1398.588682	701.2000122
1399.118321	704.4000244
1399.647905	699.5999756
1400.177433	702.2000122
1400.706906	702.5999756
1401.236323	700.2000122
1401.765685	703.0
1402.294991	702.0
1402.824242	706.2000122
1403.353437	705.2000122
1403.882577	708.7999878
1404.411662	710.7999878
1404.940691	706.7999878
1405.469665	711.4000244
1405.998583	708.0
1406.527446	712.4000244
1407.056253	721.2000122
1407.585005	730.2000122
1408.113702	737.2000122
1408.642343	738.4000244
1409.170929	740.7999878
1409.69946	735.7999878
1410.227935	726.4000244
1410.756354	714.2000122
1411.284719	707.4000244
1411.813028	704.5999756
1412.341281	706.0
1412.869479	701.2000122
1413.397622	701.5999756
1413.92571	700.0
1414.453742	701.7999878
1414.981718	695.2000122
1415.50964	705.4000244
1416.037506	699.4000244
1416.565316	694.7999878
1417.093072	696.4000244
1417.620772	693.5999756
1418.148416	695.0
1418.676005	692.2000122
1419.203539	691.5999756
1419.731018	689.4000244
1420.258441	692.7999878
1420.785809	693.7999878
1421.313122	696.7999878
1421.840379	694.7999878
1422.367582	693.0
1422.894728	691.2000122
1423.42182	693.4000244
1423.948856	694.0
1424.475837	693.2000122
1425.002762	698.5999756
1425.529633	691.2000122
1426.056448	695.0
1426.583207	694.7999878
1427.109912	686.7999878
1427.636561	696.4000244
1428.163155	691.7999878
1428.689694	689.5999756
1429.216177	694.4000244
1429.742605	691.7999878
1430.268978	693.2000122
1430.795296	689.7999878
1431.321558	692.7999878
1431.847765	694.4000244
1432.373917	690.5999756
1432.900014	690.5999756
1433.426056	690.7999878
1433.952042	691.4000244
1434.477973	690.5999756
1435.003849	691.0
1435.529669	690.4000244
1436.055435	692.5999756
1436.581145	688.0
1437.1068	691.4000244
1437.632399	691.5999756
1438.157944	688.0
1438.683433	692.7999878
1439.208868	691.2000122
1439.734247	692.0
1440.25957	686.2000122
1440.784839	690.7999878
1441.310053	692.4000244
1441.835211	690.7999878
1442.360314	689.2000122
1442.885362	688.4000244
1443.410355	687.0
1443.935292	691.0
1444.460175	687.7999878
1444.985002	692.5999756
1445.509774	692.0
1446.034491	693.0
1446.559153	691.0
1447.08376	695.7999878
1447.608312	688.4000244
1448.132808	693.4000244
1448.65725	690.0
1449.181636	690.4000244
1449.705967	690.5999756
1450.230243	690.0
1450.754464	691.0
1451.27863	688.0
1451.802741	687.0
1452.326797	688.0
1452.850797	689.2000122
1453.374743	688.5999756
1453.898633	688.0
1454.422468	687.7999878
1454.946249	689.0
1455.469974	690.4000244
1455.993644	687.5999756
1456.517259	689.4000244
1457.040819	687.7999878
1457.564324	694.2000122
1458.087773	689.7999878
1458.611168	690.2000122
1459.134508	691.4000244
1459.657793	688.7999878
1460.181022	692.0
1460.704197	688.7999878
1461.227316	687.7999878
1461.750381	688.2000122
1462.27339	691.5999756
1462.796345	704.5999756
1463.319244	700.2000122
1463.842089	691.2000122
1464.364878	689.5999756
1464.887613	691.2000122
1465.410292	690.0
1465.932916	689.5999756
1466.455486	685.5999756
1466.978	687.5999756
1467.50046	688.2000122
1468.022864	687.4000244
1468.545214	687.0
1469.067508	689.7999878
1469.589748	685.7999878
1470.111932	689.2000122
1470.634062	691.0
1471.156136	691.7999878
1471.678156	687.4000244
1472.20012	689.7999878
1472.72203	690.0
1473.243885	688.5999756
1473.765685	687.2000122
1474.28743	688.7999878
1474.80912	684.4000244
1475.330755	686.5999756
1475.852335	687.0
1476.37386	688.4000244
1476.89533	685.5999756
1477.416745	691.4000244
1477.938106	686.0
1478.459411	687.7999878
1478.980662	689.5999756
1479.501857	688.0
1480.022998	688.2000122
1480.544084	688.4000244
1481.065115	689.5999756
1481.586091	686.7999878
1482.107012	688.5999756
1482.627878	687.2000122
1483.14869	689.7999878
1483.669446	689.2000122
1484.190148	686.2000122
1484.710794	687.4000244
1485.231386	688.4000244
1485.751923	685.0
1486.272406	689.0
1486.792833	685.4000244
1487.313205	692.0
1487.833523	689.7999878
1488.353786	687.2000122
1488.873994	684.2000122
1489.394147	688.7999878
1489.914245	687.7999878
1490.434288	686.7999878
1490.954277	688.5999756
1491.474211	687.5999756
1491.99409	689.0
1492.513914	685.4000244
1493.033683	687.5999756
1493.553398	691.2000122
1494.073057	691.7999878
1494.592662	686.7999878
1495.112212	692.2000122
1495.631708	690.2000122
1496.151148	689.5999756
1496.670534	689.2000122
1497.189865	689.2000122
1497.709141	687.4000244
1498.228362	690.2000122
1498.747529	686.5999756
1499.266641	686.0
1499.785698	692.4000244
1500.3047	689.4000244
1500.823648	689.4000244
1501.34254	689.0
1501.861379	688.2000122
1502.380162	688.5999756
1502.89889	687.2000122
1503.417564	687.4000244
1503.936183	685.7999878
1504.454748	689.7999878
1504.973257	685.2000122
1505.491712	688.5999756
1506.010112	686.4000244
1506.528458	687.4000244
1507.046748	685.7999878
1507.564984	686.7999878
1508.083166	691.2000122
1508.601292	686.4000244
1509.119364	685.7999878
1509.637381	691.0
1510.155344	689.4000244
1510.673252	693.5999756
1511.191105	685.5999756
1511.708903	687.0
1512.226647	686.4000244
1512.744336	687.4000244
1513.261971	685.5999756
1513.77955	689.4000244
1514.297076	690.2000122
1514.814546	689.7999878
1515.331962	689.2000122
1515.849323	685.7999878
1516.366629	690.5999756
1516.883881	686.7999878
1517.401078	687.4000244
1517.918221	687.7999878
1518.435309	687.4000244
1518.952342	687.2000122
1519.469321	690.0
1519.986245	686.7999878
1520.503114	686.0
1521.019929	685.5999756
1521.536689	687.2000122
1522.053395	688.4000244
1522.570046	687.7999878
1523.086642	685.7999878
1523.603184	685.2000122
1524.119671	686.7999878
1524.636103	691.2000122
1525.152481	684.7999878
1525.668805	695.4000244
1526.185073	695.7999878
1526.701288	689.0
1527.217447	688.2000122
1527.733552	686.4000244
1528.249603	693.4000244
1528.765599	688.0
1529.28154	686.4000244
1529.797427	687.4000244
1530.313259	687.2000122
1530.829037	688.0
1531.34476	690.7999878
1531.860429	689.5999756
1532.376043	689.2000122
1532.891602	686.4000244
1533.407107	690.2000122
1533.922558	688.0
1534.437954	688.5999756
1534.953295	689.5999756
1535.468582	689.0
1535.983815	687.4000244
1536.498993	685.2000122
1537.014116	691.4000244
1537.529185	690.5999756
1538.044199	686.4000244
1538.559159	685.5999756
1539.074064	689.2000122
1539.588915	689.7999878
1540.103712	692.4000244
1540.618454	689.7999878
1541.133141	689.4000244
1541.647774	692.4000244
1542.162353	689.0
1542.676877	686.2000122
1543.191346	687.5999756
1543.705761	687.2000122
1544.220122	690.0
1544.734428	689.5999756
1545.24868	691.5999756
1545.762877	686.0
1546.27702	688.5999756
1546.791109	687.7999878
1547.305143	689.4000244
1547.819122	685.2000122
1548.333047	686.5999756
1548.846918	688.5999756
1549.360734	690.5999756
1549.874496	689.5999756
1550.388204	685.5999756
1550.901857	687.4000244
1551.415455	689.2000122
1551.929	688.0
1552.442489	688.7999878
1552.955925	686.5999756
1553.469306	688.2000122
1553.982632	690.5999756
1554.495905	687.2000122
1555.009123	688.0
1555.522286	687.0
1556.035395	689.4000244
1556.54845	689.2000122
1557.06145	690.7999878
1557.574396	691.7999878
1558.087288	688.5999756
1558.600125	687.5999756
1559.112908	691.0
1559.625637	688.4000244
1560.138311	688.4000244
1560.650931	688.2000122
1561.163497	683.7999878
1561.676008	688.0
1562.188465	687.4000244
1562.700867	690.5999756
1563.213216	690.5999756
1563.725509	688.7999878
1564.237749	688.5999756
1564.749934	691.4000244
1565.262065	692.4000244
1565.774142	688.0
1566.286164	693.2000122
1566.798132	688.7999878
1567.310046	689.7999878
1567.821906	692.4000244
1568.333711	688.5999756
1568.845462	688.2000122
1569.357158	688.0
1569.868801	687.0
1570.380389	690.7999878
1570.891922	686.5999756
1571.403402	687.5999756
1571.914827	690.4000244
1572.426198	687.0
1572.937515	689.2000122
1573.448777	689.4000244
1573.959985	687.0
1574.471139	691.5999756
1574.982239	688.4000244
1575.493285	689.4000244
1576.004276	688.7999878
1576.515213	686.4000244
1577.026096	688.4000244
1577.536924	689.2000122
1578.047698	689.4000244
1578.558419	689.5999756
1579.069084	687.5999756
1579.579696	686.4000244
1580.090254	689.0
1580.600757	692.2000122
1581.111206	686.2000122
1581.621601	685.5999756
1582.131941	689.7999878
1582.642228	685.2000122
1583.15246	691.0
1583.662638	687.7999878
1584.172762	692.5999756
1584.682832	686.0
1585.192847	687.7999878
1585.702809	689.5999756
1586.212716	688.4000244
1586.722569	690.0
1587.232368	686.2000122
1587.742113	686.0
1588.251803	688.5999756
1588.76144	687.0
1589.271022	689.7999878
1589.78055	686.7999878
1590.290024	687.0
1590.799444	685.0
1591.30881	689.5999756
1591.818121	688.0
1592.327379	689.2000122
