1042.414189	711.4000244
1042.980685	708.2000122
1043.547124	704.2000122
1044.113505	705.2000122
1044.679828	705.2000122
1045.246093	705.7999878
1045.8123	702.0
1046.378449	703.0
1046.94454	697.4000244
1047.510573	698.5999756
1048.076548	695.0
1048.642465	695.7999878
1049.208325	699.5999756
1050.339869	695.0
1050.905555	694.0
1051.471183	691.0
1052.036752	693.0
1052.602264	692.4000244
1053.167718	691.7999878
1053.733114	692.0
1054.298452	690.0
1054.863733	690.0
1055.428955	687.7999878
1055.994119	688.0
1056.559226	692.0
1057.124275	687.2000122
1057.689266	688.4000244
1058.254199	689.7999878
1058.819074	688.5999756
1059.383891	689.5999756
1059.94865	685.7999878
1060.513352	689.7999878
1061.077996	689.7999878
1061.642582	688.4000244
1062.20711	689.0
1062.77158	684.5999756
1063.335992	688.5999756
1063.900347	688.5999756
1064.464643	688.4000244
1065.028882	687.4000244
1065.593063	683.2000122
1066.157187	688.2000122
1066.721252	688.0
1067.28526	685.4000244
1067.84921	689.7999878
1068.413102	687.2000122
1068.976936	691.0
1069.540713	687.0
1070.104431	690.7999878
1070.668092	685.4000244
1071.231696	685.7999878
1071.795241	689.0
1072.358729	686.4000244
1072.922159	685.5999756
1073.485531	682.5999756
1074.048845	689.5999756
1074.612102	683.4000244
1075.175301	684.5999756
1075.738442	685.4000244
1076.301525	684.4000244
1076.864551	684.4000244
1077.427519	687.5999756
1077.990429	684.0
1078.553281	684.0
1079.116076	687.0
1079.678813	684.7999878
1080.241492	683.0
1080.804114	686.2000122
1081.366678	686.0
1081.929184	687.0
1082.491633	687.2000122
1083.054024	683.7999878
1083.616357	687.2000122
1084.178632	687.0
1084.74085	686.2000122
1085.30301	685.0
1085.865113	685.2000122
1086.427158	685.0
1086.989145	686.2000122
1087.551074	685.5999756
1088.112946	687.7999878
1088.67476	686.0
1089.236517	683.5999756
1089.798216	686.7999878
1090.359857	686.4000244
1090.92144	684.5999756
1091.482966	686.0
1092.044435	685.2000122
1092.605845	689.2000122
1093.167199	689.0
1093.728494	684.5999756
1094.289732	685.4000244
1094.850912	685.2000122
1095.412035	690.5999756
1095.9731	685.4000244
1096.534107	685.7999878
1097.095057	692.0
1097.65595	685.4000244
1098.216784	685.7999878
1098.777561	683.5999756
1099.338281	682.0
1099.898943	683.5999756
1100.459547	686.4000244
1101.020094	688.5999756
1101.580584	684.4000244
1102.141015	685.2000122
1102.701389	687.4000244
1103.261706	686.5999756
1103.821965	682.0
1104.382167	685.5999756
1104.942311	685.5999756
1105.502397	683.4000244
1106.062426	686.0
1106.622398	682.4000244
1107.182312	686.7999878
1107.742168	688.4000244
1108.301967	684.5999756
1108.861708	686.5999756
1109.421392	687.7999878
1109.981019	685.7999878
1110.540587	684.2000122
1111.100099	685.4000244
1111.659553	685.2000122
1112.218949	685.2000122
1112.778288	683.7999878
1113.33757	686.0
1113.896794	684.4000244
1114.45596	682.4000244
1115.015069	684.4000244
1115.574121	685.7999878
1116.133115	688.0
1116.692052	686.7999878
1117.250931	685.7999878
1117.809753	684.2000122
1118.368517	684.5999756
1118.927224	687.7999878
1119.485873	684.7999878
1120.044465	687.0
1120.603	685.4000244
1121.161477	687.0
1121.719897	687.0
1122.278259	685.5999756
1122.836564	684.7999878
1123.394812	687.2000122
1123.953002	683.0
1124.511135	681.2000122
1125.06921	685.2000122
1125.627228	685.0
1126.185189	686.5999756
1126.743092	686.2000122
1127.300938	684.4000244
1127.858726	687.0
1128.416457	684.0
1128.974131	684.5999756
1129.531748	685.2000122
1130.089307	686.4000244
1130.646808	687.4000244
1131.204252	685.0
1131.761639	685.5999756
1132.318969	684.5999756
1132.876241	686.0
1133.433456	686.0
1133.990614	687.2000122
1134.547714	683.5999756
1135.104757	684.7999878
1135.661743	684.5999756
1136.218671	684.2000122
1136.775542	685.5999756
1137.332356	684.7999878
1137.889112	687.0
1138.445811	687.0
1139.002453	681.5999756
1139.559037	685.0
1140.115565	684.4000244
1140.672035	684.0
1141.228447	686.4000244
1141.784803	683.5999756
1142.341101	686.0
1142.897342	684.2000122
1143.453525	683.7999878
1144.009651	687.7999878
1144.565721	687.0
1145.121732	686.4000244
1145.677687	686.0
1146.233584	684.0
1146.789424	681.2000122
1147.345207	687.7999878
1147.900933	683.5999756
1148.456601	684.5999756
1149.012212	687.5999756
1149.567766	687.4000244
1150.123263	679.5999756
1150.678702	686.4000244
1151.234085	686.2000122
1151.78941	684.4000244
1152.344678	685.5999756
1152.899888	686.5999756
1153.455042	686.5999756
1154.010138	684.0
1154.565177	687.2000122
1155.120159	684.5999756
1155.675084	687.2000122
1156.229951	684.5999756
1156.784762	686.5999756
1157.339515	684.0
1157.894211	682.5999756
1158.44885	684.4000244
1159.003432	687.5999756
1159.557956	685.0
1160.112424	686.0
1160.666834	686.5999756
1161.221187	685.7999878
1161.775483	687.0
1162.329722	685.2000122
1162.883904	686.7999878
1163.438029	683.0
1163.992096	684.7999878
1164.546107	686.0
1165.10006	689.0
1165.653956	684.2000122
1166.207795	686.2000122
1166.761577	688.0
1167.315302	686.7999878
1167.86897	684.4000244
1168.422581	688.0
1168.976134	684.2000122
1169.529631	681.0
1170.08307	685.0
1170.636453	686.7999878
1171.189778	684.5999756
1171.743046	686.2000122
1172.296257	685.2000122
1172.849412	686.2000122
1173.402509	684.4000244
1173.955549	682.7999878
1174.508532	685.4000244
1175.061458	690.7999878
1175.614327	685.4000244
1176.167138	685.5999756
1176.719893	689.2000122
1177.272591	687.5999756
1177.825232	686.5999756
1178.377816	687.2000122
1178.930342	685.5999756
1179.482812	688.2000122
1180.035225	682.2000122
1180.587581	687.4000244
1181.139879	686.7999878
1181.692121	688.2000122
1182.244306	685.0
1182.796434	684.2000122
1183.348504	684.5999756
1183.900518	687.0
1184.452475	684.5999756
1185.004375	687.0
1185.556218	683.7999878
1186.108004	684.7999878
1186.659733	684.7999878
1187.211405	685.7999878
1187.76302	685.7999878
1188.314578	685.5999756
1188.866079	686.7999878
1189.417523	684.2000122
1189.96891	685.2000122
1190.520241	688.4000244
1191.071514	687.4000244
1191.622731	687.0
1192.17389	683.5999756
1192.724993	687.2000122
1193.276039	705.7999878
1193.827027	685.0
1194.377959	687.0
1194.928834	687.5999756
1195.479653	688.4000244
1196.030414	688.0
1196.581118	689.4000244
1197.131766	688.5999756
1197.682356	684.2000122
1198.23289	687.2000122
1198.783367	686.5999756
1199.333786	687.7999878
1199.88415	688.0
1200.434456	685.4000244
1200.984705	689.5999756
1201.534898	688.0
1202.085033	686.5999756
1202.635112	685.5999756
1203.185134	685.4000244
1203.735099	689.2000122
1204.285007	684.7999878
1204.834859	684.7999878
1205.384653	684.5999756
1205.934391	686.0
1206.484072	687.0
1207.033696	687.4000244
1207.583263	687.0
1208.132774	683.4000244
1208.682228	686.7999878
1209.231624	686.5999756
1209.780965	689.4000244
1210.330248	685.0
1210.879474	690.0
1211.428644	690.2000122
1211.977757	688.7999878
1212.526813	686.4000244
1213.075813	687.7999878
1213.624755	687.7999878
1214.173641	688.4000244
1214.72247	689.7999878
1215.271242	685.7999878
1215.819958	686.0
1216.368617	686.7999878
1216.917219	686.4000244
1217.465764	684.7999878
1218.014253	685.5999756
1218.562685	688.0
1219.11106	690.0
1219.659378	685.7999878
1220.20764	688.0
1220.755845	687.0
1221.303993	685.4000244
1221.852085	686.2000122
1222.400119	689.2000122
1222.948097	687.7999878
1223.496019	686.5999756
1224.043883	688.4000244
1224.591691	689.0
1225.139443	688.0
1225.687137	690.4000244
1226.234775	687.5999756
1226.782357	687.0
1227.329881	689.2000122
1227.877349	687.2000122
1228.42476	688.4000244
1228.972115	685.2000122
1229.519413	687.4000244
1230.066654	688.0
1230.613839	689.7999878
1231.160967	693.0
1231.708038	689.4000244
1232.255053	690.0
1232.802011	688.4000244
1233.348912	685.2000122
1233.895757	689.0
1234.442545	687.5999756
1234.989277	689.7999878
1235.535951	690.4000244
1236.08257	690.5999756
1236.629131	692.2000122
1237.175636	692.7999878
1237.722085	690.4000244
1238.268477	689.7999878
1238.814812	689.2000122
1239.361091	692.2000122
1239.907313	692.0
1240.453478	691.0
1240.999587	687.7999878
1241.54564	689.7999878
1242.091636	689.4000244
1242.637575	692.2000122
1243.183457	691.5999756
1243.729284	688.2000122
1244.275053	691.5999756
1244.820766	691.5999756
1245.366423	689.5999756
1245.912022	693.5999756
1246.457566	690.5999756
1247.003053	689.2000122
1247.548483	694.2000122
1248.093857	693.5999756
1248.639174	694.5999756
1249.184435	691.7999878
1249.729639	690.7999878
1250.274787	692.4000244
1250.819878	689.2000122
1251.364912	692.4000244
1251.909891	690.7999878
1252.454812	691.7999878
1252.999677	692.2000122
1253.544486	694.4000244
1254.089238	696.5999756
1254.633934	693.2000122
1255.178573	695.5999756
1255.723156	691.2000122
1256.267682	697.7999878
1256.812152	699.0
1257.356565	699.4000244
1257.900922	704.2000122
1258.445223	704.7999878
1258.989467	701.2000122
1259.533654	702.7999878
1260.077785	718.0
1260.62186	712.4000244
1261.165878	713.0
1261.70984	724.0
1262.253745	728.5999756
1262.797594	731.0
1263.341386	724.4000244
1263.885123	722.4000244
1264.428802	717.4000244
1264.972425	714.5999756
1265.515992	709.2000122
1266.059503	709.0
1266.602957	703.4000244
1267.146354	700.7999878
1267.689696	706.2000122
1268.23298	702.5999756
1268.776209	704.4000244
1269.319381	699.5999756
1269.862497	700.7999878
1270.405556	703.0
1270.948559	703.7999878
1271.491506	699.2000122
1272.034396	699.4000244
1272.57723	702.7999878
1273.120007	701.5999756
1273.662728	700.5999756
1274.205393	705.2000122
1274.748002	707.0
1275.290554	707.2000122
1275.83305	705.0
1276.375489	708.2000122
1276.917872	706.2000122
1277.460199	709.0
1278.00247	715.4000244
1278.544684	717.0
1279.086842	722.5999756
1279.628943	738.4000244
1280.170989	754.0
1280.712978	796.2000122
1281.25491	877.2000122
1281.796787	1059.800049
1282.338607	1331.0
1282.880371	1418.199951
1283.422078	1269.599976
1283.963729	1021.0
1284.505324	870.4000244
1285.046863	799.2000122
1285.588345	762.4000244
1286.129772	739.5999756
1286.671142	729.7999878
1287.212455	716.7999878
1287.753713	719.0
1288.294914	710.7999878
1288.836059	709.2000122
1289.377147	704.4000244
1289.91818	707.0
1290.459156	704.4000244
1291.000076	704.0
1291.54094	703.7999878
1292.081747	704.7999878
1292.622499	702.2000122
1293.163194	701.0
1293.703833	697.0
1294.244415	700.5999756
1294.784942	699.5999756
1295.325412	701.4000244
1295.865826	699.5999756
1296.406184	700.4000244
1296.946486	699.2000122
1297.486731	702.2000122
1298.026921	699.5999756
1298.567054	700.0
1299.107131	698.5999756
1299.647152	697.7999878
1300.187116	698.0
1300.727025	695.2000122
1301.266877	698.5999756
1301.806673	695.5999756
1302.346413	698.0
1302.886097	696.4000244
1303.425725	697.0
1303.965297	697.5999756
1304.504812	698.0
1305.044272	694.5999756
1305.583675	694.2000122
1306.123022	696.4000244
1306.662313	695.5999756
1307.201548	694.7999878
1307.740727	692.4000244
1308.279849	699.4000244
1308.818916	692.2000122
1309.357926	692.5999756
1309.896881	695.7999878
1310.435779	697.5999756
1310.974621	696.5999756
1311.513407	695.0
1312.052137	693.5999756
1312.590811	693.7999878
1313.129429	695.4000244
1313.667991	695.4000244
1314.206497	694.5999756
1314.744946	693.2000122
1315.28334	691.2000122
1315.821678	693.4000244
1316.359959	695.2000122
1316.898184	693.4000244
1317.436354	694.4000244
1317.974467	695.7999878
1318.512525	695.4000244
1319.050526	697.4000244
1319.588471	698.4000244
1320.12636	694.0
1320.664194	693.0
1321.201971	691.2000122
1321.739692	692.7999878
1322.277357	692.0
1322.814967	693.7999878
1323.35252	694.4000244
1323.890017	696.2000122
1324.427458	696.2000122
1324.964843	692.7999878
1325.502173	693.4000244
1326.039446	691.0
1326.576663	697.0
1327.113824	693.7999878
1327.65093	697.2000122
1328.187979	691.0
1328.724972	695.7999878
1329.26191	696.2000122
1329.798791	691.0
1330.335617	696.2000122
1330.872386	694.0
1331.4091	692.4000244
1331.945758	693.0
1332.48236	693.5999756
1333.018905	695.5999756
1333.555395	697.7999878
1334.091829	694.0
1334.628207	694.0
1335.164529	693.5999756
1335.700796	692.4000244
1336.237006	689.7999878
1336.77316	695.4000244
1337.309259	694.4000244
1337.845301	696.2000122
1338.381288	693.7999878
1338.917219	691.7999878
1339.453094	696.7999878
1339.988913	692.2000122
1340.524676	692.4000244
1341.060383	691.0
1341.596034	696.7999878
1342.13163	695.2000122
1342.66717	694.2000122
1343.202653	692.4000244
1343.738081	694.2000122
1344.273453	694.2000122
1344.80877	691.4000244
1345.34403	692.2000122
1345.879235	691.7999878
1346.414383	695.5999756
1346.949476	693.4000244
1347.484513	694.7999878
1348.019494	693.4000244
1348.55442	697.2000122
1349.089289	693.5999756
1349.624103	692.7999878
1350.158861	692.2000122
1350.693563	692.5999756
1351.228209	692.0
1351.7628	696.7999878
1352.297334	694.5999756
1352.831813	693.0
1353.366236	694.0
1353.900604	695.0
1354.434915	695.7999878
1354.969171	692.4000244
1355.503371	693.7999878
1356.037515	692.5999756
1356.571604	694.2000122
1357.105636	694.4000244
1357.639613	692.7999878
1358.173535	694.0
1358.7074	696.5999756
1359.24121	697.0
1359.774964	695.5999756
1360.308662	700.7999878
1360.842304	695.7999878
1361.375891	696.5999756
1361.909422	700.4000244
1362.442897	700.0
1362.976317	701.7999878
1363.50968	695.7999878
1364.042989	697.4000244
1364.576241	699.5999756
1365.109438	699.5999756
1365.642579	699.2000122
1366.175664	696.7999878
1366.708693	695.0
1367.241667	700.2000122
1367.774585	696.7999878
1368.307448	698.4000244
1368.840255	705.7999878
1369.373006	717.5999756
1369.905701	729.2000122
1370.438341	709.7999878
1370.970925	704.7999878
1371.503454	700.7999878
1372.035926	700.2000122
1372.568344	700.7999878
1373.100705	704.4000244
1373.633011	703.2000122
1374.165261	703.5999756
1374.697456	701.7999878
1375.229595	703.2000122
1375.761678	703.4000244
1376.293705	701.5999756
1376.825677	703.2000122
1377.357594	707.7999878
1377.889455	713.0
1378.42126	711.2000122
1378.953009	706.7999878
1379.484703	711.0
1380.016342	711.2000122
1380.547924	715.7999878
1381.079452	717.7999878
1381.610923	719.5999756
1382.142339	728.7999878
1382.673699	727.4000244
1383.205004	743.5999756
1383.736253	751.2000122
1384.267447	775.4000244
1384.798585	803.4000244
1385.329668	865.4000244
1385.860695	1009.200012
1386.391666	1330.400024
1386.922582	1905.400024
1387.453442	2228.399902
1387.984247	1690.599976
1388.514996	1182.800049
1389.04569	940.2000122
1389.576328	828.7999878
1390.10691	781.2000122
1390.637437	754.7999878
1391.167909	738.2000122
1391.698325	738.2000122
1392.228685	725.5999756
1392.75899	722.0
1393.28924	717.2000122
1393.819434	714.4000244
1394.349572	713.7999878
1394.879655	712.4000244
1395.409683	713.2000122
1395.939655	707.5999756
1396.469571	708.7999878
1396.999432	705.7999878
1397.529237	708.2000122
1398.058987	706.5999756
1398.588682	706.0
1399.118321	707.4000244
1399.647905	706.0
1400.177433	702.4000244
1400.706906	702.7999878
1401.236323	704.7999878
1401.765685	704.4000244
1402.294991	708.7999878
1402.824242	705.4000244
1403.353437	709.4000244
1403.882577	707.4000244
1404.411662	711.5999756
1404.940691	712.2000122
1405.469665	719.4000244
1405.998583	720.0
1406.527446	730.7999878
1407.056253	727.2000122
1407.585005	747.0
1408.113702	747.2000122
1408.642343	762.7999878
1409.170929	764.2000122
1409.69946	750.5999756
1410.227935	742.7999878
1410.756354	724.7999878
1411.284719	718.4000244
1411.813028	714.0
1412.341281	704.2000122
1412.869479	701.5999756
1413.397622	703.7999878
1413.92571	698.2000122
1414.453742	697.5999756
1414.981718	700.2000122
1415.50964	706.0
1416.037506	697.7999878
1416.565316	697.0
1417.093072	693.5999756
1417.620772	696.2000122
1418.148416	695.5999756
1418.676005	696.5999756
1419.203539	695.5999756
1419.731018	696.5999756
1420.258441	697.0
1420.785809	692.5999756
1421.313122	693.4000244
1421.840379	693.5999756
1422.367582	694.7999878
1422.894728	693.2000122
1423.42182	694.4000244
1423.948856	695.5999756
1424.475837	695.2000122
1425.002762	693.7999878
1425.529633	695.2000122
1426.056448	695.4000244
1426.583207	693.2000122
1427.109912	689.4000244
1427.636561	694.7999878
1428.163155	693.7999878
1428.689694	692.5999756
1429.216177	694.7999878
1429.742605	692.4000244
1430.268978	695.4000244
1430.795296	690.5999756
1431.321558	688.7999878
1431.847765	690.2000122
1432.373917	689.2000122
1432.900014	691.5999756
1433.426056	692.4000244
1433.952042	691.5999756
1434.477973	690.7999878
1435.003849	691.7999878
1435.529669	692.0
1436.055435	688.2000122
1436.581145	691.7999878
1437.1068	689.5999756
1437.632399	691.5999756
1438.157944	692.4000244
1438.683433	689.4000244
1439.208868	692.2000122
1439.734247	689.4000244
1440.25957	693.7999878
1440.784839	687.4000244
1441.310053	688.4000244
1441.835211	690.4000244
1442.360314	693.0
1442.885362	688.7999878
1443.410355	690.7999878
1443.935292	690.2000122
1444.460175	691.5999756
1444.985002	690.5999756
1445.509774	691.4000244
1446.034491	689.7999878
1446.559153	686.7999878
1447.08376	690.4000244
1447.608312	690.2000122
1448.132808	690.4000244
1448.65725	690.7999878
1449.181636	686.4000244
1449.705967	688.5999756
1450.230243	688.5999756
1450.754464	691.0
1451.27863	687.7999878
1451.802741	691.7999878
1452.326797	690.2000122
1452.850797	688.5999756
1453.374743	689.5999756
1453.898633	689.0
1454.422468	687.4000244
1454.946249	689.5999756
1455.469974	687.0
1455.993644	689.5999756
1456.517259	686.7999878
1457.040819	687.0
1457.564324	688.5999756
1458.087773	683.5999756
1458.611168	687.7999878
1459.134508	683.5999756
1459.657793	689.0
1460.181022	687.4000244
1460.704197	688.4000244
1461.227316	693.2000122
1461.750381	686.7999878
1462.27339	689.7999878
1462.796345	699.4000244
1463.319244	695.5999756
1463.842089	690.5999756
1464.364878	686.4000244
1464.887613	687.4000244
1465.410292	687.4000244
1465.932916	687.7999878
1466.455486	689.2000122
1466.978	690.0
1467.50046	690.0
1468.022864	687.4000244
1468.545214	688.0
1469.067508	686.4000244
1469.589748	689.2000122
1470.111932	687.7999878
1470.634062	688.4000244
1471.156136	687.4000244
1471.678156	689.7999878
1472.20012	689.5999756
1472.72203	686.0
1473.243885	683.5999756
1473.765685	687.7999878
1474.28743	690.5999756
1474.80912	689.5999756
1475.330755	690.0
1475.852335	689.4000244
1476.37386	689.5999756
1476.89533	683.2000122
1477.416745	688.7999878
1477.938106	687.0
1478.459411	688.5999756
1478.980662	685.5999756
1479.501857	688.0
1480.022998	691.2000122
1480.544084	690.0
1481.065115	685.4000244
1481.586091	687.4000244
1482.107012	687.2000122
1482.627878	687.7999878
1483.14869	688.2000122
1483.669446	688.2000122
1484.190148	684.5999756
1484.710794	688.7999878
1485.231386	687.7999878
1485.751923	688.4000244
1486.272406	688.0
1486.792833	690.2000122
1487.313205	685.2000122
1487.833523	688.2000122
1488.353786	687.0
1488.873994	686.2000122
1489.394147	689.0
1489.914245	684.7999878
1490.434288	686.5999756
1490.954277	686.0
1491.474211	687.0
1491.99409	685.5999756
1492.513914	688.0
1493.033683	688.7999878
1493.553398	686.5999756
1494.073057	690.0
1494.592662	690.2000122
1495.112212	686.4000244
1495.631708	687.7999878
1496.151148	687.0
1496.670534	684.0
1497.189865	686.5999756
1497.709141	686.7999878
1498.228362	688.0
1498.747529	688.0
1499.266641	688.5999756
1499.785698	692.0
1500.3047	688.5999756
1500.823648	689.5999756
1501.34254	687.4000244
1501.861379	689.0
1502.380162	688.5999756
1502.89889	687.4000244
1503.417564	684.0
1503.936183	690.2000122
1504.454748	685.7999878
1504.973257	690.2000122
1505.491712	689.7999878
1506.010112	686.5999756
1506.528458	686.4000244
1507.046748	687.2000122
1507.564984	685.0
1508.083166	688.7999878
1508.601292	685.0
1509.119364	688.0
1509.637381	683.7999878
1510.155344	687.7999878
1510.673252	695.0
1511.191105	687.4000244
1511.708903	685.0
1512.226647	688.0
1512.744336	686.7999878
1513.261971	687.5999756
1513.77955	686.0
1514.297076	687.2000122
1514.814546	688.0
1515.331962	686.7999878
1515.849323	687.7999878
1516.366629	685.4000244
1516.883881	692.5999756
1517.401078	690.5999756
1517.918221	686.5999756
1518.435309	684.4000244
1518.952342	685.0
1519.469321	690.2000122
1519.986245	686.5999756
1520.503114	687.0
1521.019929	690.4000244
1521.536689	687.5999756
1522.053395	689.5999756
1522.570046	694.7999878
1523.086642	688.4000244
1523.603184	688.2000122
1524.119671	686.7999878
1524.636103	686.7999878
1525.152481	688.5999756
1525.668805	693.4000244
1526.185073	695.0
1526.701288	689.7999878
1527.217447	683.5999756
1527.733552	687.5999756
1528.249603	688.5999756
1528.765599	688.7999878
1529.28154	688.2000122
1529.797427	688.7999878
1530.313259	688.2000122
1530.829037	685.2000122
1531.34476	686.7999878
1531.860429	686.2000122
1532.376043	686.5999756
1532.891602	686.0
1533.407107	688.0
1533.922558	686.5999756
1534.437954	686.2000122
1534.953295	687.5999756
1535.468582	690.2000122
1535.983815	684.7999878
1536.498993	687.0
1537.014116	688.0
1537.529185	685.7999878
1538.044199	686.5999756
1538.559159	687.4000244
1539.074064	688.5999756
1539.588915	687.5999756
1540.103712	690.2000122
1540.618454	690.7999878
1541.133141	687.7999878
1541.647774	688.5999756
1542.162353	686.7999878
1542.676877	693.4000244
1543.191346	691.4000244
1543.705761	687.5999756
1544.220122	689.2000122
1544.734428	687.5999756
1545.24868	690.7999878
1545.762877	684.2000122
1546.27702	691.4000244
1546.791109	685.4000244
1547.305143	686.4000244
1547.819122	687.2000122
1548.333047	687.5999756
1548.846918	686.5999756
1549.360734	690.2000122
1549.874496	690.2000122
1550.388204	685.7999878
1550.901857	685.7999878
1551.415455	690.2000122
1551.929	686.7999878
1552.442489	686.4000244
1552.955925	689.5999756
1553.469306	687.0
1553.982632	691.2000122
1554.495905	687.4000244
1555.009123	690.5999756
1555.522286	684.4000244
1556.035395	686.0
1556.54845	685.4000244
1557.06145	690.0
1557.574396	686.4000244
1558.087288	689.7999878
1558.600125	689.4000244
1559.112908	687.0
1559.625637	688.7999878
1560.138311	685.0
1560.650931	684.2000122
1561.163497	687.5999756
1561.676008	691.5999756
1562.188465	684.4000244
1562.700867	686.0
1563.213216	692.2000122
1563.725509	690.7999878
1564.237749	689.5999756
1564.749934	690.5999756
1565.262065	688.0
1565.774142	691.7999878
1566.286164	691.7999878
1566.798132	688.2000122
1567.310046	691.2000122
1567.821906	689.5999756
1568.333711	686.5999756
1568.845462	687.2000122
1569.357158	690.5999756
1569.868801	690.4000244
1570.380389	691.5999756
1570.891922	685.0
1571.403402	686.4000244
1571.914827	687.5999756
1572.426198	684.5999756
1572.937515	685.7999878
1573.448777	693.0
1573.959985	689.5999756
1574.471139	688.5999756
1574.982239	687.4000244
1575.493285	687.0
1576.004276	691.4000244
1576.515213	690.0
1577.026096	690.4000244
1577.536924	688.5999756
1578.047698	692.5999756
1578.558419	690.7999878
1579.069084	691.0
1579.579696	691.4000244
1580.090254	686.0
1580.600757	689.4000244
1581.111206	691.0
1581.621601	688.2000122
1582.131941	690.0
1582.642228	689.2000122
1583.15246	688.4000244
1583.662638	689.2000122
1584.172762	687.5999756
1584.682832	691.4000244
1585.192847	687.4000244
1585.702809	689.0
1586.212716	689.4000244
1586.722569	692.2000122
1587.232368	687.2000122
1587.742113	691.2000122
1588.251803	690.4000244
1588.76144	686.7999878
1589.271022	688.5999756
1589.78055	683.5999756
1590.290024	688.5999756
1590.799444	684.4000244
1591.30881	687.7999878
1591.818121	689.5999756
1592.327379	687.2000122
