1042.414189	703.5999756
1042.980685	705.5999756
1043.547124	706.0
1044.113505	704.2000122
1044.679828	702.7999878
1045.246093	699.5999756
1045.8123	697.2000122
1046.378449	697.7999878
1046.94454	698.0
1047.510573	699.2000122
1048.076548	698.7999878
1048.642465	695.2000122
1049.208325	693.5999756
1049.774126	691.5999756
1050.339869	692.0
1050.905555	692.2000122
1051.471183	690.5999756
1052.036752	689.4000244
1052.602264	688.5999756
1053.167718	691.0
1053.733114	689.4000244
1054.298452	687.7999878
1054.863733	689.4000244
1055.428955	687.0
1055.994119	690.7999878
1056.559226	690.2000122
1057.124275	686.7999878
1057.689266	684.7999878
1058.254199	685.0
1058.819074	684.0
1059.383891	685.2000122
1059.94865	682.4000244
1060.513352	686.7999878
1061.077996	682.0
1061.642582	684.5999756
1062.20711	686.7999878
1062.77158	684.2000122
1063.335992	684.5999756
1063.900347	683.2000122
1064.464643	684.4000244
1065.028882	684.2000122
1065.593063	684.5999756
1066.157187	687.0
1066.721252	684.7999878
1067.28526	684.7999878
1067.84921	682.0
1068.413102	685.2000122
1068.976936	684.2000122
1069.540713	683.2000122
1070.104431	688.0
1070.668092	686.5999756
1071.231696	682.5999756
1071.795241	686.7999878
1072.358729	684.0
1072.922159	683.7999878
1073.485531	681.7999878
1074.048845	688.5999756
1074.612102	680.4000244
1075.175301	687.2000122
1075.738442	683.2000122
1076.301525	682.5999756
1076.864551	681.7999878
1077.427519	681.5999756
1077.990429	681.5999756
1078.553281	683.7999878
1079.116076	685.4000244
1079.678813	683.4000244
1080.241492	681.7999878
1080.804114	681.5999756
1081.366678	682.2000122
1081.929184	684.4000244
1082.491633	684.7999878
1083.054024	683.4000244
1083.616357	683.5999756
1084.178632	682.0
1084.74085	682.0
1085.30301	682.2000122
1085.865113	681.4000244
1086.427158	680.7999878
1086.989145	686.0
1087.551074	680.5999756
1088.112946	680.5999756
1088.67476	685.7999878
1089.236517	682.2000122
1089.798216	682.4000244
1090.359857	680.0
1090.92144	684.2000122
1091.482966	684.4000244
1092.044435	684.2000122
1092.605845	686.0
1093.167199	681.2000122
1093.728494	686.7999878
1094.289732	685.5999756
1094.850912	683.0
1095.412035	689.7999878
1095.9731	688.5999756
1096.534107	684.7999878
1097.095057	685.2000122
1097.65595	682.2000122
1098.216784	681.7999878
1098.777561	681.5999756
1099.338281	684.4000244
1099.898943	686.5999756
1100.459547	680.0
1101.020094	683.5999756
1101.580584	680.7999878
1102.141015	683.5999756
1102.701389	683.7999878
1103.261706	683.5999756
1103.821965	684.0
1104.382167	683.4000244
1104.942311	681.0
1105.502397	683.4000244
1106.062426	683.0
1106.622398	686.0
1107.182312	683.0
1107.742168	680.2000122
1108.301967	682.5999756
1108.861708	684.4000244
1109.421392	683.5999756
1109.981019	680.5999756
1110.540587	680.4000244
1111.100099	684.5999756
1111.659553	684.4000244
1112.218949	683.4000244
1112.778288	684.2000122
1113.33757	687.0
1113.896794	680.0
1114.45596	682.2000122
1115.015069	680.4000244
1115.574121	684.0
1116.133115	681.4000244
1116.692052	682.2000122
1117.250931	681.5999756
1117.809753	680.4000244
1118.368517	683.4000244
1118.927224	682.7999878
1119.485873	683.4000244
1120.044465	683.4000244
1120.603	685.7999878
1121.161477	680.5999756
1121.719897	684.4000244
1122.278259	680.0
1122.836564	681.4000244
1123.394812	682.2000122
1123.953002	681.4000244
1124.511135	680.2000122
1125.06921	688.5999756
1125.627228	685.5999756
1126.185189	682.0
1126.743092	681.0
1127.300938	683.4000244
1127.858726	681.4000244
1128.416457	681.7999878
1128.974131	681.5999756
1129.531748	684.2000122
1130.089307	679.7999878
1130.646808	678.7999878
1131.204252	681.0
1131.761639	684.0
1132.318969	679.2000122
1132.876241	682.0
1133.433456	684.5999756
1133.990614	681.4000244
1134.547714	680.2000122
1135.104757	682.2000122
1135.661743	679.7999878
1136.218671	686.0
1136.775542	681.4000244
1137.332356	684.5999756
1137.889112	682.4000244
1138.445811	684.2000122
1139.002453	680.4000244
1139.559037	684.5999756
1140.115565	679.7999878
1140.672035	686.2000122
1141.228447	684.2000122
1141.784803	681.5999756
1142.341101	682.5999756
1142.897342	682.4000244
1143.453525	684.5999756
1144.009651	685.4000244
1144.565721	684.5999756
1145.121732	680.7999878
1145.677687	682.2000122
1146.233584	682.2000122
1146.789424	683.5999756
1147.345207	684.2000122
1147.900933	685.4000244
1148.456601	681.4000244
1149.012212	683.0
1149.567766	683.4000244
1150.123263	685.5999756
1150.678702	682.0
1151.234085	684.2000122
1151.78941	682.7999878
1152.344678	680.2000122
1152.899888	683.7999878
1153.455042	684.4000244
1154.010138	682.7999878
1154.565177	681.4000244
1155.120159	685.2000122
1155.675084	686.7999878
1156.229951	681.7999878
1156.784762	685.0
1157.339515	680.0
1157.894211	681.5999756
1158.44885	683.7999878
1159.003432	685.4000244
1159.557956	684.7999878
1160.112424	682.4000244
1160.666834	681.5999756
1161.221187	684.2000122
1161.775483	681.5999756
1162.329722	683.7999878
1162.883904	682.2000122
1163.438029	684.7999878
1163.992096	683.4000244
1164.546107	684.5999756
1165.10006	686.5999756
1165.653956	684.0
1166.207795	683.0
1166.761577	680.2000122
1167.315302	681.7999878
1167.86897	683.4000244
1168.422581	681.0
1168.976134	684.2000122
1169.529631	679.7999878
1170.08307	685.0
1170.636453	680.5999756
1171.189778	682.7999878
1171.743046	685.4000244
1172.296257	681.0
1172.849412	683.4000244
1173.402509	683.7999878
1173.955549	683.5999756
1174.508532	686.4000244
1175.061458	686.5999756
1175.614327	682.4000244
1176.167138	686.0
1176.719893	684.7999878
1177.272591	682.7999878
1177.825232	682.0
1178.377816	683.4000244
1178.930342	684.5999756
1179.482812	682.7999878
1180.035225	682.5999756
1180.587581	683.0
1181.139879	682.5999756
1181.692121	683.5999756
1182.244306	683.2000122
1182.796434	682.5999756
1183.348504	684.0
1183.900518	683.7999878
1184.452475	682.4000244
1185.004375	683.5999756
1185.556218	684.2000122
1186.108004	679.7999878
1186.659733	682.0
1187.211405	685.2000122
1187.76302	683.0
1188.314578	685.2000122
1188.866079	681.2000122
1189.417523	684.4000244
1189.96891	683.0
1190.520241	683.7999878
1191.071514	685.2000122
1191.622731	683.7999878
1192.17389	687.5999756
1192.724993	683.0
1193.276039	702.5999756
1193.827027	684.0
1194.377959	682.7999878
1194.928834	687.2000122
1195.479653	687.0
1196.030414	683.5999756
1196.581118	684.7999878
1197.131766	683.0
1197.682356	684.0
1198.23289	682.4000244
1198.783367	684.5999756
1199.333786	683.5999756
1199.88415	686.2000122
1200.434456	682.0
1200.984705	685.0
1201.534898	687.0
1202.085033	685.2000122
1202.635112	682.7999878
1203.185134	680.7999878
1203.735099	686.2000122
1204.285007	685.4000244
1204.834859	684.4000244
1205.384653	684.7999878
1205.934391	687.7999878
1206.484072	685.7999878
1207.033696	687.7999878
1207.583263	684.7999878
1208.132774	683.4000244
1208.682228	684.4000244
1209.231624	683.5999756
1209.780965	688.0
1210.330248	685.7999878
1210.879474	683.5999756
1211.428644	685.0
1211.977757	683.2000122
1212.526813	685.4000244
1213.075813	684.2000122
1213.624755	681.2000122
1214.173641	682.2000122
1214.72247	686.0
1215.271242	683.0
1215.819958	687.2000122
1216.368617	685.7999878
1216.917219	683.7999878
1217.465764	681.7999878
1218.014253	685.0
1218.562685	684.2000122
1219.11106	682.7999878
1219.659378	684.4000244
1220.20764	688.0
1220.755845	689.0
1221.303993	685.0
1221.852085	683.0
1222.400119	682.2000122
1222.948097	686.0
1223.496019	684.0
1224.043883	685.2000122
1224.591691	687.5999756
1225.139443	686.2000122
1225.687137	684.4000244
1226.234775	686.2000122
1226.782357	684.0
1227.329881	689.0
1227.877349	684.5999756
1228.42476	685.5999756
1228.972115	688.0
1229.519413	682.0
1230.066654	684.0
1230.613839	686.2000122
1231.160967	687.7999878
1231.708038	687.2000122
1232.255053	685.2000122
1232.802011	686.2000122
1233.348912	688.2000122
1233.895757	686.0
1234.442545	690.2000122
1234.989277	686.5999756
1235.535951	687.4000244
1236.08257	688.5999756
1236.629131	687.5999756
1237.175636	687.7999878
1237.722085	684.4000244
1238.268477	688.0
1238.814812	687.7999878
1239.361091	686.5999756
1239.907313	686.2000122
1240.453478	686.2000122
1240.999587	689.0
1241.54564	686.0
1242.091636	689.4000244
1242.637575	688.4000244
1243.183457	690.5999756
1243.729284	688.4000244
1244.275053	686.2000122
1244.820766	690.7999878
1245.366423	687.5999756
1245.912022	689.5999756
1246.457566	692.0
1247.003053	690.5999756
1247.548483	691.2000122
1248.093857	690.5999756
1248.639174	691.0
1249.184435	692.5999756
1249.729639	692.0
1250.274787	688.4000244
1250.819878	689.5999756
1251.364912	691.0
1251.909891	691.0
1252.454812	689.5999756
1252.999677	691.4000244
1253.544486	692.7999878
1254.089238	689.7999878
1254.633934	690.0
1255.178573	692.2000122
1255.723156	697.0
1256.267682	696.4000244
1256.812152	697.5999756
1257.356565	703.7999878
1257.900922	704.7999878
1258.445223	700.2000122
1258.989467	704.5999756
1259.533654	702.7999878
1260.077785	716.5999756
1260.62186	712.4000244
1261.165878	718.5999756
1261.70984	725.2000122
1262.253745	727.7999878
1262.797594	735.2000122
1263.341386	724.7999878
1263.885123	722.4000244
1264.428802	716.7999878
1264.972425	708.7999878
1265.515992	707.7999878
1266.059503	703.0
1266.602957	703.7999878
1267.146354	701.4000244
1267.689696	699.7999878
1268.23298	701.7999878
1268.776209	704.7999878
1269.319381	705.5999756
1269.862497	702.2000122
1270.405556	702.0
1270.948559	700.4000244
1271.491506	697.4000244
1272.034396	701.2000122
1272.57723	700.2000122
1273.120007	701.0
1273.662728	700.4000244
1274.205393	702.5999756
1274.748002	701.5999756
1275.290554	703.0
1275.83305	703.4000244
1276.375489	704.2000122
1276.917872	707.4000244
1277.460199	709.0
1278.00247	709.4000244
1278.544684	715.5999756
1279.086842	724.7999878
1279.628943	733.7999878
1280.170989	762.5999756
1280.712978	801.2000122
1281.25491	900.7999878
1281.796787	1087.800049
1282.338607	1357.800049
1282.880371	1484.400024
1283.422078	1308.0
1283.963729	1037.199951
1284.505324	878.4000244
1285.046863	807.5999756
1285.588345	764.7999878
1286.129772	737.7999878
1286.671142	725.2000122
1287.212455	720.0
1287.753713	716.2000122
1288.294914	707.5999756
1288.836059	712.5999756
1289.377147	706.5999756
1289.91818	703.0
1290.459156	703.2000122
1291.000076	703.2000122
1291.54094	705.5999756
1292.081747	698.7999878
1292.622499	699.2000122
1293.163194	699.0
1293.703833	701.5999756
1294.244415	699.4000244
1294.784942	698.4000244
1295.325412	698.4000244
1295.865826	695.5999756
1296.406184	693.5999756
1296.946486	699.0
1297.486731	697.2000122
1298.026921	696.4000244
1298.567054	698.2000122
1299.107131	693.5999756
1299.647152	697.7999878
1300.187116	696.4000244
1300.727025	695.5999756
1301.266877	697.2000122
1301.806673	693.7999878
1302.346413	694.2000122
1302.886097	698.0
1303.425725	695.0
1303.965297	691.2000122
1304.504812	695.7999878
1305.044272	693.5999756
1305.583675	690.2000122
1306.123022	692.2000122
1306.662313	692.7999878
1307.201548	691.7999878
1307.740727	696.7999878
1308.279849	690.0
1308.818916	695.2000122
1309.357926	694.2000122
1309.896881	690.5999756
1310.435779	693.2000122
1310.974621	689.2000122
1311.513407	691.5999756
1312.052137	689.5999756
1312.590811	689.7999878
1313.129429	691.0
1313.667991	691.0
1314.206497	697.2000122
1314.744946	690.7999878
1315.28334	691.7999878
1315.821678	691.2000122
1316.359959	689.0
1316.898184	691.0
1317.436354	692.4000244
1317.974467	689.2000122
1318.512525	692.7999878
1319.050526	689.5999756
1319.588471	689.4000244
1320.12636	689.4000244
1320.664194	690.7999878
1321.201971	690.2000122
1321.739692	691.4000244
1322.277357	690.0
1322.814967	691.0
1323.35252	691.5999756
1323.890017	698.7999878
1324.427458	692.4000244
1324.964843	689.5999756
1325.502173	693.5999756
1326.039446	688.5999756
1326.576663	693.2000122
1327.113824	687.7999878
1327.65093	691.7999878
1328.187979	691.0
1328.724972	690.4000244
1329.26191	689.0
1329.798791	692.4000244
1330.335617	691.0
1330.872386	693.2000122
1331.4091	692.5999756
1331.945758	695.2000122
1332.48236	690.2000122
1333.018905	689.7999878
1333.555395	689.5999756
1334.091829	692.0
1334.628207	689.4000244
1335.164529	696.2000122
1335.700796	691.0
1336.237006	692.5999756
1336.77316	694.0
1337.309259	693.0
1337.845301	692.2000122
1338.381288	690.7999878
1338.917219	687.7999878
1339.453094	690.7999878
1339.988913	693.0
1340.524676	691.7999878
1341.060383	689.2000122
1341.596034	693.0
1342.13163	693.0
1342.66717	693.0
1343.202653	692.5999756
1343.738081	690.5999756
1344.273453	690.4000244
1344.80877	687.2000122
1345.34403	690.5999756
1345.879235	692.7999878
1346.414383	691.2000122
1346.949476	688.0
1347.484513	688.7999878
1348.019494	686.7999878
1348.55442	694.5999756
1349.089289	690.0
1349.624103	694.5999756
1350.158861	690.4000244
1350.693563	693.5999756
1351.228209	692.7999878
1351.7628	692.0
1352.297334	691.0
1352.831813	692.2000122
1353.366236	691.2000122
1353.900604	695.4000244
1354.434915	691.4000244
1354.969171	692.2000122
1355.503371	694.4000244
1356.037515	692.2000122
1356.571604	692.7999878
1357.105636	692.2000122
1357.639613	694.4000244
1358.173535	694.5999756
1358.7074	696.7999878
1359.24121	694.4000244
1359.774964	695.4000244
1360.308662	693.4000244
1360.842304	691.7999878
1361.375891	696.7999878
1361.909422	692.2000122
1362.442897	693.7999878
1362.976317	692.4000244
1363.50968	695.7999878
1364.042989	701.4000244
1364.576241	695.7999878
1365.109438	699.4000244
1365.642579	694.4000244
1366.175664	695.7999878
1366.708693	694.7999878
1367.241667	696.5999756
1367.774585	696.7999878
1368.307448	699.2000122
1368.840255	706.2000122
1369.373006	725.0
1369.905701	728.2000122
1370.438341	712.4000244
1370.970925	700.2000122
1371.503454	697.7999878
1372.035926	697.7999878
1372.568344	698.4000244
1373.100705	703.4000244
1373.633011	704.2000122
1374.165261	698.2000122
1374.697456	703.4000244
1375.229595	704.2000122
1375.761678	701.7999878
1376.293705	703.7999878
1376.825677	706.5999756
1377.357594	706.7999878
1377.889455	703.5999756
1378.42126	704.2000122
1378.953009	707.7999878
1379.484703	707.5999756
1380.016342	711.0
1380.547924	717.2000122
1381.079452	714.7999878
1381.610923	720.0
1382.142339	720.7999878
1382.673699	733.7999878
1383.205004	743.0
1383.736253	752.2000122
1384.267447	771.5999756
1384.798585	807.7999878
1385.329668	879.7999878
1385.860695	1023.599976
1386.391666	1369.599976
1386.922582	2021.599976
1387.453442	2357.199951
1387.984247	1778.400024
1388.514996	1227.800049
1389.04569	951.2000122
1389.576328	848.5999756
1390.10691	788.7999878
1390.637437	765.7999878
1391.167909	743.0
1391.698325	728.5999756
1392.228685	729.0
1392.75899	720.7999878
1393.28924	722.0
1393.819434	715.2000122
1394.349572	712.5999756
1394.879655	710.5999756
1395.409683	708.2000122
1395.939655	707.7999878
1396.469571	713.5999756
1396.999432	704.0
1397.529237	707.0
1398.058987	704.0
1398.588682	703.0
1399.118321	704.5999756
1399.647905	701.7999878
1400.177433	701.4000244
1400.706906	702.5999756
1401.236323	705.0
1401.765685	702.7999878
1402.294991	707.7999878
1402.824242	704.0
1403.353437	706.7999878
1403.882577	708.5999756
1404.411662	708.0
1404.940691	712.0
1405.469665	715.2000122
1405.998583	720.2000122
1406.527446	717.5999756
1407.056253	735.7999878
1407.585005	747.2000122
1408.113702	754.0
1408.642343	757.0
1409.170929	759.4000244
1409.69946	751.5999756
1410.227935	740.5999756
1410.756354	729.7999878
1411.284719	716.5999756
1411.813028	709.7999878
1412.341281	704.7999878
1412.869479	702.4000244
1413.397622	699.0
1413.92571	696.2000122
1414.453742	697.0
1414.981718	696.0
1415.50964	705.4000244
1416.037506	697.7999878
1416.565316	698.0
1417.093072	689.4000244
1417.620772	693.2000122
1418.148416	693.4000244
1418.676005	691.2000122
1419.203539	693.7999878
1419.731018	694.2000122
1420.258441	694.5999756
1420.785809	687.2000122
1421.313122	691.4000244
1421.840379	693.0
1422.367582	692.4000244
1422.894728	691.4000244
1423.42182	692.4000244
1423.948856	690.2000122
1424.475837	694.2000122
1425.002762	690.0
1425.529633	690.0
1426.056448	690.0
1426.583207	691.7999878
1427.109912	687.4000244
1427.636561	687.2000122
1428.163155	691.0
1428.689694	688.2000122
1429.216177	688.2000122
1429.742605	689.7999878
1430.268978	689.4000244
1430.795296	687.4000244
1431.321558	687.0
1431.847765	690.2000122
1432.373917	684.4000244
1432.900014	686.0
1433.426056	684.4000244
1433.952042	690.0
1434.477973	687.4000244
1435.003849	685.7999878
1435.529669	686.4000244
1436.055435	688.4000244
1436.581145	688.4000244
1437.1068	686.0
1437.632399	689.7999878
1438.157944	689.2000122
1438.683433	686.0
1439.208868	687.4000244
1439.734247	685.5999756
1440.25957	685.2000122
1440.784839	687.2000122
1441.310053	687.7999878
1441.835211	690.7999878
1442.360314	686.0
1442.885362	685.0
1443.410355	686.4000244
1443.935292	685.2000122
1444.460175	687.2000122
1444.985002	686.7999878
1445.509774	681.0
1446.034491	686.0
1446.559153	687.0
1447.08376	687.2000122
1447.608312	683.5999756
1448.132808	685.2000122
1448.65725	683.0
1449.181636	684.0
1449.705967	686.2000122
1450.230243	684.5999756
1450.754464	686.7999878
1451.27863	685.7999878
1451.802741	686.7999878
1452.326797	685.0
1452.850797	687.0
1453.374743	683.2000122
1453.898633	685.7999878
1454.422468	683.0
1454.946249	685.0
1455.469974	684.7999878
1455.993644	685.0
1456.517259	685.2000122
1457.040819	683.7999878
1457.564324	684.0
1458.087773	684.7999878
1458.611168	685.4000244
1459.134508	685.0
1459.657793	681.5999756
1460.181022	683.7999878
1460.704197	687.7999878
1461.227316	685.5999756
1461.750381	685.5999756
1462.27339	682.5999756
1462.796345	696.2000122
1463.319244	691.5999756
1463.842089	684.5999756
1464.364878	684.0
1464.887613	684.2000122
1465.410292	683.5999756
1465.932916	685.2000122
1466.455486	681.2000122
1466.978	685.0
1467.50046	681.4000244
1468.022864	687.0
1468.545214	686.2000122
1469.067508	682.7999878
1469.589748	684.7999878
1470.111932	687.7999878
1470.634062	685.4000244
1471.156136	684.5999756
1471.678156	685.2000122
1472.20012	684.7999878
1472.72203	682.5999756
1473.243885	684.4000244
1473.765685	682.5999756
1474.28743	686.0
1474.80912	683.0
1475.330755	684.5999756
1475.852335	684.0
1476.37386	684.7999878
1476.89533	684.2000122
1477.416745	682.7999878
1477.938106	684.7999878
1478.459411	683.0
1478.980662	688.0
1479.501857	685.2000122
1480.022998	684.0
1480.544084	683.5999756
1481.065115	684.0
1481.586091	686.4000244
1482.107012	682.2000122
1482.627878	685.0
1483.14869	682.4000244
1483.669446	682.4000244
1484.190148	683.5999756
1484.710794	687.4000244
1485.231386	683.4000244
1485.751923	687.2000122
1486.272406	682.5999756
1486.792833	682.2000122
1487.313205	683.0
1487.833523	683.7999878
1488.353786	683.2000122
1488.873994	684.7999878
1489.394147	684.4000244
1489.914245	680.4000244
1490.434288	684.2000122
1490.954277	685.2000122
1491.474211	683.0
1491.99409	682.0
1492.513914	681.7999878
1493.033683	686.0
1493.553398	683.4000244
1494.073057	682.4000244
1494.592662	683.7999878
1495.112212	681.0
1495.631708	680.0
1496.151148	686.0
1496.670534	683.2000122
1497.189865	687.4000244
1497.709141	682.2000122
1498.228362	686.5999756
1498.747529	683.0
1499.266641	681.7999878
1499.785698	687.7999878
1500.3047	683.5999756
1500.823648	683.2000122
1501.34254	680.7999878
1501.861379	683.0
1502.380162	681.2000122
1502.89889	681.2000122
1503.417564	682.4000244
1503.936183	686.4000244
1504.454748	684.5999756
1504.973257	682.7999878
1505.491712	683.4000244
1506.010112	680.5999756
1506.528458	681.4000244
1507.046748	684.2000122
1507.564984	681.2000122
1508.083166	686.4000244
1508.601292	682.2000122
1509.119364	683.5999756
1509.637381	680.2000122
1510.155344	683.5999756
1510.673252	689.0
1511.191105	685.2000122
1511.708903	680.4000244
1512.226647	683.5999756
1512.744336	687.0
1513.261971	684.7999878
1513.77955	682.2000122
1514.297076	682.7999878
1514.814546	682.0
1515.331962	682.5999756
1515.849323	682.5999756
1516.366629	685.7999878
1516.883881	684.0
1517.401078	681.7999878
1517.918221	682.7999878
1518.435309	683.7999878
1518.952342	684.5999756
1519.469321	683.4000244
1519.986245	682.2000122
1520.503114	682.0
1521.019929	682.5999756
1521.536689	682.7999878
1522.053395	682.7999878
1522.570046	683.5999756
1523.086642	684.2000122
1523.603184	682.2000122
1524.119671	685.4000244
1524.636103	686.5999756
1525.152481	684.0
1525.668805	688.7999878
1526.185073	691.4000244
1526.701288	683.7999878
1527.217447	682.2000122
1527.733552	687.0
1528.249603	681.0
1528.765599	683.2000122
1529.28154	683.4000244
1529.797427	694.2000122
1530.829037	686.7999878
1531.34476	683.0
1531.860429	683.0
1532.376043	683.2000122
1532.891602	683.2000122
1533.407107	683.0
1533.922558	682.5999756
1534.437954	686.2000122
1534.953295	683.4000244
1535.468582	679.5999756
1535.983815	681.4000244
1536.498993	684.5999756
1537.014116	681.2000122
1537.529185	681.5999756
1538.044199	684.2000122
1538.559159	681.0
1539.074064	683.4000244
1539.588915	683.4000244
1540.103712	682.4000244
1540.618454	682.2000122
1541.133141	682.5999756
1541.647774	681.0
1542.162353	682.5999756
1542.676877	681.7999878
1543.191346	683.2000122
1543.705761	681.5999756
1544.220122	682.5999756
1544.734428	681.7999878
1545.24868	684.2000122
1545.762877	682.2000122
1546.27702	679.4000244
1546.791109	683.2000122
1547.305143	681.4000244
1547.819122	680.4000244
1548.333047	686.0
1548.846918	680.4000244
1549.360734	680.4000244
1549.874496	681.2000122
1550.388204	681.2000122
1550.901857	679.5999756
1551.415455	684.0
1551.929	683.4000244
1552.442489	686.5999756
1552.955925	683.0
1553.469306	679.7999878
1553.982632	683.5999756
1554.495905	686.2000122
1555.009123	686.2000122
1555.522286	683.7999878
1556.035395	683.7999878
1556.54845	685.4000244
1557.06145	683.4000244
1557.574396	684.2000122
1558.087288	682.2000122
1558.600125	682.2000122
1559.112908	684.0
1559.625637	687.2000122
1560.138311	687.5999756
1560.650931	682.4000244
1561.163497	684.2000122
1561.676008	679.4000244
1562.188465	685.0
1562.700867	682.2000122
1563.213216	684.2000122
1563.725509	684.4000244
1564.237749	684.4000244
1564.749934	683.5999756
1565.262065	680.4000244
1565.774142	681.5999756
1566.286164	684.0
1566.798132	684.4000244
1567.310046	683.4000244
1567.821906	688.0
1568.333711	685.5999756
1568.845462	680.0
1569.357158	684.7999878
1569.868801	684.0
1570.380389	683.2000122
1570.891922	684.2000122
1571.403402	683.4000244
1571.914827	680.5999756
1572.426198	681.0
1572.937515	684.2000122
1573.448777	683.4000244
1573.959985	684.5999756
1574.471139	683.5999756
1574.982239	681.5999756
1575.493285	682.5999756
1576.004276	683.0
1576.515213	684.0
1577.026096	687.4000244
1577.536924	684.0
1578.047698	682.7999878
1578.558419	684.0
1579.069084	683.7999878
1579.579696	685.7999878
1580.090254	683.0
1580.600757	684.0
1581.111206	681.0
1581.621601	684.7999878
1582.131941	683.7999878
1582.642228	685.0
1583.15246	684.7999878
1583.662638	682.7999878
1584.172762	685.2000122
1584.682832	682.7999878
1585.192847	684.5999756
1585.702809	684.4000244
1586.212716	684.2000122
1586.722569	684.7999878
1587.232368	685.2000122
1587.742113	683.2000122
1588.251803	684.5999756
1588.76144	682.7999878
1589.271022	680.5999756
1589.78055	681.5999756
1590.290024	682.7999878
1590.799444	685.0
1591.30881	683.7999878
1591.818121	682.2000122
1592.327379	682.2000122
