1042.452273	682.0
1043.018714	678.7999878
1043.585098	678.4000244
1044.151424	675.2000122
1044.717692	676.4000244
1045.283903	675.5999756
1045.850056	678.0
1046.416151	678.7999878
1046.982188	677.0
1047.548167	674.4000244
1048.114089	676.7999878
1048.679953	674.2000122
1049.24576	675.7999878
1049.811509	670.5999756
1050.3772	675.0
1050.942833	675.5999756
1051.508408	670.0
1052.073926	674.4000244
1052.639387	674.0
1053.204789	673.4000244
1053.770134	671.7999878
1054.335421	670.5999756
1054.900651	670.7999878
1055.465823	674.0
1056.030937	672.2000122
1056.595993	669.5999756
1057.160992	671.4000244
1057.725934	675.2000122
1058.290817	671.2000122
1058.855643	670.7999878
1059.420411	668.0
1059.985122	670.4000244
1060.549775	672.7999878
1061.114371	666.0
1061.678908	671.4000244
1062.243389	670.2000122
1062.807811	668.4000244
1063.372176	671.0
1063.936483	671.0
1064.500733	670.5999756
1065.064925	668.4000244
1065.62906	667.5999756
1066.193137	668.2000122
1066.757156	668.7999878
1067.321118	670.5999756
1067.885022	667.2000122
1068.448869	666.4000244
1069.012658	666.4000244
1069.57639	668.2000122
1070.140063	674.4000244
1070.70368	667.4000244
1071.267239	668.7999878
1071.83074	664.4000244
1072.394184	668.0
1072.95757	671.5999756
1073.520899	667.5999756
1074.08417	670.4000244
1074.647383	668.4000244
1075.21054	669.7999878
1075.773638	667.5999756
1076.336679	669.5999756
1076.899663	664.7999878
1077.462589	666.4000244
1078.025457	667.4000244
1078.588268	671.2000122
1079.151022	665.5999756
1079.713718	667.5999756
1080.276356	667.2000122
1080.838937	671.4000244
1081.401461	667.4000244
1081.963927	667.4000244
1082.526336	669.7999878
1083.088687	668.2000122
1083.650981	666.5999756
1084.213217	668.0
1084.775396	666.7999878
1085.337517	667.5999756
1085.899581	666.7999878
1086.461587	666.4000244
1087.023536	668.5999756
1087.585428	665.0
1088.147262	667.7999878
1088.709039	670.0
1089.270758	665.4000244
1089.83242	667.4000244
1090.394024	666.0
1090.955571	670.4000244
1091.517061	665.5999756
1092.078493	669.5999756
1092.639868	666.0
1093.201185	665.7999878
1093.762445	664.2000122
1094.323648	669.4000244
1094.884793	665.7999878
1095.445881	680.2000122
1096.006911	664.7999878
1096.567884	665.0
1097.1288	674.0
1097.689659	670.4000244
1098.25046	666.5999756
1098.811203	665.4000244
1099.37189	667.7999878
1099.932518	666.0
1100.49309	667.4000244
1101.053604	668.2000122
1101.614061	665.7999878
1102.174461	666.7999878
1102.734803	666.7999878
1103.295088	668.5999756
1103.855316	664.2000122
1104.415486	664.0
1104.975599	667.5999756
1105.535655	668.0
1106.095653	667.5999756
1106.655594	666.2000122
1107.215478	667.4000244
1107.775305	667.0
1108.335074	667.5999756
1108.894786	666.4000244
1109.45444	664.7999878
1110.014038	668.4000244
1110.573578	667.7999878
1111.133061	668.4000244
1111.692486	668.7999878
1112.251854	667.4000244
1112.811165	665.2000122
1113.370419	666.7999878
1113.929616	665.5999756
1114.488755	665.0
1115.047837	666.2000122
1115.606862	666.4000244
1116.16583	665.7999878
1116.72474	666.7999878
1117.283593	668.0
1117.842389	665.4000244
1118.401128	668.7999878
1118.959809	669.0
1119.518433	666.2000122
1120.077	665.7999878
1120.63551	666.0
1121.193963	667.0
1121.752358	664.7999878
1122.310697	664.7999878
1122.868978	666.4000244
1123.427202	667.2000122
1123.985368	664.2000122
1124.543478	663.5999756
1125.10153	665.4000244
1125.659526	668.2000122
1126.217464	666.2000122
1126.775345	667.7999878
1127.333168	668.5999756
1127.890935	664.7999878
1128.448644	665.0
1129.006297	668.2000122
1129.563892	665.4000244
1130.12143	666.2000122
1130.678911	668.7999878
1131.236335	667.2000122
1131.793701	665.4000244
1132.351011	666.7999878
1132.908263	669.5999756
1133.465458	667.5999756
1134.022597	666.0
1134.579678	666.7999878
1135.136702	664.4000244
1135.693669	666.7999878
1136.250578	667.5999756
1136.807431	666.5999756
1137.364227	665.7999878
1137.920965	667.4000244
1138.477647	666.7999878
1139.034271	664.7999878
1139.590839	665.7999878
1140.147349	666.7999878
1140.703802	666.7999878
1141.260198	668.5999756
1141.816537	664.5999756
1142.37282	668.2000122
1142.929045	666.0
1143.485213	667.0
1144.041323	667.2000122
1144.597377	665.4000244
1145.153374	665.2000122
1145.709314	663.7999878
1146.265197	668.5999756
1146.821023	667.0
1147.376792	666.0
1147.932503	666.2000122
1148.488158	667.2000122
1149.043756	665.7999878
1149.599297	668.5999756
1150.154781	665.5999756
1150.710207	664.0
1151.265577	665.5999756
1151.82089	668.7999878
1152.376146	663.4000244
1152.931345	666.0
1153.486487	665.0
1154.041572	667.5999756
1154.5966	668.5999756
1155.151571	667.2000122
1155.706485	665.2000122
1156.261342	667.5999756
1156.816142	665.2000122
1157.370885	666.2000122
1157.925572	666.0
1158.480201	668.4000244
1159.034774	668.2000122
1159.589289	668.4000244
1160.143748	668.2000122
1160.698149	664.7999878
1161.252494	665.0
1161.806782	668.0
1162.361013	666.2000122
1162.915187	667.2000122
1163.469304	668.5999756
1164.023364	664.5999756
1164.577368	664.4000244
1165.131314	665.4000244
1165.685204	666.2000122
1166.239036	666.2000122
1166.792812	668.2000122
1167.346531	666.4000244
1167.900193	667.7999878
1168.453798	666.2000122
1169.007347	667.2000122
1169.560838	665.5999756
1170.114273	667.7999878
1170.66765	667.7999878
1171.220971	666.5999756
1171.774235	665.2000122
1172.327443	666.7999878
1172.880593	667.4000244
1173.433687	666.4000244
1173.986723	666.2000122
1174.539703	665.5999756
1175.092626	664.2000122
1175.645493	665.2000122
1176.198302	666.7999878
1176.751055	669.2000122
1177.303751	668.7999878
1177.85639	666.5999756
1178.408972	664.0
1178.961498	666.0
1179.513966	667.2000122
1180.066378	667.0
1180.618733	665.7999878
1181.171032	665.4000244
1181.723273	664.4000244
1182.275458	665.4000244
1182.827586	668.2000122
1183.379657	667.7999878
1183.931672	665.0
1184.48363	666.0
1185.035531	671.2000122
1185.587375	662.0
1186.139162	667.2000122
1186.690893	666.2000122
1187.242567	665.0
1187.794184	667.5999756
1188.345745	666.0
1188.897249	665.5999756
1189.448696	667.5999756
1190.000086	668.7999878
1190.55142	668.7999878
1191.102697	664.5999756
1191.653918	664.4000244
1192.205081	665.0
1192.756188	666.7999878
1193.307238	681.5999756
1193.858232	666.5999756
1194.409169	664.5999756
1194.960049	665.7999878
1195.510872	666.2000122
1196.061639	664.5999756
1196.612349	666.5999756
1197.163003	666.7999878
1197.713599	665.2000122
1198.264139	667.0
1198.814623	667.2000122
1199.36505	666.0
1199.91542	666.5999756
1200.465734	664.5999756
1201.01599	668.7999878
1201.566191	665.5999756
1202.116334	666.7999878
1202.666421	668.5999756
1203.216452	665.5999756
1203.766425	668.2000122
1204.316343	667.0
1204.866203	664.5999756
1205.416007	667.0
1205.965754	668.0
1206.515445	666.5999756
1207.065079	665.2000122
1207.614657	665.5999756
1208.164177	664.0
1208.713642	666.5999756
1209.26305	665.4000244
1209.812401	665.4000244
1210.361695	669.5999756
1210.910933	664.7999878
1211.460115	666.7999878
1212.00924	668.0
1212.558308	665.7999878
1213.10732	667.7999878
1213.656275	668.0
1214.205174	667.2000122
1214.754016	668.5999756
1215.302801	666.2000122
1215.85153	666.2000122
1216.400203	667.4000244
1216.948819	666.7999878
1217.497378	668.0
1218.045881	662.7999878
1218.594327	665.0
1219.142717	668.0
1219.691051	667.2000122
1220.239327	665.7999878
1220.787548	668.5999756
1221.335712	667.0
1221.883819	666.0
1222.43187	667.2000122
1222.979864	667.2000122
1223.527802	665.7999878
1224.075683	668.4000244
1224.623508	666.0
1225.171277	667.0
1225.718989	666.7999878
1226.266644	668.0
1226.814243	665.4000244
1227.361786	667.5999756
1227.909272	668.7999878
1228.456702	669.2000122
1229.004075	667.0
1229.551392	665.2000122
1230.098652	665.5999756
1230.645856	666.4000244
1231.193003	665.2000122
1231.740094	666.7999878
1232.287129	669.2000122
1232.834107	666.0
1233.381029	665.4000244
1233.927894	666.5999756
1234.474703	668.2000122
1235.021455	666.2000122
1235.568151	665.4000244
1236.114791	667.7999878
1236.661374	667.7999878
1237.207901	669.2000122
1237.754372	664.7999878
1238.300786	667.5999756
1238.847144	667.0
1239.393445	666.2000122
1239.93969	666.0
1240.485879	668.2000122
1241.032011	665.7999878
1241.578087	667.7999878
1242.124106	667.7999878
1242.67007	670.2000122
1243.215976	668.2000122
1243.761827	669.4000244
1244.307621	665.4000244
1244.853359	667.0
1245.39904	667.2000122
1245.944665	668.5999756
1246.490234	668.0
1247.035746	668.5999756
1247.581203	670.2000122
1248.126602	668.7999878
1248.671946	669.7999878
1249.217233	670.2000122
1249.762464	669.7999878
1250.307638	667.7999878
1250.852757	667.2000122
1251.397819	666.7999878
1251.942824	668.0
1252.487774	666.4000244
1253.032667	668.5999756
1253.577503	669.7999878
1254.122284	668.4000244
1254.667008	666.0
1255.211676	669.5999756
1255.756288	669.5999756
1256.300843	669.2000122
1256.845342	666.2000122
1257.389785	668.5999756
1257.934172	668.2000122
1258.478502	669.7999878
1259.022776	673.0
1259.566994	670.4000244
1260.111156	679.7999878
1260.655261	671.5999756
1261.199311	670.7999878
1261.743304	671.4000244
1262.28724	672.4000244
1262.831121	677.0
1263.374945	676.7999878
1263.918713	680.0
1264.462425	683.7999878
1265.006081	684.4000244
1265.54968	684.4000244
1266.093223	675.4000244
1266.636711	674.7999878
1267.180141	672.0
1267.723516	672.0
1268.266835	672.2000122
1268.810097	669.7999878
1269.353303	673.0
1269.896453	669.4000244
1270.439547	669.2000122
1270.982584	670.2000122
1271.525566	668.5999756
1272.068491	666.7999878
1272.61136	671.4000244
1273.154173	669.4000244
1273.69693	668.2000122
1274.239631	669.2000122
1274.782275	672.5999756
1275.324864	668.7999878
1275.867396	671.4000244
1276.409872	669.0
1276.952292	670.7999878
1277.494656	672.0
1278.036964	672.2000122
1278.579215	671.4000244
1279.121411	670.5999756
1279.66355	672.4000244
1280.205634	675.0
1280.747661	678.0
1281.289632	679.5999756
1281.831547	689.4000244
1282.373406	707.2000122
1282.915209	734.5999756
1283.456955	779.4000244
1283.998646	828.4000244
1284.540281	847.4000244
1285.081859	841.7999878
1285.623381	780.7999878
1286.164848	723.4000244
1286.706258	690.2000122
1287.247612	680.0
1287.788911	676.4000244
1288.330153	677.7999878
1288.871339	675.5999756
1289.412469	672.4000244
1289.953543	671.5999756
1290.494561	670.4000244
1291.035523	670.5999756
1291.576428	672.0
1292.117278	670.4000244
1292.658072	671.0
1293.19881	672.2000122
1293.739492	669.2000122
1294.280118	669.4000244
1294.820687	668.7999878
1295.361201	672.5999756
1295.901659	670.0
1296.442061	666.7999878
1296.982406	669.7999878
1297.522696	668.5999756
1298.06293	667.5999756
1298.603108	668.5999756
1299.143229	666.5999756
1299.683295	670.5999756
1300.223305	670.4000244
1300.763259	670.7999878
1301.303157	667.0
1301.842999	666.4000244
1302.382785	666.2000122
1302.922515	667.5999756
1303.462189	667.0
1304.001807	671.2000122
1304.541369	668.4000244
1305.080875	668.0
1305.620326	667.5999756
1306.15972	666.5999756
1306.699058	672.4000244
1307.238341	668.2000122
1307.777567	668.7999878
1308.316738	668.5999756
1308.855853	667.4000244
1309.394912	666.5999756
1309.933915	670.4000244
1310.472862	669.7999878
1311.011753	667.0
1311.550588	670.2000122
1312.089367	669.7999878
1312.62809	670.0
1313.166758	668.2000122
1313.70537	667.2000122
1314.243925	665.5999756
1314.782425	667.0
1315.320869	667.5999756
1315.859257	668.7999878
1316.397589	667.7999878
1316.935866	668.4000244
1317.474086	668.5999756
1318.012251	669.7999878
1318.55036	667.7999878
1319.088413	667.0
1319.62641	669.2000122
1320.164351	668.7999878
1320.702236	666.7999878
1321.240066	667.5999756
1321.777839	668.2000122
1322.315557	668.2000122
1322.853219	666.4000244
1323.390826	666.2000122
1323.928376	673.2000122
1324.465871	666.5999756
1325.003309	665.2000122
1325.540692	667.4000244
1326.07802	668.4000244
1326.615291	667.2000122
1327.152506	666.7999878
1327.689666	666.7999878
1328.22677	668.5999756
1328.763818	664.7999878
1329.300811	666.2000122
1329.837747	669.4000244
1330.374628	668.4000244
1330.911453	665.2000122
1331.448222	667.5999756
1331.984936	668.4000244
1332.521594	667.2000122
1333.058196	666.5999756
1333.594742	668.5999756
1334.131232	668.5999756
1334.667667	667.5999756
1335.204046	667.7999878
1335.740369	665.2000122
1336.276637	669.0
1336.812848	664.7999878
1337.349004	667.5999756
1337.885105	666.4000244
1338.421149	666.0
1338.957138	667.0
1339.493071	666.0
1340.028949	666.2000122
1340.56477	668.0
1341.100536	667.0
1341.636246	667.0
1342.171901	669.7999878
1342.7075	668.4000244
1343.243043	668.2000122
1343.77853	670.5999756
1344.313962	667.2000122
1344.849338	668.0
1345.384659	668.2000122
1345.919923	667.0
1346.455133	668.5999756
1346.990286	667.0
1347.525384	667.4000244
1348.060426	667.0
1348.595412	666.2000122
1349.130343	669.2000122
1349.665218	663.2000122
1350.200037	668.0
1350.734801	668.2000122
1351.269509	666.4000244
1351.804162	668.7999878
1352.338758	667.7999878
1352.8733	668.7999878
1353.407785	667.0
1353.942215	669.5999756
1354.476589	668.2000122
1355.010908	666.4000244
1355.545171	669.7999878
1356.079379	665.0
1356.61353	672.4000244
1357.147627	665.5999756
1357.681667	667.5999756
1358.215652	668.7999878
1358.749582	669.0
1359.283456	670.7999878
1359.817274	665.5999756
1360.351037	670.5999756
1360.884744	669.5999756
1361.418395	665.4000244
1361.951991	669.0
1362.485531	666.4000244
1363.019016	670.2000122
1363.552445	669.5999756
1364.085819	668.5999756
1364.619137	669.0
1365.1524	670.2000122
1365.685607	669.5999756
1366.218758	667.0
1366.751854	670.0
1367.284894	670.2000122
1367.817879	665.0
1368.350808	671.2000122
1368.883682	673.2000122
1369.4165	674.2000122
1369.949263	678.2000122
1370.48197	677.4000244
1371.014622	672.5999756
1371.547218	670.7999878
1372.079758	666.0
1372.612244	670.4000244
1373.144673	669.2000122
1373.677047	668.7999878
1374.209366	667.4000244
1374.741629	671.2000122
1375.273836	668.5999756
1375.805989	670.7999878
1376.338085	668.7999878
1376.870126	669.7999878
1377.402112	670.4000244
1377.934042	669.5999756
1378.465917	671.2000122
1378.997736	669.5999756
1379.5295	674.2000122
1380.061208	671.4000244
1380.592861	672.5999756
1381.124459	672.4000244
1381.656	670.7999878
1382.187487	673.4000244
1382.718918	672.4000244
1383.250294	672.5999756
1383.781614	675.7999878
1384.312879	678.4000244
1384.844088	684.5999756
1385.375242	689.4000244
1385.90634	693.2000122
1386.437383	722.7999878
1386.968371	771.5999756
1387.499303	894.0
1388.03018	1042.599976
1388.561001	1061.599976
1389.091767	890.2000122
1389.622478	743.4000244
1390.153133	701.2000122
1390.683733	686.5999756
1391.214277	680.4000244
1391.744766	680.4000244
1392.2752	676.2000122
1392.805578	674.2000122
1393.335901	673.0
1393.866168	676.5999756
1394.396381	673.5999756
1394.926537	672.0
1395.456639	672.4000244
1395.986685	674.0
1396.516675	670.2000122
1397.046611	673.2000122
1397.576491	671.2000122
1398.106315	670.2000122
1398.636084	670.2000122
1399.165798	676.4000244
1399.695457	669.0
1400.22506	672.2000122
1400.754608	669.5999756
1401.284101	670.0
1401.813538	674.0
1402.34292	670.4000244
1402.872247	667.4000244
1403.401518	670.7999878
1403.930734	673.0
1404.459895	672.5999756
1404.989	672.0
1405.51805	671.4000244
1406.047045	673.4000244
1406.575984	672.4000244
1407.104869	674.7999878
1407.633697	675.0
1408.162471	675.7999878
1408.691189	683.7999878
1409.219852	689.4000244
1409.74846	699.7999878
1410.277013	696.0
1410.80551	685.0
1411.333952	679.5999756
1411.862339	674.0
1412.39067	671.0
1412.918946	668.7999878
1413.447167	669.0
1413.975333	667.7999878
1414.503444	670.0
1415.031499	668.7999878
1415.559499	675.7999878
1416.087444	668.4000244
1416.615333	667.4000244
1417.143167	668.5999756
1417.670947	665.5999756
1418.19867	669.4000244
1418.726339	670.5999756
1419.253952	667.2000122
1419.781511	668.5999756
1420.309014	668.0
1420.836461	669.4000244
1421.363854	667.7999878
1421.891191	668.2000122
1422.418474	665.0
1422.945701	663.4000244
1423.472872	667.4000244
1423.999989	665.4000244
1424.52705	668.0
1425.054057	669.2000122
1425.581008	670.0
1426.107904	669.2000122
1426.634745	669.4000244
1427.16153	667.7999878
1427.688261	668.5999756
1428.214936	665.7999878
1428.741556	666.4000244
1429.268121	668.4000244
1429.794631	666.7999878
1430.321085	669.0
1430.847485	665.7999878
1431.373829	666.7999878
1431.900118	667.5999756
1432.426353	666.2000122
1432.952532	666.7999878
1433.478655	668.0
1434.004724	668.2000122
1434.530738	663.0
1435.056696	667.4000244
1435.5826	667.5999756
1436.108448	665.7999878
1436.634241	668.5999756
1437.159979	666.5999756
1437.685662	666.0
1438.21129	667.0
1438.736863	667.2000122
1439.262381	667.2000122
1439.787843	666.5999756
1440.313251	667.7999878
1440.838603	668.2000122
1441.3639	668.4000244
1441.889143	666.0
1442.41433	665.7999878
1442.939462	669.0
1443.464539	667.0
1443.989561	667.7999878
1444.514528	668.0
1445.03944	666.5999756
1445.564297	664.7999878
1446.089099	667.5999756
1446.613846	666.4000244
1447.138537	666.0
1447.663174	666.2000122
1448.187756	666.2000122
1448.712282	666.7999878
1449.236754	665.2000122
1449.761171	661.4000244
1450.285532	662.0
1450.809839	665.4000244
1451.33409	667.4000244
1451.858287	666.7999878
1452.382428	664.2000122
1452.906515	664.5999756
1453.430546	666.0
1453.954523	666.2000122
1454.478444	666.0
1455.002311	665.5999756
1455.526123	665.5999756
1456.049879	666.5999756
1456.573581	665.5999756
1457.097227	669.2000122
1457.620819	665.5999756
1458.144356	667.0
1458.667837	666.2000122
1459.191264	664.0
1459.714636	666.4000244
1460.237952	666.0
1460.761214	667.0
1461.284421	666.4000244
1461.807573	667.2000122
1462.33067	665.0
1462.853712	667.4000244
1463.376699	670.4000244
1463.899632	667.7999878
1464.422509	667.2000122
1464.945331	666.7999878
1465.468099	665.4000244
1465.990811	667.4000244
1466.513469	672.2000122
1468.081112	666.4000244
1468.60355	665.0
1469.125933	667.4000244
1469.648261	666.2000122
1470.170534	667.7999878
1470.692752	666.7999878
1471.214916	664.5999756
1471.737024	666.0
1472.259078	663.7999878
1472.781077	663.5999756
1473.303021	664.2000122
1473.82491	665.0
1474.346744	662.4000244
1474.868523	665.4000244
1475.390248	666.2000122
1475.911917	666.2000122
1476.433532	664.0
1476.955092	664.7999878
1477.476597	665.2000122
1477.998047	670.7999878
1478.519442	665.5999756
1479.040783	666.7999878
1479.562068	665.5999756
1480.083299	666.2000122
1480.604475	665.0
1481.125596	664.2000122
1481.646663	665.4000244
1482.167674	665.5999756
1482.688631	665.4000244
1483.209533	665.7999878
1483.73038	664.0
1484.251172	665.0
1484.771909	664.5999756
1485.292592	663.7999878
1485.81322	664.0
1486.333793	664.7999878
1486.854311	664.0
1487.374775	665.2000122
1487.895183	665.5999756
1488.415537	665.0
1488.935836	665.0
1489.456081	665.0
1489.97627	666.0
1490.496405	666.0
1491.016485	664.7999878
1491.536511	664.5999756
1492.056481	663.0
1492.576397	663.0
1493.096258	664.7999878
1493.616064	662.2000122
1494.135816	664.4000244
1494.655513	667.0
1495.175155	664.7999878
1495.694742	664.5999756
1496.214274	665.2000122
1496.733752	668.7999878
1497.253175	665.5999756
1497.772544	664.7999878
1498.291858	665.5999756
1498.811116	665.0
1499.330321	663.5999756
1499.84947	668.7999878
1500.368565	665.2000122
1500.887605	664.2000122
1501.406591	665.2000122
1501.925521	666.5999756
1502.444397	666.2000122
1502.963219	667.4000244
1503.481985	666.4000244
1504.000697	666.2000122
1504.519355	664.2000122
1505.037957	664.0
1505.556505	664.5999756
1506.074999	665.0
1506.593437	665.2000122
1507.111821	665.0
1507.63015	663.5999756
1508.148425	664.7999878
1508.666645	664.4000244
1509.18481	666.4000244
1509.702921	664.4000244
1510.220977	663.2000122
1510.738979	674.0
1511.256925	667.5999756
1511.774817	663.5999756
1512.292655	665.4000244
1512.810438	666.0
1513.328166	664.5999756
1513.84584	664.4000244
1514.363459	666.0
1514.881023	663.5999756
1515.398533	667.4000244
1515.915988	664.7999878
1516.433389	664.0
1516.950734	665.5999756
1517.468026	666.0
1517.985263	662.0
1518.502445	664.5999756
1519.019572	666.7999878
1519.536645	663.0
1520.053664	663.2000122
1520.570628	663.2000122
1521.087537	663.5999756
1521.604392	666.4000244
1522.121192	663.4000244
1522.637937	664.0
1523.154628	665.0
1523.671265	665.0
1524.187847	667.4000244
1524.704374	666.5999756
1525.220847	662.5999756
1525.737265	668.4000244
1526.253629	668.7999878
1526.769938	668.5999756
1527.286192	666.4000244
1527.802392	663.7999878
1528.318538	666.2000122
1528.834629	664.7999878
1529.350666	660.7999878
1529.866648	666.0
1530.382575	664.0
1530.898448	665.2000122
1531.414266	662.7999878
1531.93003	662.4000244
1532.44574	664.4000244
1532.961395	667.4000244
1533.476995	663.0
1533.992541	663.7999878
1534.508033	663.7999878
1535.02347	667.2000122
1535.538852	668.2000122
1536.05418	664.5999756
1536.569454	667.4000244
1537.084673	665.4000244
1537.599837	664.0
1538.114947	665.2000122
1538.630003	666.7999878
1539.145004	663.5999756
1539.659951	665.5999756
1540.174843	666.7999878
1540.689681	663.0
1541.204465	663.4000244
1541.719194	665.0
1542.233868	667.5999756
1542.748488	663.5999756
1543.263054	666.2000122
1543.777565	664.5999756
1544.292022	663.7999878
1544.806424	664.4000244
1545.320772	667.0
1545.835066	668.2000122
1546.349305	661.5999756
1546.863489	665.4000244
1547.37762	663.0
1547.891696	663.5999756
1548.405717	662.2000122
1548.919684	668.0
1549.433597	664.4000244
1549.947455	664.2000122
1550.461259	666.4000244
1550.975009	665.0
1551.488704	665.0
1552.002345	664.5999756
1552.515931	664.5999756
1553.029463	662.4000244
1553.542941	663.5999756
1554.056364	666.5999756
1554.569733	664.2000122
1555.083048	664.4000244
1555.596308	667.5999756
1556.109514	664.0
1556.622665	663.7999878
1557.135762	665.5999756
1557.648805	662.7999878
1558.161794	665.7999878
1558.674728	667.7999878
1559.187608	666.5999756
1559.700433	663.5999756
1560.213205	665.2000122
1560.725921	665.4000244
1561.238584	665.4000244
1561.751192	666.4000244
1562.263746	666.7999878
1562.776246	665.4000244
1563.288691	664.7999878
1563.801082	663.7999878
1564.313419	666.0
1564.825701	667.0
1565.337929	665.2000122
1565.850103	666.0
1566.362223	664.7999878
1566.874288	665.4000244
1567.386299	665.2000122
1567.898256	666.4000244
1568.410158	669.4000244
1568.922007	665.2000122
1569.4338	665.2000122
1569.94554	665.5999756
1570.457226	665.5999756
1570.968857	666.4000244
1571.480434	665.0
1571.991956	663.2000122
1572.503425	666.5999756
1573.014839	663.2000122
1573.526199	666.4000244
1574.037505	664.4000244
1574.548756	667.4000244
1575.059953	665.7999878
1575.571096	665.0
1576.082185	666.2000122
1576.59322	665.0
1577.1042	664.4000244
1577.615126	661.0
1578.125998	664.7999878
1578.636816	665.5999756
1579.14758	665.2000122
1579.658289	662.7999878
1580.168944	663.7999878
1580.679545	663.2000122
1581.190092	665.2000122
1581.700585	664.7999878
1582.211023	664.4000244
1582.721407	665.5999756
1583.231737	665.7999878
1583.742013	663.0
1584.252235	663.4000244
1584.762403	662.5999756
1585.272516	666.4000244
1585.782575	664.5999756
1586.292581	663.5999756
1586.802532	663.5999756
1587.312428	660.7999878
1587.822271	665.7999878
1588.33206	661.4000244
1588.841794	666.0
1589.351474	668.7999878
1589.8611	662.7999878
1590.370672	663.2000122
1590.88019	664.7999878
1591.389654	663.5999756
1591.899064	667.4000244
1592.408419	666.2000122
