1042.452273	690.0
1043.018714	687.0
1043.585098	687.2000122
1044.151424	684.7999878
1044.717692	684.7999878
1045.283903	686.0
1045.850056	683.5999756
1046.416151	681.5999756
1046.982188	684.2000122
1047.548167	679.7999878
1048.114089	682.5999756
1048.679953	678.0
1049.24576	680.2000122
1049.811509	679.7999878
1050.3772	680.7999878
1050.942833	680.2000122
1051.508408	676.0
1052.073926	677.4000244
1052.639387	674.0
1053.204789	681.2000122
1053.770134	680.0
1054.335421	677.4000244
1054.900651	678.4000244
1055.465823	679.5999756
1056.030937	674.2000122
1056.595993	674.5999756
1057.160992	678.4000244
1057.725934	678.4000244
1058.290817	675.5999756
1058.855643	675.4000244
1059.420411	674.7999878
1059.985122	676.4000244
1060.549775	673.7999878
1061.114371	674.0
1061.678908	673.4000244
1062.243389	674.0
1062.807811	675.7999878
1063.372176	676.5999756
1063.936483	674.4000244
1064.500733	675.0
1065.064925	673.0
1065.62906	674.7999878
1066.193137	674.2000122
1066.757156	673.7999878
1067.321118	671.2000122
1067.885022	670.7999878
1068.448869	671.5999756
1069.012658	675.5999756
1069.57639	674.4000244
1070.140063	681.5999756
1070.70368	672.2000122
1071.267239	674.7999878
1071.83074	673.7999878
1072.394184	673.4000244
1072.95757	674.7999878
1073.520899	672.5999756
1074.08417	672.7999878
1074.647383	674.2000122
1075.21054	673.7999878
1075.773638	674.0
1076.336679	672.2000122
1076.899663	670.7999878
1077.462589	671.0
1078.025457	672.0
1078.588268	670.5999756
1079.151022	672.7999878
1079.713718	670.5999756
1080.276356	672.7999878
1080.838937	673.4000244
1081.401461	672.7999878
1081.963927	673.4000244
1082.526336	675.0
1083.088687	671.7999878
1083.650981	677.5999756
1084.213217	668.7999878
1084.775396	677.0
1085.337517	673.5999756
1085.899581	673.0
1086.461587	675.7999878
1087.023536	673.5999756
1087.585428	675.2000122
1088.147262	675.0
1088.709039	673.7999878
1089.270758	678.4000244
1089.83242	679.0
1090.394024	675.2000122
1090.955571	675.5999756
1091.517061	677.7999878
1092.078493	674.2000122
1092.639868	679.2000122
1093.201185	677.4000244
1093.762445	678.0
1094.323648	674.2000122
1094.884793	678.0
1095.445881	692.2000122
1096.006911	675.7999878
1096.567884	674.5999756
1097.1288	683.0
1097.689659	675.0
1098.25046	674.4000244
1098.811203	675.2000122
1099.37189	674.2000122
1099.932518	672.0
1100.49309	670.5999756
1101.053604	674.7999878
1101.614061	673.7999878
1102.174461	671.7999878
1102.734803	670.4000244
1103.295088	675.5999756
1103.855316	671.5999756
1104.415486	672.4000244
1104.975599	667.7999878
1105.535655	670.5999756
1106.095653	671.2000122
1106.655594	671.4000244
1107.215478	674.2000122
1107.775305	671.4000244
1108.335074	674.5999756
1108.894786	672.0
1109.45444	674.0
1110.014038	672.2000122
1110.573578	671.5999756
1111.133061	671.4000244
1111.692486	671.7999878
1112.251854	675.4000244
1112.811165	672.2000122
1113.370419	672.0
1113.929616	669.5999756
1114.488755	669.7999878
1115.047837	668.4000244
1115.606862	667.7999878
1116.16583	674.0
1116.72474	670.4000244
1117.283593	672.2000122
1117.842389	669.5999756
1118.401128	670.7999878
1118.959809	669.2000122
1119.518433	669.4000244
1120.077	667.5999756
1120.63551	670.2000122
1121.193963	669.5999756
1121.752358	674.2000122
1122.310697	668.7999878
1122.868978	669.7999878
1123.427202	668.2000122
1123.985368	669.4000244
1124.543478	668.7999878
1125.10153	669.4000244
1125.659526	671.4000244
1126.217464	670.0
1126.775345	671.4000244
1127.333168	669.0
1127.890935	670.5999756
1128.448644	672.0
1129.006297	672.7999878
1129.563892	668.4000244
1130.12143	669.5999756
1130.678911	668.0
1131.236335	671.7999878
1131.793701	672.4000244
1132.351011	668.4000244
1132.908263	665.7999878
1133.465458	673.4000244
1134.022597	669.0
1134.579678	670.5999756
1135.136702	669.0
1135.693669	668.4000244
1136.250578	666.7999878
1136.807431	669.2000122
1137.364227	668.7999878
1137.920965	669.5999756
1138.477647	670.5999756
1139.034271	669.5999756
1139.590839	668.0
1140.147349	669.5999756
1140.703802	669.2000122
1141.260198	670.7999878
1141.816537	671.0
1142.37282	672.5999756
1142.929045	670.4000244
1143.485213	669.2000122
1144.041323	671.0
1144.597377	670.7999878
1145.153374	670.7999878
1145.709314	671.2000122
1146.265197	672.0
1146.821023	670.4000244
1147.376792	670.2000122
1147.932503	670.0
1148.488158	670.7999878
1149.043756	669.7999878
1149.599297	670.0
1150.154781	669.4000244
1150.710207	673.4000244
1151.265577	671.2000122
1151.82089	670.7999878
1152.376146	669.2000122
1152.931345	670.0
1153.486487	669.5999756
1154.041572	670.4000244
1154.5966	667.0
1155.151571	668.7999878
1155.706485	669.4000244
1156.261342	671.2000122
1156.816142	668.5999756
1157.370885	669.7999878
1157.925572	670.4000244
1158.480201	667.2000122
1159.034774	667.7999878
1159.589289	669.7999878
1160.143748	667.5999756
1160.698149	670.2000122
1161.252494	668.7999878
1161.806782	666.7999878
1162.361013	669.2000122
1162.915187	669.5999756
1163.469304	669.7999878
1164.023364	672.5999756
1164.577368	667.4000244
1165.131314	667.4000244
1165.685204	668.0
1166.239036	668.2000122
1166.792812	667.7999878
1167.346531	669.4000244
1167.900193	670.4000244
1168.453798	670.0
1169.007347	669.4000244
1169.560838	671.4000244
1170.114273	671.0
1170.66765	668.0
1171.220971	666.4000244
1171.774235	668.5999756
1172.327443	666.5999756
1172.880593	668.2000122
1173.433687	669.0
1173.986723	668.0
1174.539703	668.7999878
1175.092626	669.4000244
1175.645493	665.7999878
1176.198302	668.5999756
1176.751055	667.5999756
1177.303751	668.4000244
1177.85639	665.7999878
1178.408972	668.0
1178.961498	669.0
1179.513966	670.0
1180.066378	668.0
1180.618733	670.2000122
1181.171032	668.2000122
1181.723273	671.0
1182.275458	668.7999878
1182.827586	670.0
1183.379657	670.0
1183.931672	668.5999756
1184.48363	671.7999878
1185.035531	668.2000122
1185.587375	669.0
1186.139162	668.5999756
1186.690893	672.0
1187.242567	667.7999878
1187.794184	669.7999878
1188.345745	668.5999756
1188.897249	671.4000244
1189.448696	666.4000244
1190.000086	670.5999756
1190.55142	670.5999756
1191.102697	668.7999878
1191.653918	669.0
1192.205081	668.2000122
1192.756188	667.7999878
1193.307238	690.7999878
1193.858232	669.5999756
1194.409169	666.7999878
1194.960049	669.2000122
1195.510872	668.7999878
1196.061639	668.0
1196.612349	671.5999756
1197.163003	666.7999878
1197.713599	668.2000122
1198.264139	672.0
1198.814623	665.7999878
1199.36505	668.4000244
1199.91542	667.0
1200.465734	666.4000244
1201.01599	668.2000122
1201.566191	670.7999878
1202.116334	670.5999756
1202.666421	669.2000122
1203.216452	667.2000122
1203.766425	667.4000244
1204.316343	669.2000122
1204.866203	666.4000244
1205.416007	668.2000122
1205.965754	668.2000122
1206.515445	669.4000244
1207.065079	669.2000122
1207.614657	668.7999878
1208.164177	666.4000244
1208.713642	668.0
1209.26305	667.0
1209.812401	668.4000244
1210.361695	668.5999756
1210.910933	668.2000122
1211.460115	668.4000244
1212.00924	669.0
1212.558308	666.5999756
1213.10732	666.4000244
1213.656275	667.0
1214.205174	669.5999756
1214.754016	668.4000244
1215.302801	672.0
1215.85153	666.5999756
1216.400203	670.2000122
1216.948819	668.4000244
1217.497378	669.0
1218.045881	668.2000122
1218.594327	667.0
1219.142717	669.7999878
1219.691051	669.5999756
1220.239327	670.2000122
1220.787548	667.4000244
1221.335712	668.4000244
1221.883819	669.5999756
1222.43187	666.5999756
1222.979864	670.5999756
1223.527802	669.0
1224.075683	669.0
1224.623508	667.4000244
1225.171277	664.7999878
1225.718989	672.2000122
1226.266644	670.2000122
1226.814243	668.5999756
1227.361786	673.5999756
1227.909272	668.7999878
1228.456702	669.7999878
1229.004075	667.7999878
1229.551392	669.7999878
1230.098652	668.5999756
1230.645856	669.5999756
1231.193003	671.4000244
1231.740094	673.0
1232.287129	667.2000122
1232.834107	668.7999878
1233.381029	669.4000244
1233.927894	667.2000122
1234.474703	668.5999756
1235.021455	671.5999756
1235.568151	667.7999878
1236.114791	671.0
1236.661374	670.5999756
1237.207901	669.4000244
1237.754372	669.7999878
1238.300786	669.0
1238.847144	669.2000122
1239.393445	667.7999878
1239.93969	668.0
1240.485879	670.7999878
1241.032011	668.4000244
1241.578087	668.2000122
1242.124106	669.2000122
1242.67007	669.4000244
1243.215976	670.0
1243.761827	671.7999878
1244.307621	669.4000244
1244.853359	671.0
1245.39904	671.0
1245.944665	669.5999756
1246.490234	672.0
1247.035746	672.0
1247.581203	669.5999756
1248.126602	667.2000122
1248.671946	672.7999878
1249.217233	667.2000122
1249.762464	669.5999756
1250.307638	670.0
1250.852757	671.5999756
1251.397819	669.0
1251.942824	669.7999878
1252.487774	668.7999878
1253.032667	671.5999756
1253.577503	669.5999756
1254.122284	668.2000122
1254.667008	667.7999878
1255.211676	670.4000244
1255.756288	668.5999756
1256.300843	671.2000122
1256.845342	669.4000244
1257.389785	671.0
1257.934172	669.4000244
1258.478502	673.4000244
1259.022776	674.2000122
1259.566994	670.5999756
1260.111156	686.7999878
1260.655261	668.7999878
1261.199311	670.7999878
1261.743304	673.2000122
1262.28724	672.5999756
1262.831121	675.7999878
1263.374945	679.4000244
1263.918713	685.0
1264.462425	685.5999756
1265.006081	682.5999756
1265.54968	681.5999756
1266.093223	675.2000122
1266.636711	676.4000244
1267.180141	671.2000122
1267.723516	673.4000244
1268.266835	673.7999878
1268.810097	669.0
1269.353303	675.0
1269.896453	672.7999878
1270.439547	671.0
1270.982584	670.4000244
1271.525566	670.0
1272.068491	675.4000244
1272.61136	671.2000122
1273.154173	671.5999756
1273.69693	671.2000122
1274.239631	670.2000122
1274.782275	670.7999878
1275.324864	673.0
1275.867396	672.5999756
1276.409872	671.4000244
1276.952292	670.2000122
1277.494656	672.4000244
1278.036964	670.4000244
1278.579215	671.7999878
1279.121411	670.2000122
1279.66355	672.4000244
1280.205634	674.7999878
1280.747661	676.4000244
1281.289632	677.7999878
1281.831547	681.4000244
1282.373406	690.7999878
1282.915209	709.2000122
1283.456955	740.0
1283.998646	811.5999756
1284.540281	899.5999756
1285.081859	901.4000244
1285.623381	795.2000122
1286.164848	719.7999878
1286.706258	693.4000244
1287.247612	681.0
1287.788911	676.5999756
1288.330153	676.5999756
1288.871339	673.0
1289.412469	675.5999756
1289.953543	673.5999756
1290.494561	670.2000122
1291.035523	672.4000244
1291.576428	672.5999756
1292.117278	673.5999756
1292.658072	671.2000122
1293.19881	669.7999878
1293.739492	672.5999756
1294.280118	668.5999756
1294.820687	671.0
1295.361201	666.0
1295.901659	672.4000244
1296.442061	671.2000122
1296.982406	671.0
1297.522696	670.7999878
1298.06293	673.2000122
1298.603108	666.7999878
1299.143229	671.0
1299.683295	667.5999756
1300.223305	670.4000244
1300.763259	669.5999756
1301.303157	671.0
1301.842999	666.0
1302.382785	673.0
1302.922515	671.5999756
1303.462189	672.2000122
1304.001807	670.4000244
1304.541369	669.2000122
1305.080875	671.5999756
1305.620326	672.5999756
1306.15972	671.5999756
1306.699058	668.2000122
1307.238341	668.7999878
1307.777567	670.0
1308.316738	669.5999756
1308.855853	672.0
1309.394912	669.4000244
1309.933915	669.4000244
1310.472862	667.0
1311.011753	669.0
1311.550588	667.2000122
1312.089367	667.0
1312.62809	666.0
1313.166758	669.0
1313.70537	668.5999756
1314.243925	670.7999878
1314.782425	669.0
1315.320869	670.5999756
1315.859257	669.5999756
1316.397589	665.5999756
1316.935866	669.2000122
1317.474086	666.2000122
1318.012251	666.2000122
1318.55036	671.0
1319.088413	667.5999756
1319.62641	670.4000244
1320.164351	669.7999878
1320.702236	671.7999878
1321.240066	668.4000244
1321.777839	667.4000244
1322.315557	668.0
1322.853219	668.4000244
1323.390826	669.5999756
1323.928376	671.4000244
1324.465871	670.4000244
1325.003309	669.2000122
1325.540692	672.4000244
1326.07802	672.0
1326.615291	666.0
1327.152506	668.7999878
1327.689666	668.2000122
1328.22677	669.5999756
1328.763818	669.0
1329.300811	667.5999756
1329.837747	668.7999878
1330.374628	667.5999756
1330.911453	668.7999878
1331.448222	668.4000244
1331.984936	668.2000122
1332.521594	670.2000122
1333.058196	667.2000122
1333.594742	668.2000122
1334.131232	668.7999878
1334.667667	668.2000122
1335.204046	669.0
1335.740369	666.2000122
1336.276637	668.4000244
1336.812848	669.2000122
1337.349004	668.4000244
1337.885105	667.2000122
1338.421149	669.4000244
1338.957138	669.0
1339.493071	669.7999878
1340.028949	670.0
1340.56477	671.0
1341.100536	668.5999756
1341.636246	669.4000244
1342.171901	669.0
1342.7075	669.5999756
1343.243043	668.5999756
1343.77853	668.4000244
1344.313962	669.7999878
1344.849338	668.4000244
1345.384659	667.2000122
1345.919923	670.7999878
1346.455133	671.5999756
1346.990286	670.0
1347.525384	669.4000244
1348.060426	669.4000244
1348.595412	669.2000122
1349.130343	668.4000244
1349.665218	667.5999756
1350.200037	666.5999756
1350.734801	669.5999756
1351.269509	668.4000244
1351.804162	669.5999756
1352.338758	669.2000122
1352.8733	671.0
1353.407785	666.7999878
1353.942215	668.5999756
1354.476589	670.7999878
1355.010908	670.7999878
1355.545171	670.5999756
1356.079379	669.2000122
1356.61353	670.0
1357.147627	671.0
1357.681667	668.4000244
1358.215652	669.0
1358.749582	671.5999756
1359.283456	669.5999756
1359.817274	672.2000122
1360.351037	668.7999878
1360.884744	671.5999756
1361.418395	666.5999756
1361.951991	672.2000122
1362.485531	669.5999756
1363.019016	671.7999878
1363.552445	671.4000244
1364.085819	670.2000122
1364.619137	670.5999756
1365.1524	672.2000122
1365.685607	672.5999756
1366.218758	671.0
1366.751854	670.5999756
1367.284894	670.2000122
1367.817879	668.0
1368.350808	670.4000244
1368.883682	672.7999878
1369.4165	671.7999878
1369.949263	675.7999878
1370.48197	679.2000122
1371.014622	675.2000122
1371.547218	671.0
1372.079758	670.0
1372.612244	670.7999878
1373.144673	671.7999878
1373.677047	669.7999878
1374.209366	671.7999878
1374.741629	673.0
1375.273836	672.2000122
1375.805989	672.0
1376.338085	674.2000122
1376.870126	673.5999756
1377.402112	669.0
1377.934042	672.5999756
1378.465917	670.2000122
1378.997736	672.4000244
1379.5295	670.5999756
1380.061208	672.4000244
1380.592861	672.5999756
1381.124459	673.5999756
1381.656	674.4000244
1382.187487	673.7999878
1382.718918	674.4000244
1383.250294	675.4000244
1383.781614	674.5999756
1384.312879	678.0
1384.844088	680.2000122
1385.375242	681.5999756
1385.90634	690.2000122
1386.437383	705.0
1386.968371	738.0
1387.499303	821.2000122
1388.03018	1055.599976
1388.561001	1143.599976
1389.091767	917.2000122
1389.622478	753.5999756
1390.153133	702.0
1390.683733	685.0
1391.214277	682.2000122
1391.744766	681.4000244
1392.2752	675.2000122
1392.805578	676.2000122
1393.335901	675.2000122
1393.866168	673.4000244
1394.396381	674.5999756
1394.926537	670.4000244
1395.456639	669.5999756
1395.986685	670.4000244
1396.516675	673.2000122
1397.046611	671.5999756
1397.576491	672.4000244
1398.106315	673.2000122
1398.636084	670.7999878
1399.165798	676.2000122
1399.695457	671.7999878
1400.22506	667.2000122
1400.754608	670.4000244
1401.284101	670.0
1401.813538	672.0
1402.34292	669.4000244
1402.872247	673.4000244
1403.401518	670.0
1403.930734	672.2000122
1404.459895	672.0
1404.989	673.5999756
1405.51805	672.5999756
1406.047045	670.7999878
1406.575984	673.4000244
1407.104869	675.2000122
1407.633697	674.2000122
1408.162471	678.4000244
1408.691189	684.4000244
1409.219852	690.7999878
1409.74846	696.0
1410.277013	694.7999878
1410.80551	684.0
1411.333952	678.4000244
1411.862339	672.4000244
1412.39067	672.4000244
1412.918946	673.2000122
1413.447167	669.4000244
1413.975333	669.7999878
1414.503444	669.5999756
1415.031499	669.4000244
1415.559499	681.4000244
1416.087444	669.2000122
1416.615333	672.0
1417.143167	671.7999878
1417.670947	670.5999756
1418.19867	668.5999756
1418.726339	666.2000122
1419.253952	669.0
1419.781511	669.4000244
1420.309014	667.0
1420.836461	667.7999878
1421.363854	669.4000244
1421.891191	670.5999756
1422.418474	669.2000122
1422.945701	668.4000244
1423.472872	668.0
1423.999989	668.4000244
1424.52705	669.0
1425.054057	667.0
1425.581008	666.5999756
1426.107904	667.0
1426.634745	669.5999756
1427.16153	667.7999878
1427.688261	669.7999878
1428.214936	665.4000244
1428.741556	664.7999878
1429.268121	668.7999878
1429.794631	670.2000122
1430.321085	668.4000244
1430.847485	671.5999756
1431.373829	667.0
1431.900118	665.2000122
1432.426353	666.5999756
1432.952532	666.4000244
1433.478655	668.5999756
1434.004724	667.0
1434.530738	667.0
1435.056696	668.2000122
1435.5826	669.5999756
1436.108448	669.7999878
1436.634241	665.2000122
1437.159979	666.7999878
1437.685662	669.5999756
1438.21129	671.0
1438.736863	667.5999756
1439.262381	666.2000122
1439.787843	667.2000122
1440.313251	664.4000244
1440.838603	666.0
1441.3639	665.5999756
1441.889143	667.0
1442.41433	666.0
1442.939462	668.0
1443.464539	667.0
1443.989561	667.0
1444.514528	668.5999756
1445.03944	667.0
1445.564297	668.7999878
1446.089099	671.2000122
1446.613846	667.4000244
1447.138537	670.4000244
1447.663174	669.7999878
1448.187756	669.7999878
1448.712282	667.4000244
1449.236754	670.2000122
1449.761171	667.2000122
1450.285532	668.2000122
1450.809839	669.5999756
1451.33409	667.5999756
1451.858287	666.0
1452.382428	665.5999756
1452.906515	668.2000122
1453.430546	668.0
1453.954523	665.5999756
1454.478444	668.5999756
1455.002311	669.0
1455.526123	668.0
1456.049879	665.5999756
1456.573581	667.7999878
1457.097227	666.4000244
1457.620819	666.7999878
1458.144356	667.0
1458.667837	667.5999756
1459.191264	668.7999878
1459.714636	666.4000244
1460.237952	666.5999756
1460.761214	669.0
1461.284421	669.7999878
1461.807573	665.4000244
1462.33067	665.4000244
1462.853712	670.4000244
1463.376699	674.5999756
1463.899632	669.4000244
1464.422509	671.2000122
1464.945331	667.2000122
1465.468099	667.4000244
1465.990811	666.4000244
1466.513469	668.2000122
1467.036071	668.0
1467.558619	665.0
1468.081112	667.2000122
1468.60355	668.5999756
1469.125933	666.0
1469.648261	668.2000122
1470.170534	671.2000122
1470.692752	666.5999756
1471.214916	669.4000244
1471.737024	666.2000122
1472.259078	666.2000122
1472.781077	670.4000244
1473.303021	669.0
1473.82491	665.5999756
1474.346744	665.7999878
1474.868523	666.2000122
1475.390248	668.7999878
1475.911917	664.7999878
1476.433532	665.5999756
1476.955092	665.7999878
1477.476597	663.5999756
1477.998047	666.0
1478.519442	667.2000122
1479.040783	667.7999878
1479.562068	665.7999878
1480.083299	665.5999756
1480.604475	666.5999756
1481.125596	664.5999756
1481.646663	666.5999756
1482.167674	665.7999878
1482.688631	665.7999878
1483.209533	666.0
1483.73038	663.4000244
1484.251172	665.7999878
1484.771909	665.0
1485.292592	666.2000122
1485.81322	665.5999756
1486.333793	663.4000244
1486.854311	666.4000244
1487.374775	666.2000122
1487.895183	665.4000244
1488.415537	666.0
1488.935836	666.2000122
1489.456081	666.5999756
1489.97627	668.0
1490.496405	665.5999756
1491.016485	666.4000244
1491.536511	665.0
1492.056481	665.4000244
1492.576397	663.7999878
1493.096258	663.4000244
1493.616064	664.7999878
1494.135816	665.5999756
1494.655513	665.5999756
1495.175155	669.5999756
1495.694742	666.0
1496.214274	667.0
1496.733752	666.0
1497.253175	667.0
1497.772544	664.0
1498.291858	665.5999756
1498.811116	665.5999756
1499.330321	665.0
1499.84947	672.5999756
1500.368565	666.2000122
1500.887605	664.7999878
1501.406591	665.4000244
1501.925521	665.2000122
1502.444397	667.5999756
1502.963219	664.2000122
1503.481985	666.0
1504.000697	664.2000122
1504.519355	664.4000244
1505.037957	661.4000244
1505.556505	663.2000122
1506.074999	667.7999878
1506.593437	665.2000122
1507.111821	663.5999756
1507.63015	664.4000244
1508.148425	663.7999878
1508.666645	663.2000122
1509.18481	662.7999878
1509.702921	664.7999878
1510.220977	665.4000244
1510.738979	674.5999756
1511.256925	667.5999756
1511.774817	665.4000244
1512.292655	664.5999756
1512.810438	664.5999756
1513.328166	664.7999878
1513.84584	665.4000244
1514.363459	664.7999878
1514.881023	663.5999756
1515.398533	665.4000244
1515.915988	665.7999878
1516.433389	663.5999756
1516.950734	665.0
1517.468026	667.4000244
1517.985263	665.5999756
1518.502445	666.0
1519.019572	664.4000244
1519.536645	666.4000244
1520.053664	662.0
1520.570628	663.0
1521.087537	666.5999756
1521.604392	669.7999878
1522.121192	665.0
1522.637937	665.4000244
1523.154628	664.5999756
1523.671265	666.7999878
1524.187847	666.2000122
1524.704374	666.4000244
1525.220847	666.5999756
1525.737265	666.0
1526.253629	670.5999756
1526.769938	665.7999878
1527.286192	665.5999756
1527.802392	663.7999878
1528.318538	667.2000122
1528.834629	664.7999878
1529.350666	664.0
1529.866648	665.4000244
1530.382575	667.0
1530.898448	669.4000244
1531.414266	663.4000244
1531.93003	665.2000122
1532.44574	665.2000122
1532.961395	663.0
1533.476995	666.4000244
1533.992541	667.7999878
1534.508033	665.5999756
1535.02347	664.4000244
1535.538852	663.7999878
1536.05418	665.0
1536.569454	663.7999878
1537.084673	664.4000244
1537.599837	665.5999756
1538.114947	665.4000244
1538.630003	663.4000244
1539.145004	668.4000244
1539.659951	666.7999878
1540.174843	668.2000122
1540.689681	666.2000122
1541.204465	666.4000244
1541.719194	664.4000244
1542.233868	662.7999878
1542.748488	666.5999756
1543.263054	663.0
1543.777565	664.0
1544.292022	664.5999756
1544.806424	675.4000244
1546.349305	663.4000244
1546.863489	666.5999756
1547.37762	665.4000244
1547.891696	665.2000122
1548.405717	665.0
1548.919684	667.5999756
1549.433597	665.0
1549.947455	668.2000122
1550.461259	668.2000122
1550.975009	665.4000244
1551.488704	664.4000244
1552.002345	667.0
1552.515931	666.7999878
1553.029463	665.5999756
1553.542941	665.0
1554.056364	665.2000122
1554.569733	665.5999756
1555.083048	665.2000122
1555.596308	665.5999756
1556.109514	663.2000122
1556.622665	665.0
1557.135762	666.2000122
1557.648805	665.0
1558.161794	663.7999878
1558.674728	667.2000122
1559.187608	666.7999878
1559.700433	666.7999878
1560.213205	667.0
1560.725921	668.2000122
1561.238584	664.4000244
1561.751192	662.5999756
1562.263746	666.7999878
1562.776246	665.4000244
1563.288691	665.2000122
1563.801082	667.4000244
1564.313419	665.4000244
1564.825701	663.7999878
1565.337929	664.0
1565.850103	664.4000244
1566.362223	664.7999878
1566.874288	666.2000122
1567.386299	664.4000244
1567.898256	666.2000122
1568.410158	665.5999756
1568.922007	665.7999878
1569.4338	665.4000244
1569.94554	666.7999878
1570.457226	664.0
1570.968857	665.7999878
1571.480434	668.2000122
1571.991956	666.0
1572.503425	663.0
1573.014839	668.2000122
1573.526199	664.5999756
1574.037505	663.7999878
1574.548756	664.7999878
1575.059953	663.7999878
1575.571096	663.7999878
1576.082185	666.5999756
1576.59322	662.0
1577.1042	664.2000122
1577.615126	666.2000122
1578.125998	663.7999878
1578.636816	664.4000244
1579.14758	665.4000244
1579.658289	666.0
1580.168944	661.5999756
1580.679545	664.5999756
1581.190092	664.2000122
1581.700585	666.0
1582.211023	665.4000244
1582.721407	666.0
1583.231737	668.0
1583.742013	666.7999878
1584.252235	663.7999878
1584.762403	663.5999756
1585.272516	665.7999878
1585.782575	665.4000244
1586.292581	665.4000244
1586.802532	667.5999756
1587.312428	663.2000122
1587.822271	664.5999756
1588.33206	667.7999878
1588.841794	668.0
1589.351474	665.0
1589.8611	665.2000122
1590.370672	662.4000244
1590.88019	665.7999878
1591.389654	666.2000122
1591.899064	663.0
1592.408419	662.0
