1042.414189	729.333313
1042.980685	724.333313
1043.547124	722.666687
1044.113505	724.666687
1044.679828	723.333313
1045.246093	725.333313
1045.8123	723.666687
1046.378449	724.0
1046.94454	721.666687
1047.510573	716.666687
1048.076548	716.333313
1048.642465	721.0
1049.208325	720.0
1049.774126	721.666687
1050.339869	722.0
1050.905555	725.0
1051.471183	721.666687
1052.036752	720.666687
1052.602264	717.0
1053.167718	722.666687
1053.733114	719.333313
1054.298452	716.666687
1054.863733	714.333313
1055.428955	713.666687
1055.994119	715.333313
1056.559226	715.666687
1057.124275	710.666687
1057.689266	712.666687
1058.254199	712.0
1058.819074	718.333313
1059.383891	713.0
1059.94865	715.333313
1060.513352	710.666687
1061.077996	713.666687
1061.642582	716.0
1062.20711	711.333313
1062.77158	711.333313
1063.335992	713.0
1063.900347	713.333313
1064.464643	714.0
1065.028882	714.333313
1065.593063	712.333313
1066.157187	710.0
1066.721252	709.333313
1067.28526	711.0
1067.84921	712.666687
1068.413102	712.0
1068.976936	711.0
1069.540713	709.0
1070.104431	723.333313
1070.668092	712.666687
1071.231696	716.0
1071.795241	711.333313
1072.358729	711.0
1072.922159	714.666687
1073.485531	706.666687
1074.048845	712.333313
1074.612102	714.666687
1075.175301	715.333313
1075.738442	716.333313
1076.301525	717.0
1076.864551	712.333313
1077.427519	712.333313
1077.990429	715.0
1078.553281	712.333313
1079.116076	709.666687
1079.678813	711.333313
1080.241492	712.0
1080.804114	710.666687
1081.366678	718.666687
1081.929184	712.666687
1082.491633	721.333313
1083.054024	713.333313
1083.616357	716.666687
1084.178632	712.0
1084.74085	714.0
1085.30301	712.666687
1085.865113	721.333313
1086.427158	718.666687
1086.989145	714.333313
1087.551074	715.0
1088.112946	712.0
1088.67476	719.666687
1089.236517	716.333313
1089.798216	717.333313
1090.359857	717.0
1090.92144	717.0
1091.482966	715.333313
1092.044435	715.666687
1092.605845	722.0
1093.167199	718.333313
1093.728494	710.0
1094.289732	722.0
1094.850912	718.333313
1095.412035	727.333313
1095.9731	713.333313
1096.534107	712.666687
1097.095057	722.333313
1097.65595	715.333313
1098.216784	715.666687
1098.777561	721.333313
1099.338281	710.666687
1099.898943	713.333313
1100.459547	712.0
1101.020094	712.333313
1101.580584	712.0
1102.141015	709.333313
1102.701389	713.0
1103.261706	707.0
1103.821965	713.666687
1104.382167	709.333313
1104.942311	711.0
1105.502397	706.666687
1106.062426	708.666687
1106.622398	713.666687
1107.182312	714.0
1107.742168	715.0
1108.301967	712.333313
1108.861708	706.0
1109.421392	712.0
1109.981019	711.666687
1110.540587	718.666687
1111.100099	712.333313
1111.659553	710.666687
1112.218949	716.333313
1112.778288	714.666687
1113.33757	717.0
1113.896794	712.666687
1114.45596	710.666687
1115.015069	711.0
1115.574121	713.666687
1116.133115	711.0
1116.692052	711.333313
1117.250931	709.0
1117.809753	712.333313
1118.368517	706.0
1118.927224	712.0
1119.485873	712.333313
1120.044465	708.0
1120.603	711.666687
1121.161477	707.333313
1121.719897	709.333313
1122.278259	712.333313
1122.836564	708.666687
1123.394812	718.666687
1123.953002	712.0
1124.511135	720.0
1125.06921	710.666687
1125.627228	710.0
1126.185189	712.333313
1126.743092	715.0
1127.300938	724.666687
1127.858726	729.666687
1128.416457	735.0
1128.974131	734.333313
1129.531748	739.0
1130.089307	742.0
1130.646808	734.0
1131.204252	727.0
1131.761639	719.666687
1132.318969	714.333313
1132.876241	719.0
1133.433456	718.666687
1133.990614	712.666687
1134.547714	706.666687
1135.104757	710.333313
1135.661743	708.0
1136.218671	709.666687
1136.775542	712.666687
1137.332356	710.0
1137.889112	709.0
1138.445811	707.666687
1139.002453	708.666687
1139.559037	708.0
1140.115565	704.0
1140.672035	711.666687
1141.228447	710.333313
1141.784803	710.0
1142.341101	710.666687
1142.897342	713.666687
1143.453525	708.333313
1144.009651	710.666687
1144.565721	713.333313
1145.121732	712.0
1145.677687	708.0
1146.233584	710.333313
1146.789424	706.666687
1147.345207	711.666687
1147.900933	707.666687
1148.456601	711.333313
1149.012212	709.0
1149.567766	713.666687
1150.123263	710.333313
1150.678702	711.666687
1151.234085	713.0
1151.78941	707.333313
1152.344678	717.333313
1152.899888	709.666687
1153.455042	706.333313
1154.010138	710.666687
1154.565177	710.333313
1155.120159	708.333313
1155.675084	714.0
1156.229951	712.333313
1156.784762	715.333313
1157.339515	714.666687
1157.894211	717.666687
1158.44885	721.333313
1159.003432	722.0
1159.557956	728.0
1160.112424	727.666687
1160.666834	728.666687
1161.221187	729.666687
1161.775483	724.0
1162.329722	717.0
1162.883904	714.0
1163.438029	716.0
1163.992096	715.333313
1164.546107	705.333313
1165.10006	710.666687
1165.653956	716.0
1166.207795	709.333313
1166.761577	711.333313
1167.315302	716.666687
1167.86897	714.0
1168.422581	712.666687
1168.976134	712.666687
1169.529631	717.666687
1170.08307	713.666687
1170.636453	710.333313
1171.189778	708.333313
1171.743046	707.666687
1172.296257	708.0
1172.849412	711.333313
1173.402509	709.666687
1173.955549	710.0
1174.508532	709.666687
1175.061458	713.666687
1175.614327	710.666687
1176.167138	712.333313
1176.719893	707.333313
1177.272591	706.333313
1177.825232	710.666687
1178.377816	707.333313
1178.930342	707.333313
1179.482812	711.333313
1180.035225	707.333313
1180.587581	709.0
1181.139879	705.666687
1181.692121	710.666687
1182.244306	708.333313
1182.796434	710.333313
1183.348504	706.666687
1183.900518	705.666687
1184.452475	709.666687
1185.004375	714.0
1185.556218	706.666687
1186.108004	709.666687
1186.659733	705.0
1187.211405	712.666687
1187.76302	709.0
1188.314578	707.333313
1188.866079	708.666687
1189.417523	704.666687
1189.96891	711.0
1190.520241	711.333313
1191.071514	704.0
1191.622731	709.666687
1192.17389	708.333313
1192.724993	709.333313
1193.276039	721.666687
1193.827027	707.666687
1194.377959	707.666687
1194.928834	712.0
1195.479653	713.0
1196.030414	706.0
1196.581118	713.666687
1197.131766	708.666687
1197.682356	705.666687
1198.23289	713.0
1198.783367	710.666687
1199.333786	706.333313
1199.88415	707.333313
1200.434456	710.0
1200.984705	708.666687
1201.534898	710.666687
1202.085033	708.0
1202.635112	704.666687
1203.185134	711.333313
1203.735099	706.0
1204.285007	710.333313
1204.834859	709.333313
1205.384653	713.0
1205.934391	712.0
1206.484072	705.666687
1207.033696	709.666687
1207.583263	711.666687
1208.132774	706.333313
1208.682228	711.666687
1209.231624	706.333313
1209.780965	709.666687
1210.330248	711.333313
1210.879474	710.666687
1211.428644	709.0
1211.977757	706.333313
1212.526813	710.0
1213.075813	711.0
1213.624755	715.0
1214.173641	707.333313
1214.72247	707.333313
1215.271242	708.666687
1215.819958	710.333313
1216.368617	715.0
1216.917219	707.666687
1217.465764	707.0
1218.014253	709.666687
1218.562685	707.0
1219.11106	704.333313
1219.659378	716.333313
1220.20764	705.0
1220.755845	708.333313
1221.303993	710.666687
1221.852085	712.0
1222.400119	709.666687
1222.948097	715.0
1223.496019	710.0
1224.043883	711.0
1224.591691	709.0
1225.139443	713.0
1225.687137	710.333313
1226.234775	709.666687
1226.782357	707.0
1227.329881	708.0
1227.877349	707.0
1228.42476	705.666687
1228.972115	714.666687
1229.519413	710.333313
1230.066654	702.0
1230.613839	706.666687
1231.160967	714.666687
1231.708038	709.666687
1232.255053	714.333313
1232.802011	713.666687
1233.348912	711.333313
1233.895757	708.666687
1234.442545	710.666687
1234.989277	712.333313
1235.535951	709.666687
1236.08257	707.666687
1236.629131	707.333313
1237.175636	708.333313
1237.722085	708.666687
1238.268477	706.333313
1238.814812	704.666687
1239.361091	701.666687
1239.907313	704.666687
1240.453478	711.333313
1240.999587	710.333313
1241.54564	707.0
1242.091636	713.333313
1242.637575	711.666687
1243.183457	706.0
1243.729284	708.333313
1244.275053	711.0
1244.820766	709.0
1245.366423	702.666687
1245.912022	712.0
1246.457566	708.666687
1247.003053	710.0
1247.548483	702.333313
1248.093857	707.333313
1248.639174	715.0
1249.184435	710.666687
1249.729639	706.333313
1250.274787	712.0
1250.819878	706.666687
1251.364912	710.0
1251.909891	712.666687
1252.454812	708.333313
1252.999677	709.666687
1253.544486	717.666687
1254.089238	706.0
1254.633934	707.333313
1255.178573	710.0
1255.723156	706.666687
1256.267682	710.0
1256.812152	708.666687
1257.356565	706.666687
1257.900922	710.0
1258.445223	709.0
1258.989467	711.666687
1259.533654	707.0
1260.077785	724.333313
1260.62186	707.0
1261.165878	706.0
1261.70984	706.0
1262.253745	707.333313
1262.797594	706.0
1263.341386	712.0
1263.885123	706.333313
1264.428802	709.0
1264.972425	713.0
1265.515992	714.333313
1266.059503	713.0
1266.602957	708.0
1267.146354	714.0
1267.689696	705.0
1268.23298	712.333313
1268.776209	709.0
1269.319381	706.0
1269.862497	710.0
1270.405556	712.0
1270.948559	706.666687
1271.491506	711.666687
1272.034396	707.666687
1272.57723	711.333313
1273.120007	712.0
1273.662728	711.666687
1274.205393	707.666687
1274.748002	707.0
1275.290554	710.0
1275.83305	705.0
1276.375489	710.666687
1276.917872	705.666687
1277.460199	705.0
1278.00247	709.0
1278.544684	710.333313
1279.086842	712.333313
1279.628943	713.0
1280.170989	707.666687
1280.712978	715.666687
1281.25491	705.666687
1281.796787	712.333313
1282.338607	710.333313
1282.880371	710.333313
1283.422078	710.666687
1283.963729	709.666687
1284.505324	722.333313
1285.046863	737.333313
1285.588345	773.0
1286.129772	758.666687
1286.671142	725.666687
1287.212455	716.333313
1287.753713	718.333313
1288.294914	714.666687
1288.836059	707.666687
1289.377147	710.666687
1289.91818	702.666687
1290.459156	708.666687
1291.000076	711.666687
1291.54094	713.666687
1292.081747	705.333313
1292.622499	707.666687
1293.163194	710.666687
1293.703833	706.666687
1294.244415	711.666687
1294.784942	708.333313
1295.325412	700.333313
1295.865826	720.0
1296.406184	706.0
1296.946486	704.666687
1297.486731	708.0
1298.026921	711.0
1298.567054	713.0
1299.107131	708.333313
1299.647152	708.333313
1300.187116	702.333313
1300.727025	706.333313
1301.266877	708.666687
1301.806673	710.0
1302.346413	713.333313
1302.886097	706.333313
1303.425725	708.666687
1303.965297	702.333313
1304.504812	706.333313
1305.044272	708.333313
1305.583675	708.333313
1306.123022	705.666687
1306.662313	711.0
1307.201548	709.333313
1307.740727	710.666687
1308.279849	706.333313
1308.818916	711.0
1309.357926	707.666687
1309.896881	710.333313
1310.435779	709.0
1310.974621	710.666687
1311.513407	708.0
1312.052137	704.333313
1312.590811	711.0
1313.129429	709.333313
1313.667991	704.333313
1314.206497	709.0
1314.744946	705.666687
1315.28334	708.666687
1315.821678	706.333313
1316.359959	709.0
1316.898184	711.333313
1317.436354	708.666687
1317.974467	704.666687
1318.512525	713.333313
1319.050526	706.333313
1319.588471	704.0
1320.12636	706.666687
1320.664194	706.333313
1321.201971	710.333313
1321.739692	709.0
1322.277357	705.666687
1322.814967	703.0
1323.35252	705.0
1323.890017	709.0
1324.427458	704.333313
1324.964843	705.666687
1325.502173	702.333313
1326.039446	707.0
1326.576663	705.0
1327.113824	709.0
1327.65093	709.0
1328.187979	706.333313
1328.724972	707.0
1329.26191	707.333313
1329.798791	700.666687
1330.335617	702.0
1330.872386	707.0
1331.4091	708.333313
1331.945758	703.333313
1332.48236	701.333313
1333.018905	710.0
1333.555395	708.0
1334.091829	712.333313
1334.628207	703.333313
1335.164529	706.666687
1335.700796	709.0
1336.237006	705.666687
1336.77316	702.666687
1337.309259	706.333313
1337.845301	705.666687
1338.381288	706.666687
1338.917219	706.0
1339.453094	702.666687
1339.988913	703.666687
1340.524676	708.666687
1341.060383	702.666687
1341.596034	710.333313
1342.13163	703.666687
1342.66717	704.666687
1343.202653	705.333313
1343.738081	707.333313
1344.273453	709.333313
1344.80877	705.0
1345.34403	708.666687
1345.879235	713.333313
1346.414383	705.666687
1346.949476	708.0
1347.484513	704.333313
1348.019494	713.333313
1348.55442	705.0
1349.089289	706.666687
1349.624103	704.0
1350.158861	709.666687
1350.693563	704.0
1351.228209	710.0
1351.7628	705.333313
1352.297334	708.666687
1352.831813	708.0
1353.366236	707.666687
1353.900604	707.0
1354.434915	704.0
1354.969171	712.666687
1355.503371	707.0
1356.037515	705.333313
1356.571604	706.0
1357.105636	709.0
1357.639613	708.666687
1358.173535	706.0
1358.7074	710.0
1359.24121	702.0
1359.774964	705.0
1360.308662	703.0
1360.842304	704.0
1361.375891	711.0
1361.909422	706.333313
1362.442897	710.0
1362.976317	707.333313
1363.50968	711.333313
1364.042989	714.333313
1364.576241	703.0
1365.109438	706.0
1365.642579	707.666687
1366.175664	705.333313
1366.708693	705.333313
1367.241667	709.333313
1367.774585	705.0
1368.307448	708.0
1368.840255	715.0
1369.373006	709.666687
1369.905701	703.333313
1370.438341	713.0
1370.970925	707.333313
1371.503454	708.666687
1372.035926	711.666687
1372.568344	706.666687
1373.100705	707.333313
1373.633011	705.333313
1374.165261	709.666687
1374.697456	707.0
1375.229595	709.0
1375.761678	707.333313
1376.293705	711.0
1376.825677	709.333313
1377.357594	705.666687
1377.889455	711.0
1378.42126	706.333313
1378.953009	709.333313
1379.484703	710.0
1380.016342	704.666687
1380.547924	709.666687
1381.079452	708.666687
1381.610923	713.333313
1382.142339	714.666687
1382.673699	707.0
1383.205004	706.0
1383.736253	709.666687
1384.267447	706.333313
1384.798585	707.666687
1385.329668	709.0
1385.860695	708.666687
1386.391666	709.0
1386.922582	712.0
1387.453442	713.666687
1387.984247	720.0
1388.514996	758.0
1389.04569	814.0
1389.576328	780.666687
1390.10691	722.666687
1390.637437	714.333313
1391.167909	713.0
1391.698325	713.333313
1392.228685	709.0
1392.75899	710.666687
1393.28924	711.0
1393.819434	708.333313
1394.349572	706.0
1394.879655	707.666687
1395.409683	711.333313
1395.939655	714.333313
1396.469571	704.0
1396.999432	700.666687
1397.529237	712.0
1398.058987	708.666687
1398.588682	713.333313
1399.118321	712.0
1399.647905	708.333313
1400.177433	713.333313
1401.236323	711.0
1401.765685	701.333313
1402.294991	705.0
1402.824242	707.0
1403.353437	710.333313
1403.882577	713.333313
1404.411662	704.333313
1404.940691	706.333313
1405.469665	712.333313
1405.998583	710.333313
1406.527446	701.666687
1407.056253	713.666687
1407.585005	703.666687
1408.113702	713.333313
1408.642343	706.666687
1409.170929	710.333313
1409.69946	713.666687
1410.227935	711.333313
1410.756354	714.666687
1411.284719	712.0
1411.813028	709.666687
1412.341281	707.333313
1412.869479	710.666687
1413.397622	706.666687
1413.92571	712.0
1414.453742	709.666687
1414.981718	708.333313
1415.50964	716.0
1416.037506	710.0
1416.565316	706.333313
1417.093072	706.666687
1417.620772	710.333313
1418.148416	708.333313
1418.676005	708.666687
1419.203539	707.666687
1419.731018	707.333313
1420.258441	704.666687
1420.785809	709.666687
1421.313122	715.333313
1421.840379	704.0
1422.367582	709.666687
1422.894728	705.666687
1423.42182	705.333313
1423.948856	706.333313
1424.475837	708.0
1425.002762	706.333313
1425.529633	705.666687
1426.056448	714.0
1426.583207	709.333313
1427.109912	704.333313
1427.636561	710.0
1428.163155	709.666687
1428.689694	706.666687
1429.216177	707.0
1429.742605	711.0
1430.268978	709.666687
1430.795296	703.333313
1431.321558	710.333313
1431.847765	705.666687
1432.373917	708.666687
1432.900014	709.333313
1433.426056	702.333313
1433.952042	708.666687
1434.477973	704.0
1435.003849	708.666687
1435.529669	712.666687
1436.055435	710.0
1436.581145	709.0
1437.1068	702.666687
1437.632399	704.0
1438.157944	708.666687
1438.683433	711.333313
1439.208868	708.0
1439.734247	702.666687
1440.25957	710.333313
1440.784839	706.333313
1441.310053	706.666687
1441.835211	711.666687
1442.360314	706.0
1442.885362	705.0
1443.410355	707.666687
1443.935292	705.0
1444.460175	705.333313
1444.985002	706.333313
1445.509774	711.666687
1446.034491	710.0
1446.559153	705.666687
1447.08376	714.333313
1447.608312	707.666687
1448.132808	712.0
1448.65725	710.333313
1449.181636	712.666687
1449.705967	700.0
1450.230243	710.333313
1450.754464	705.0
1451.27863	707.0
1451.802741	707.0
1452.326797	709.666687
1452.850797	704.333313
1453.374743	707.0
1453.898633	706.333313
1454.422468	711.333313
1454.946249	704.333313
1455.469974	705.666687
1455.993644	709.333313
1456.517259	704.0
1457.040819	714.0
1457.564324	703.666687
1458.087773	713.0
1458.611168	705.666687
1459.134508	709.333313
1459.657793	707.333313
1460.181022	710.0
1460.704197	708.0
1461.227316	709.666687
1461.750381	707.333313
1462.27339	704.0
1462.796345	709.333313
1463.319244	705.333313
1463.842089	711.333313
1464.364878	706.333313
1464.887613	705.666687
1465.410292	703.333313
1465.932916	708.0
1466.455486	707.666687
1466.978	708.666687
1467.50046	709.333313
1468.022864	702.666687
1468.545214	706.0
1469.067508	705.0
1469.589748	706.0
1470.111932	709.333313
1470.634062	708.333313
1471.156136	709.0
1471.678156	709.0
1472.20012	710.666687
1472.72203	706.0
1473.243885	703.0
1473.765685	711.0
1474.28743	706.0
1474.80912	707.0
1475.330755	707.666687
1475.852335	714.0
1476.37386	714.666687
1476.89533	702.333313
1477.416745	706.333313
1477.938106	704.666687
1478.459411	707.666687
1478.980662	711.0
1479.501857	709.0
1480.022998	707.333313
1480.544084	706.333313
1481.065115	708.0
1481.586091	703.666687
1482.107012	715.333313
1482.627878	705.666687
1483.14869	708.333313
1483.669446	713.333313
1484.190148	706.666687
1484.710794	708.0
1485.231386	711.666687
1485.751923	711.0
1486.272406	712.333313
1486.792833	709.666687
1487.313205	709.0
1487.833523	707.666687
1488.353786	708.0
1488.873994	714.0
1489.394147	709.666687
1489.914245	707.333313
1490.434288	708.0
1490.954277	710.333313
1491.474211	710.0
1491.99409	709.0
1492.513914	709.0
1493.033683	709.666687
1493.553398	709.0
1494.073057	706.0
1494.592662	702.0
1495.112212	706.0
1495.631708	710.0
1496.151148	709.0
1496.670534	705.333313
1497.189865	706.333313
1497.709141	703.666687
1498.228362	705.666687
1498.747529	703.666687
1499.266641	705.333313
1499.785698	713.0
1500.3047	706.666687
1500.823648	702.666687
1501.34254	709.333313
1501.861379	704.0
1502.380162	702.666687
1502.89889	710.666687
1503.417564	706.0
1503.936183	706.333313
1504.454748	710.0
1504.973257	706.333313
1505.491712	703.0
1506.010112	710.0
1506.528458	706.333313
1507.046748	704.0
1507.564984	698.333313
1508.083166	711.666687
1508.601292	703.666687
1509.119364	707.333313
1509.637381	710.0
1510.155344	710.333313
1510.673252	713.0
1511.191105	703.666687
1511.708903	709.0
1512.226647	706.666687
1512.744336	706.333313
1513.261971	707.333313
1513.77955	708.666687
1514.297076	706.333313
1514.814546	706.666687
1515.331962	708.0
1515.849323	704.0
1516.366629	706.666687
1516.883881	705.666687
1517.401078	706.333313
1517.918221	706.0
1518.435309	709.0
1518.952342	707.0
1519.469321	707.333313
1519.986245	705.333313
1520.503114	711.0
1521.019929	708.666687
1521.536689	710.666687
1522.053395	712.0
1522.570046	706.333313
1523.086642	703.333313
1523.603184	709.666687
1524.119671	711.666687
1524.636103	705.333313
1525.152481	709.333313
1525.668805	708.333313
1526.185073	705.333313
1526.701288	705.333313
1527.217447	706.333313
1527.733552	709.666687
1528.249603	709.0
1528.765599	709.0
1529.28154	708.0
1529.797427	708.0
1530.313259	708.666687
1530.829037	704.666687
1531.34476	707.333313
1531.860429	710.0
1532.376043	705.0
1532.891602	704.333313
1533.407107	709.0
1533.922558	710.0
1534.437954	711.333313
1534.953295	709.333313
1535.468582	704.0
1535.983815	707.666687
1536.498993	707.0
1537.014116	709.0
1537.529185	705.666687
1538.044199	709.0
1538.559159	705.666687
1539.074064	708.333313
1539.588915	707.0
1540.103712	704.666687
1540.618454	709.0
1541.133141	704.333313
1541.647774	706.666687
1542.162353	703.666687
1542.676877	705.333313
1543.191346	708.666687
1543.705761	712.666687
1544.220122	709.666687
1544.734428	704.333313
1545.24868	705.0
1545.762877	707.333313
1546.27702	706.666687
1546.791109	709.0
1547.305143	707.0
1547.819122	710.666687
1548.333047	703.666687
1548.846918	707.333313
1549.360734	704.666687
1549.874496	708.0
1550.388204	705.666687
1550.901857	710.333313
1551.415455	710.333313
1551.929	704.666687
1552.442489	706.0
1552.955925	702.666687
1553.469306	703.0
1553.982632	708.666687
1554.495905	706.333313
1555.009123	708.333313
1555.522286	707.333313
1556.035395	707.333313
1556.54845	705.0
1557.06145	705.666687
1557.574396	711.333313
1558.087288	704.333313
1558.600125	703.333313
1559.112908	707.0
1559.625637	710.0
1560.138311	717.666687
1560.650931	707.333313
1561.163497	706.333313
1561.676008	707.333313
1562.188465	703.333313
1562.700867	707.0
1563.213216	707.333313
1563.725509	710.0
1564.237749	710.666687
1564.749934	704.333313
1565.262065	707.0
1565.774142	709.666687
1566.286164	707.0
1566.798132	706.333313
1567.310046	707.0
1567.821906	706.666687
1568.333711	705.333313
1568.845462	708.333313
1569.357158	710.0
1569.868801	709.666687
1570.380389	706.0
1570.891922	711.666687
1571.403402	701.333313
1571.914827	712.0
1572.426198	706.666687
1572.937515	707.0
1573.448777	708.666687
1573.959985	708.666687
1574.471139	706.0
1574.982239	705.333313
1575.493285	707.666687
1576.004276	705.333313
1576.515213	708.666687
1577.026096	713.666687
1577.536924	708.333313
1578.047698	710.0
1578.558419	713.333313
1579.069084	711.0
1579.579696	712.333313
1580.090254	711.0
1580.600757	711.666687
1581.111206	709.333313
1581.621601	709.333313
1582.131941	708.0
1582.642228	707.333313
1583.15246	709.666687
1583.662638	706.0
1584.172762	706.0
1584.682832	710.666687
1585.192847	705.666687
1585.702809	710.333313
1586.212716	711.0
1586.722569	707.333313
1587.232368	708.0
1587.742113	708.0
1588.251803	703.333313
1588.76144	702.0
1589.271022	705.0
1589.78055	707.666687
1590.290024	711.666687
1590.799444	707.666687
1591.30881	706.666687
1591.818121	707.666687
1592.327379	711.666687
