1042.414189	727.5
1042.980685	726.0
1043.547124	723.75
1044.113505	729.75
1044.679828	728.75
1045.246093	723.5
1045.8123	731.25
1046.378449	730.5
1046.94454	723.0
1047.510573	722.5
1048.076548	726.75
1048.642465	718.75
1049.208325	719.75
1049.774126	724.5
1050.339869	721.5
1050.905555	726.0
1051.471183	718.5
1052.036752	718.75
1052.602264	718.25
1053.167718	714.75
1053.733114	718.25
1054.298452	716.25
1054.863733	721.5
1055.428955	711.0
1055.994119	716.75
1056.559226	710.75
1057.124275	713.25
1057.689266	710.0
1058.254199	709.5
1058.819074	709.75
1059.383891	713.5
1059.94865	710.5
1060.513352	707.25
1061.077996	708.25
1061.642582	712.75
1062.20711	713.5
1062.77158	707.75
1063.335992	713.75
1063.900347	709.25
1064.464643	713.5
1065.028882	712.0
1065.593063	707.5
1066.157187	711.5
1066.721252	711.75
1067.28526	701.5
1067.84921	712.0
1068.413102	712.25
1068.976936	714.0
1069.540713	710.5
1070.104431	718.75
1070.668092	708.0
1071.231696	716.0
1071.795241	706.25
1072.358729	711.0
1072.922159	711.0
1073.485531	708.75
1074.048845	710.25
1074.612102	710.25
1075.175301	714.25
1075.738442	713.75
1076.301525	709.0
1076.864551	713.0
1077.427519	710.25
1077.990429	704.5
1078.553281	715.0
1079.116076	708.5
1079.678813	711.5
1080.241492	705.75
1080.804114	710.0
1081.366678	714.0
1081.929184	706.5
1082.491633	713.25
1083.054024	714.5
1083.616357	709.75
1084.178632	713.25
1084.74085	710.5
1085.30301	712.25
1085.865113	704.75
1086.427158	715.0
1086.989145	712.25
1087.551074	711.5
1088.112946	715.5
1088.67476	712.75
1089.236517	710.75
1089.798216	710.0
1090.359857	715.5
1090.92144	717.0
1091.482966	711.75
1092.044435	710.25
1092.605845	714.0
1093.167199	714.75
1093.728494	716.75
1094.289732	716.25
1094.850912	715.75
1095.412035	726.0
1095.9731	711.0
1096.534107	717.75
1097.095057	715.25
1097.65595	708.5
1098.216784	707.0
1098.777561	713.25
1099.338281	714.0
1099.898943	713.5
1100.459547	712.5
1101.020094	712.0
1101.580584	706.5
1102.141015	710.25
1102.701389	714.75
1103.261706	711.5
1103.821965	713.0
1104.382167	707.25
1104.942311	708.75
1105.502397	717.5
1106.062426	708.5
1106.622398	709.25
1107.182312	710.0
1107.742168	706.5
1108.301967	708.0
1108.861708	714.0
1109.421392	707.0
1109.981019	710.5
1110.540587	709.25
1111.100099	708.0
1111.659553	707.5
1112.218949	713.5
1112.778288	710.75
1113.33757	711.75
1113.896794	713.25
1114.45596	709.75
1115.015069	711.75
1115.574121	705.5
1116.133115	708.5
1116.692052	713.25
1117.250931	709.75
1117.809753	706.25
1118.368517	709.25
1118.927224	707.5
1119.485873	709.75
1120.044465	709.5
1120.603	706.5
1121.161477	714.0
1121.719897	711.0
1122.278259	710.5
1122.836564	713.25
1123.394812	710.0
1123.953002	708.75
1124.511135	710.75
1125.06921	707.0
1125.627228	711.25
1126.185189	711.25
1126.743092	712.0
1127.300938	710.75
1127.858726	717.25
1128.416457	715.5
1128.974131	721.5
1129.531748	719.25
1130.089307	711.5
1130.646808	714.25
1131.204252	716.0
1131.761639	715.5
1132.318969	716.5
1132.876241	706.25
1133.433456	709.5
1133.990614	712.75
1134.547714	711.5
1135.104757	705.5
1135.661743	708.75
1136.218671	711.0
1136.775542	711.5
1137.332356	712.75
1137.889112	711.0
1138.445811	710.25
1139.002453	713.0
1139.559037	708.25
1140.115565	708.0
1140.672035	710.25
1141.228447	707.25
1141.784803	714.5
1142.341101	706.25
1142.897342	706.75
1143.453525	708.25
1144.009651	708.25
1144.565721	710.0
1145.121732	716.0
1145.677687	712.25
1146.233584	711.75
1146.789424	713.25
1147.345207	715.75
1147.900933	712.75
1148.456601	710.0
1149.012212	708.25
1149.567766	708.5
1150.123263	714.5
1150.678702	706.75
1151.234085	715.75
1151.78941	708.25
1152.344678	709.0
1152.899888	707.0
1153.455042	706.25
1154.010138	711.0
1154.565177	710.25
1155.120159	713.5
1155.675084	705.0
1156.229951	709.75
1156.784762	712.25
1157.339515	708.0
1157.894211	709.5
1158.44885	708.75
1159.003432	714.0
1159.557956	713.5
1160.112424	711.75
1160.666834	712.5
1161.221187	712.75
1161.775483	711.25
1162.329722	711.75
1162.883904	710.5
1163.438029	718.0
1163.992096	711.0
1164.546107	714.25
1165.10006	715.5
1165.653956	710.25
1166.207795	710.25
1166.761577	710.75
1167.315302	713.25
1167.86897	711.5
1168.422581	712.0
1168.976134	714.5
1169.529631	711.75
1170.08307	710.75
1170.636453	710.25
1171.189778	716.75
1171.743046	712.75
1172.296257	707.25
1172.849412	710.5
1173.402509	710.25
1173.955549	714.5
1174.508532	710.75
1175.061458	710.25
1175.614327	710.0
1176.167138	709.0
1176.719893	706.0
1177.272591	712.5
1177.825232	709.5
1178.377816	709.0
1178.930342	710.5
1179.482812	706.5
1180.035225	712.25
1180.587581	706.0
1181.139879	712.0
1181.692121	1011.25
1182.244306	1018.25
1182.796434	713.75
1183.348504	707.75
1183.900518	705.25
1184.452475	708.5
1185.004375	712.75
1185.556218	710.0
1186.108004	714.25
1186.659733	705.5
1187.211405	711.5
1187.76302	709.0
1188.314578	703.5
1188.866079	708.0
1189.417523	707.75
1189.96891	704.25
1190.520241	709.25
1191.071514	708.75
1191.622731	709.25
1192.17389	708.25
1192.724993	711.25
1193.276039	730.75
1193.827027	709.25
1194.377959	710.5
1194.928834	711.5
1195.479653	711.0
1196.030414	707.75
1196.581118	709.25
1197.131766	713.5
1197.682356	707.75
1198.23289	708.5
1198.783367	707.75
1199.333786	709.25
1199.88415	708.75
1200.434456	709.25
1200.984705	705.5
1201.534898	710.0
1202.085033	711.75
1202.635112	711.75
1203.185134	710.5
1203.735099	709.75
1204.285007	707.5
1204.834859	710.25
1205.384653	714.0
1205.934391	708.25
1206.484072	709.25
1207.033696	707.5
1207.583263	711.5
1208.132774	709.0
1208.682228	711.0
1209.231624	713.25
1209.780965	711.25
1210.330248	708.0
1210.879474	707.75
1211.428644	709.25
1211.977757	710.25
1212.526813	716.0
1213.075813	711.0
1213.624755	714.0
1214.173641	710.75
1214.72247	712.75
1215.271242	711.75
1215.819958	712.5
1216.368617	711.75
1216.917219	710.0
1217.465764	709.0
1218.014253	711.25
1218.562685	710.25
1219.11106	717.5
1219.659378	711.0
1220.20764	716.0
1220.755845	712.5
1221.303993	711.0
1221.852085	706.25
1222.400119	709.25
1222.948097	713.0
1223.496019	712.0
1224.043883	712.5
1224.591691	707.75
1225.139443	711.75
1225.687137	711.75
1226.234775	706.5
1226.782357	708.75
1227.329881	707.0
1227.877349	713.75
1228.42476	708.0
1228.972115	711.75
1229.519413	711.5
1230.066654	708.25
1230.613839	709.75
1231.160967	709.75
1231.708038	718.25
1232.255053	715.25
1232.802011	710.25
1233.348912	713.75
1233.895757	712.0
1234.442545	714.5
1234.989277	707.0
1235.535951	711.25
1236.08257	711.25
1236.629131	710.75
1237.175636	714.25
1237.722085	712.0
1238.268477	715.0
1238.814812	709.5
1239.361091	712.0
1239.907313	710.0
1240.453478	715.75
1240.999587	708.5
1241.54564	713.0
1242.091636	713.25
1242.637575	708.75
1243.183457	716.0
1243.729284	711.75
1244.275053	714.5
1244.820766	712.0
1245.366423	714.75
1245.912022	713.0
1246.457566	710.5
1247.003053	707.75
1247.548483	711.0
1248.093857	713.5
1248.639174	714.25
1249.184435	715.25
1249.729639	712.25
1250.274787	712.75
1250.819878	712.5
1251.364912	717.25
1251.909891	714.0
1252.454812	716.25
1252.999677	715.75
1253.544486	714.25
1254.089238	714.0
1254.633934	715.0
1255.178573	715.25
1255.723156	711.5
1256.267682	717.5
1256.812152	715.25
1257.356565	716.75
1257.900922	715.25
1258.445223	715.0
1258.989467	713.75
1259.533654	712.0
1260.077785	735.25
1260.62186	716.5
1261.165878	720.25
1261.70984	718.0
1262.253745	713.0
1262.797594	715.0
1263.341386	718.0
1263.885123	721.0
1264.428802	731.75
1264.972425	732.5
1265.515992	741.5
1266.059503	735.25
1266.602957	732.25
1267.146354	720.0
1267.689696	718.5
1268.23298	719.5
1268.776209	719.75
1269.319381	718.5
1269.862497	720.0
1270.405556	720.0
1270.948559	720.0
1271.491506	712.0
1272.034396	722.25
1272.57723	721.75
1273.120007	720.0
1273.662728	712.5
1274.205393	721.5
1274.748002	720.0
1275.290554	722.0
1275.83305	721.75
1276.375489	721.0
1276.917872	719.25
1277.460199	719.25
1278.00247	719.25
1278.544684	725.75
1279.086842	719.5
1279.628943	721.75
1280.170989	720.25
1280.712978	725.0
1281.25491	723.75
1281.796787	724.0
1282.338607	720.25
1282.880371	725.5
1283.422078	739.75
1283.963729	752.75
1284.505324	794.5
1285.046863	908.25
1285.588345	1084.25
1286.129772	1024.5
1286.671142	839.0
1287.212455	761.25
1287.753713	736.0
1288.294914	724.25
1288.836059	730.75
1289.377147	724.75
1289.91818	722.5
1290.459156	724.75
1291.000076	717.75
1291.54094	719.0
1292.081747	725.5
1292.622499	721.0
1293.163194	716.75
1293.703833	722.5
1294.244415	712.75
1294.784942	712.75
1295.325412	722.75
1295.865826	719.0
1296.406184	726.75
1296.946486	722.0
1297.486731	723.5
1298.026921	717.5
1298.567054	722.5
1299.107131	720.25
1299.647152	717.75
1300.187116	714.25
1300.727025	718.25
1301.266877	717.75
1301.806673	718.75
1302.346413	720.25
1302.886097	719.75
1303.425725	719.75
1303.965297	717.75
1304.504812	721.25
1305.044272	718.5
1305.583675	715.0
1306.123022	712.5
1306.662313	719.75
1307.201548	717.25
1307.740727	716.5
1308.279849	719.25
1308.818916	718.75
1309.357926	722.25
1309.896881	717.25
1310.435779	717.5
1310.974621	715.75
1311.513407	715.75
1312.052137	715.25
1312.590811	715.5
1313.129429	714.0
1313.667991	712.0
1314.206497	717.75
1314.744946	719.0
1315.28334	713.5
1315.821678	717.75
1316.359959	715.0
1316.898184	710.75
1317.436354	714.0
1317.974467	711.5
1318.512525	717.75
1319.050526	711.75
1319.588471	711.75
1320.12636	709.75
1320.664194	716.0
1321.201971	715.5
1321.739692	714.75
1322.277357	715.0
1322.814967	713.0
1323.35252	715.0
1323.890017	718.75
1324.427458	711.75
1324.964843	716.0
1325.502173	712.25
1326.039446	712.5
1326.576663	713.75
1327.113824	716.25
1327.65093	712.25
1328.187979	709.0
1328.724972	714.75
1329.26191	714.5
1329.798791	708.25
1330.335617	711.5
1330.872386	710.75
1331.4091	714.25
1331.945758	708.5
1332.48236	717.0
1333.018905	713.75
1333.555395	713.5
1334.091829	712.75
1334.628207	715.75
1335.164529	711.5
1335.700796	711.0
1336.237006	712.0
1336.77316	714.75
1337.309259	710.25
1337.845301	712.75
1338.381288	713.5
1338.917219	709.5
1339.453094	716.25
1339.988913	715.25
1340.524676	712.5
1341.060383	710.75
1341.596034	715.0
1342.13163	712.0
1342.66717	714.25
1343.202653	715.0
1343.738081	716.25
1344.273453	715.25
1344.80877	714.75
1345.34403	717.0
1345.879235	714.5
1346.414383	713.5
1346.949476	714.5
1347.484513	718.5
1348.019494	710.25
1348.55442	709.5
1349.089289	713.5
1349.624103	709.5
1350.158861	715.5
1350.693563	715.0
1351.228209	714.0
1351.7628	714.25
1352.297334	720.0
1352.831813	712.25
1353.366236	715.5
1353.900604	714.75
1354.434915	720.0
1354.969171	711.0
1355.503371	715.0
1356.037515	712.0
1356.571604	716.5
1357.105636	717.25
1357.639613	717.0
1358.173535	715.25
1358.7074	718.0
1359.24121	716.0
1359.774964	717.25
1360.308662	714.75
1360.842304	715.0
1361.375891	711.5
1361.909422	713.5
1362.442897	715.25
1362.976317	708.75
1363.50968	713.0
1364.042989	710.5
1364.576241	717.0
1365.109438	709.5
1365.642579	715.5
1366.175664	717.75
1366.708693	716.25
1367.241667	716.75
1367.774585	714.0
1368.307448	713.75
1368.840255	719.75
1369.373006	719.25
1369.905701	718.25
1370.438341	725.75
1370.970925	725.5
1371.503454	720.75
1372.035926	712.25
1372.568344	717.0
1373.100705	714.5
1373.633011	716.25
1374.165261	718.75
1374.697456	717.5
1375.229595	716.25
1375.761678	716.0
1376.293705	711.25
1376.825677	713.5
1377.357594	717.0
1377.889455	714.75
1378.42126	720.75
1378.953009	712.0
1379.484703	717.0
1380.016342	714.75
1380.547924	714.0
1381.079452	718.0
1381.610923	711.0
1382.142339	716.0
1382.673699	716.5
1383.205004	717.0
1383.736253	722.25
1384.267447	720.5
1384.798585	719.25
1385.329668	720.0
1385.860695	725.25
1386.391666	731.75
1386.922582	742.25
1387.453442	751.75
1387.984247	817.75
1388.514996	1037.0
1389.04569	1390.0
1389.576328	1161.5
1390.10691	836.75
1390.637437	753.75
1391.167909	736.75
1391.698325	728.5
1392.228685	727.25
1392.75899	722.5
1393.28924	725.0
1393.819434	722.5
1394.349572	720.5
1394.879655	720.75
1395.409683	713.0
1395.939655	713.5
1396.469571	715.75
1396.999432	714.75
1397.529237	714.5
1398.058987	722.75
1398.588682	717.75
1399.118321	719.25
1399.647905	717.5
1400.177433	717.25
1400.706906	714.25
1401.236323	719.75
1401.765685	714.5
1402.294991	715.25
1402.824242	718.0
1403.353437	716.0
1403.882577	717.0
1404.411662	716.75
1404.940691	718.0
1405.469665	718.75
1405.998583	718.75
1406.527446	720.0
1407.056253	720.25
1407.585005	717.25
1408.113702	723.75
1408.642343	721.75
1409.170929	728.25
1409.69946	739.0
1410.227935	759.5
1410.756354	760.5
1411.284719	737.75
1411.813028	726.0
1412.341281	723.5
1412.869479	723.25
1413.397622	716.5
1413.92571	718.0
1414.453742	721.0
1414.981718	717.75
1415.50964	732.75
1416.037506	710.0
1416.565316	714.75
1417.093072	722.25
1417.620772	714.25
1418.148416	717.25
1418.676005	712.5
1419.203539	709.25
1419.731018	715.0
1420.258441	715.5
1420.785809	720.25
1421.313122	714.0
1421.840379	709.25
1422.367582	718.0
1422.894728	718.0
1423.42182	713.25
1423.948856	713.75
1424.475837	712.25
1425.002762	718.0
1425.529633	716.75
1426.056448	715.0
1426.583207	721.0
1427.109912	721.25
1427.636561	715.0
1428.163155	718.25
1428.689694	719.25
1429.216177	718.0
1429.742605	716.75
1430.268978	719.5
1430.795296	714.5
1431.321558	713.75
1431.847765	717.25
1432.373917	712.5
1432.900014	719.25
1433.426056	714.25
1433.952042	712.75
1434.477973	715.0
1435.003849	713.5
1435.529669	715.75
1436.055435	713.75
1436.581145	717.75
1437.1068	714.75
1437.632399	716.75
1438.157944	716.25
1438.683433	720.5
1439.208868	714.75
1439.734247	710.5
1440.25957	714.75
1440.784839	715.5
1441.310053	714.25
1441.835211	715.25
1442.360314	712.0
1442.885362	720.5
1443.410355	715.0
1443.935292	715.25
1444.460175	719.0
1444.985002	714.25
1445.509774	714.75
1446.034491	716.25
1446.559153	715.5
1447.08376	719.75
1447.608312	716.75
1448.132808	716.75
1448.65725	712.75
1449.181636	719.75
1449.705967	717.5
1450.230243	713.0
1450.754464	717.75
1451.27863	714.5
1451.802741	714.75
1452.326797	712.75
1452.850797	710.75
1453.374743	714.0
1453.898633	712.5
1454.422468	715.5
1454.946249	721.5
1455.469974	714.75
1455.993644	716.5
1456.517259	723.75
1457.040819	716.25
1457.564324	716.75
1458.087773	711.75
1458.611168	716.25
1459.134508	712.5
1459.657793	713.5
1460.181022	716.25
1460.704197	716.75
1461.227316	715.5
1461.750381	713.5
1462.27339	718.5
1462.796345	716.0
1463.319244	715.5
1463.842089	720.75
1464.364878	711.0
1464.887613	715.75
1465.410292	715.25
1465.932916	713.25
1466.455486	716.0
1466.978	721.75
1467.50046	714.25
1468.022864	717.0
1468.545214	712.75
1469.067508	714.75
1469.589748	720.75
1470.111932	718.75
1470.634062	712.0
1471.156136	715.25
1471.678156	715.5
1472.20012	716.25
1472.72203	719.75
1473.243885	714.5
1473.765685	712.25
1474.28743	718.25
1474.80912	715.5
1475.330755	713.75
1475.852335	711.0
1476.37386	707.75
1476.89533	711.0
1477.416745	713.5
1477.938106	715.75
1478.459411	721.0
1478.980662	711.5
1479.501857	714.25
1480.022998	710.75
1480.544084	717.75
1481.065115	713.5
1481.586091	715.75
1482.107012	716.5
1482.627878	714.5
1483.14869	715.0
1484.190148	724.5
1484.710794	714.5
1485.231386	720.5
1485.751923	714.75
1486.272406	713.75
1486.792833	713.0
1487.313205	714.75
1487.833523	713.5
1488.353786	713.0
1488.873994	715.25
1489.394147	714.25
1489.914245	715.25
1490.434288	712.0
1490.954277	714.0
1491.474211	711.25
1491.99409	719.0
1492.513914	713.25
1493.033683	713.0
1493.553398	717.5
1494.073057	718.25
1494.592662	714.0
1495.112212	709.5
1495.631708	715.75
1496.151148	714.5
1496.670534	714.75
1497.189865	715.0
1497.709141	717.25
1498.228362	714.5
1498.747529	715.25
1499.266641	714.0
1499.785698	718.5
1500.3047	710.5
1500.823648	712.5
1501.34254	717.5
1501.861379	715.25
1502.380162	711.25
1502.89889	714.0
1503.417564	713.25
1503.936183	716.25
1504.454748	713.75
1504.973257	716.0
1505.491712	714.5
1506.010112	715.75
1506.528458	716.0
1507.046748	712.0
1507.564984	715.5
1508.083166	714.5
1508.601292	713.75
1509.119364	716.5
1509.637381	711.75
1510.155344	717.75
1510.673252	725.0
1511.191105	712.25
1511.708903	716.25
1512.226647	714.5
1512.744336	716.75
1513.261971	714.75
1513.77955	713.25
1514.297076	713.25
1514.814546	716.5
1515.331962	707.5
1515.849323	712.5
1516.366629	712.5
1516.883881	711.75
1517.401078	714.5
1517.918221	712.75
1518.435309	715.25
1518.952342	713.25
1519.469321	714.75
1519.986245	713.0
1520.503114	712.0
1521.019929	718.0
1521.536689	714.25
1522.053395	715.5
1522.570046	714.0
1523.086642	712.0
1523.603184	714.0
1524.119671	715.5
1524.636103	712.75
1525.152481	718.0
1525.668805	713.25
1526.185073	717.75
1526.701288	710.75
1527.217447	713.75
1527.733552	717.5
1528.249603	716.75
1528.765599	716.25
1529.28154	716.0
1529.797427	710.25
1530.313259	715.0
1530.829037	713.25
1531.34476	720.0
1531.860429	711.25
1532.376043	713.25
1532.891602	712.5
1533.407107	716.25
1533.922558	718.25
1534.437954	715.25
1534.953295	713.25
1535.468582	711.75
1535.983815	712.0
1536.498993	713.5
1537.014116	715.5
1537.529185	713.5
1538.044199	718.75
1538.559159	715.5
1539.074064	720.0
1539.588915	713.75
1540.103712	716.75
1540.618454	711.75
1541.133141	715.25
1541.647774	713.5
1542.162353	717.5
1542.676877	712.25
1543.191346	716.25
1543.705761	713.0
1544.220122	720.75
1544.734428	713.5
1545.24868	711.25
1545.762877	715.5
1546.27702	715.5
1546.791109	715.75
1547.305143	715.5
1547.819122	711.0
1548.333047	714.5
1548.846918	715.75
1549.360734	720.0
1549.874496	718.0
1550.388204	719.0
1550.901857	719.25
1551.415455	715.5
1551.929	717.25
1552.442489	718.75
1552.955925	715.5
1553.469306	712.0
1553.982632	708.25
1554.495905	715.5
1555.009123	718.0
1555.522286	715.0
1556.035395	716.25
1556.54845	713.75
1557.06145	711.75
1557.574396	715.75
1558.087288	713.25
1558.600125	714.75
1559.112908	717.0
1559.625637	717.25
1560.138311	717.75
1560.650931	716.75
1561.163497	714.0
1561.676008	715.5
1562.188465	716.75
1562.700867	714.75
1563.213216	717.25
1563.725509	718.0
1564.237749	716.5
1564.749934	718.75
1565.262065	713.5
1565.774142	717.5
1566.286164	718.75
1566.798132	713.5
1567.310046	714.5
1567.821906	715.25
1568.333711	718.25
1568.845462	712.0
1569.357158	718.25
1569.868801	714.75
1570.380389	719.0
1570.891922	717.25
1571.403402	716.5
1571.914827	718.75
1572.426198	719.5
1572.937515	713.5
1573.448777	718.75
1573.959985	716.75
1574.471139	715.75
1574.982239	715.5
1575.493285	716.0
1576.004276	718.0
1576.515213	720.25
1577.026096	723.25
1577.536924	717.25
1578.047698	721.5
1578.558419	718.25
1579.069084	725.0
1579.579696	722.25
1580.090254	720.0
1580.600757	720.25
1581.111206	718.0
1581.621601	723.25
1582.131941	719.75
1582.642228	723.25
1583.15246	718.75
1583.662638	722.5
1584.172762	724.75
1584.682832	716.25
1585.192847	717.0
1585.702809	723.25
1586.212716	716.5
1586.722569	718.75
1587.232368	717.25
1587.742113	717.0
1588.251803	716.25
1588.76144	718.75
1589.271022	716.25
1589.78055	718.75
1590.290024	716.75
1590.799444	721.5
1591.30881	719.0
1591.818121	720.0
1592.327379	720.75
