1042.414189	905.0
1042.980685	911.75
1043.547124	909.75
1044.113505	907.5
1044.679828	906.0
1045.246093	901.75
1045.8123	905.5
1046.378449	896.5
1046.94454	904.5
1047.510573	894.75
1048.076548	897.25
1048.642465	886.25
1049.208325	886.25
1049.774126	884.5
1050.339869	872.75
1050.905555	877.0
1051.471183	872.75
1052.036752	863.0
1052.602264	866.5
1053.167718	856.25
1053.733114	853.75
1054.298452	855.75
1054.863733	848.25
1055.428955	832.0
1055.994119	855.0
1056.559226	829.0
1057.124275	839.25
1057.689266	825.25
1058.254199	840.0
1058.819074	824.25
1059.383891	829.25
1059.94865	830.25
1060.513352	826.5
1061.077996	828.0
1061.642582	835.5
1062.20711	833.5
1062.77158	826.75
1063.335992	830.0
1063.900347	835.5
1064.464643	834.75
1065.028882	821.75
1065.593063	828.25
1066.157187	833.0
1066.721252	831.0
1067.28526	825.75
1067.84921	826.5
1068.413102	823.5
1068.976936	826.75
1069.540713	831.25
1070.104431	837.75
1070.668092	827.25
1071.231696	827.0
1071.795241	829.5
1072.358729	818.5
1072.922159	817.5
1073.485531	827.5
1074.048845	824.75
1074.612102	827.25
1075.175301	827.25
1075.738442	824.0
1076.301525	831.75
1076.864551	824.25
1077.427519	819.75
1077.990429	835.0
1078.553281	834.75
1079.116076	825.75
1079.678813	834.25
1080.241492	834.5
1080.804114	821.0
1081.366678	828.25
1081.929184	818.75
1082.491633	828.5
1083.054024	820.5
1083.616357	832.0
1084.178632	828.0
1084.74085	830.75
1085.30301	824.25
1085.865113	822.75
1086.427158	820.5
1086.989145	823.25
1087.551074	825.25
1088.112946	832.25
1088.67476	832.0
1089.236517	829.25
1089.798216	832.5
1090.359857	831.25
1090.92144	832.25
1091.482966	833.25
1092.044435	825.25
1092.605845	829.0
1093.167199	821.25
1093.728494	834.0
1094.289732	822.75
1094.850912	828.0
1095.412035	836.25
1095.9731	828.25
1096.534107	829.75
1097.095057	840.0
1097.65595	820.25
1098.216784	827.5
1098.777561	832.0
1099.338281	834.75
1099.898943	824.0
1100.459547	831.75
1101.020094	828.0
1101.580584	820.25
1102.141015	829.75
1102.701389	831.25
1103.261706	829.5
1103.821965	826.25
1104.382167	834.5
1104.942311	825.0
1105.502397	829.25
1106.062426	832.25
1106.622398	827.5
1107.182312	819.75
1107.742168	836.0
1108.301967	829.5
1108.861708	832.5
1109.421392	828.0
1109.981019	830.25
1110.540587	833.25
1111.100099	822.0
1111.659553	835.0
1112.218949	836.5
1112.778288	828.75
1113.33757	833.0
1113.896794	830.25
1114.45596	836.0
1115.015069	833.0
1115.574121	834.75
1116.133115	835.25
1116.692052	835.75
1117.250931	830.75
1117.809753	832.75
1118.368517	844.75
1118.927224	831.25
1119.485873	827.0
1120.044465	831.5
1120.603	821.75
1121.161477	833.5
1121.719897	833.0
1122.278259	832.0
1122.836564	836.0
1123.394812	831.5
1123.953002	832.25
1124.511135	830.0
1125.06921	826.25
1125.627228	828.25
1126.185189	840.75
1126.743092	832.5
1127.300938	833.0
1127.858726	837.25
1128.416457	827.0
1128.974131	837.25
1129.531748	835.0
1130.089307	827.0
1130.646808	825.5
1131.204252	831.75
1131.761639	838.25
1132.318969	834.25
1132.876241	827.0
1133.433456	824.5
1133.990614	839.25
1134.547714	831.25
1135.104757	848.25
1135.661743	831.75
1136.218671	834.5
1136.775542	843.25
1137.332356	837.25
1137.889112	838.0
1138.445811	834.75
1139.002453	838.75
1139.559037	832.25
1140.115565	832.5
1140.672035	835.75
1141.228447	838.5
1141.784803	839.75
1142.341101	842.75
1142.897342	836.75
1143.453525	841.0
1144.009651	834.0
1144.565721	839.0
1145.121732	845.75
1145.677687	834.25
1146.233584	835.75
1146.789424	839.25
1147.345207	842.5
1147.900933	836.75
1148.456601	837.0
1149.012212	832.5
1149.567766	835.25
1150.123263	838.25
1150.678702	831.25
1151.234085	835.25
1151.78941	829.25
1152.344678	832.0
1152.899888	823.75
1153.455042	833.5
1154.010138	833.5
1154.565177	834.0
1155.120159	829.75
1155.675084	836.5
1156.229951	829.75
1156.784762	834.75
1157.339515	828.5
1157.894211	828.25
1158.44885	829.25
1159.003432	834.25
1159.557956	832.0
1160.112424	838.5
1160.666834	842.25
1161.221187	831.25
1161.775483	847.25
1162.329722	839.25
1162.883904	840.75
1163.438029	849.75
1163.992096	849.25
1164.546107	848.25
1165.10006	846.25
1165.653956	847.25
1166.207795	856.5
1166.761577	859.5
1167.315302	852.5
1167.86897	861.25
1168.422581	854.25
1168.976134	852.25
1169.529631	848.5
1170.08307	848.0
1170.636453	845.0
1171.189778	845.5
1171.743046	850.0
1172.296257	842.0
1172.849412	842.25
1173.402509	841.75
1173.955549	841.5
1174.508532	840.0
1175.061458	833.25
1175.614327	827.0
1176.167138	828.5
1176.719893	832.5
1177.272591	834.0
1177.825232	833.25
1178.377816	827.0
1178.930342	838.0
1179.482812	830.75
1180.035225	822.25
1180.587581	833.75
1181.139879	831.0
1181.692121	830.25
1182.244306	828.25
1182.796434	832.75
1183.348504	835.75
1183.900518	840.75
1184.452475	834.5
1185.004375	824.5
1185.556218	832.5
1186.108004	829.75
1186.659733	830.75
1187.211405	830.0
1187.76302	825.75
1188.314578	827.0
1188.866079	836.75
1189.417523	830.75
1189.96891	826.25
1190.520241	828.25
1191.071514	828.75
1191.622731	824.25
1192.17389	830.5
1192.724993	830.75
1193.276039	849.75
1193.827027	830.25
1194.377959	830.0
1194.928834	833.0
1195.479653	822.75
1196.030414	829.25
1196.581118	827.5
1197.131766	827.75
1197.682356	832.5
1198.23289	831.25
1198.783367	828.75
1199.333786	825.5
1199.88415	824.25
1200.434456	828.75
1200.984705	828.25
1201.534898	830.25
1202.085033	821.75
1202.635112	834.0
1203.185134	833.25
1203.735099	829.0
1204.285007	826.0
1204.834859	823.25
1205.384653	833.75
1205.934391	833.5
1206.484072	827.0
1207.033696	830.25
1207.583263	827.75
1208.132774	828.25
1208.682228	828.25
1209.231624	825.75
1209.780965	832.75
1210.330248	832.0
1210.879474	829.5
1211.428644	829.5
1211.977757	834.0
1212.526813	833.5
1213.075813	828.0
1213.624755	830.75
1214.173641	834.25
1214.72247	834.0
1215.271242	832.75
1215.819958	834.5
1216.368617	836.5
1216.917219	833.5
1217.465764	828.5
1218.014253	827.5
1218.562685	832.25
1219.11106	830.0
1219.659378	835.25
1220.20764	833.0
1220.755845	829.75
1221.303993	822.75
1221.852085	831.75
1222.400119	825.0
1222.948097	834.0
1223.496019	832.5
1224.043883	833.5
1224.591691	828.5
1225.139443	834.0
1225.687137	825.25
1226.234775	842.0
1226.782357	833.75
1227.329881	833.75
1227.877349	832.25
1228.42476	841.0
1228.972115	838.25
1229.519413	840.75
1230.066654	839.75
1230.613839	833.5
1231.160967	834.75
1231.708038	835.5
1232.255053	825.0
1232.802011	837.5
1233.348912	839.0
1233.895757	839.75
1234.442545	831.5
1234.989277	833.25
1235.535951	834.75
1236.08257	847.25
1236.629131	843.5
1237.175636	833.75
1237.722085	839.0
1238.268477	845.25
1238.814812	842.0
1239.361091	839.25
1239.907313	830.0
1240.453478	844.0
1240.999587	848.25
1241.54564	839.0
1242.091636	837.75
1242.637575	835.0
1243.183457	851.0
1243.729284	839.5
1244.275053	847.5
1244.820766	843.5
1245.366423	845.25
1245.912022	842.5
1246.457566	840.0
1247.003053	843.5
1247.548483	846.0
1248.093857	846.75
1248.639174	847.25
1249.184435	851.25
1249.729639	852.0
1250.274787	856.0
1250.819878	845.75
1251.364912	842.75
1251.909891	844.25
1252.454812	855.25
1252.999677	846.25
1253.544486	849.75
1254.089238	847.5
1254.633934	850.0
1255.178573	856.75
1255.723156	850.25
1256.267682	852.5
1256.812152	849.25
1257.356565	841.25
1257.900922	857.25
1258.445223	853.5
1258.989467	854.5
1259.533654	854.5
1260.077785	874.75
1260.62186	858.75
1261.165878	859.5
1261.70984	852.75
1262.253745	852.25
1262.797594	866.75
1263.341386	865.0
1263.885123	857.0
1264.428802	864.25
1264.972425	878.75
1265.515992	879.25
1266.059503	873.5
1266.602957	871.0
1267.146354	864.75
1267.689696	864.25
1268.23298	870.25
1268.776209	865.25
1269.319381	867.25
1269.862497	868.0
1270.405556	863.25
1270.948559	871.25
1271.491506	867.25
1272.034396	866.5
1272.57723	868.0
1273.120007	871.5
1273.662728	867.5
1274.205393	866.25
1274.748002	873.5
1275.290554	884.25
1275.83305	874.0
1276.375489	878.75
1276.917872	869.75
1277.460199	880.0
1278.00247	868.0
1278.544684	874.25
1279.086842	875.5
1279.628943	880.75
1280.170989	877.25
1280.712978	865.75
1281.25491	874.25
1281.796787	873.5
1282.338607	895.75
1282.880371	880.75
1283.422078	875.75
1283.963729	902.0
1284.505324	922.5
1285.046863	1011.75
1285.588345	1154.0
1286.129772	1124.5
1286.671142	965.25
1287.212455	901.0
1287.753713	881.25
1288.294914	884.0
1288.836059	882.5
1289.377147	887.5
1289.91818	877.75
1290.459156	870.75
1291.000076	883.75
1291.54094	880.75
1292.081747	880.75
1292.622499	885.25
1293.163194	877.25
1293.703833	872.5
1294.244415	888.0
1294.784942	875.0
1295.325412	878.5
1295.865826	884.0
1296.406184	883.25
1296.946486	878.25
1297.486731	880.75
1298.026921	886.5
1298.567054	880.0
1299.107131	877.25
1299.647152	878.75
1300.187116	882.25
1300.727025	885.5
1301.266877	880.5
1301.806673	881.75
1302.346413	880.75
1302.886097	883.0
1303.425725	882.25
1303.965297	867.25
1304.504812	885.0
1305.044272	876.75
1305.583675	882.75
1306.123022	879.25
1306.662313	866.5
1307.201548	868.0
1307.740727	878.75
1308.279849	878.75
1308.818916	869.25
1309.357926	861.75
1309.896881	870.25
1310.435779	866.25
1310.974621	865.25
1311.513407	867.5
1312.052137	863.0
1312.590811	858.25
1313.129429	856.75
1313.667991	848.75
1314.206497	850.25
1314.744946	852.25
1315.28334	851.75
1315.821678	853.75
1316.359959	847.0
1316.898184	853.5
1317.436354	859.0
1317.974467	838.0
1318.512525	844.25
1319.050526	849.25
1319.588471	850.0
1320.12636	850.25
1320.664194	839.75
1321.201971	842.5
1321.739692	836.5
1322.277357	846.5
1322.814967	850.75
1323.35252	841.5
1323.890017	848.25
1324.427458	839.0
1324.964843	845.75
1325.502173	855.25
1326.039446	845.5
1326.576663	837.5
1327.113824	843.5
1327.65093	837.25
1328.187979	841.75
1328.724972	840.25
1329.26191	843.25
1329.798791	853.75
1330.335617	843.75
1330.872386	832.5
1331.4091	843.75
1331.945758	843.5
1332.48236	839.5
1333.018905	841.5
1333.555395	835.5
1334.091829	831.0
1334.628207	839.75
1335.164529	840.25
1335.700796	849.75
1336.237006	840.25
1336.77316	835.75
1337.309259	835.0
1337.845301	842.0
1338.381288	841.5
1338.917219	840.25
1339.453094	844.0
1339.988913	840.25
1340.524676	844.0
1341.060383	838.75
1341.596034	827.75
1342.13163	846.5
1342.66717	842.5
1343.202653	840.0
1343.738081	842.25
1344.273453	846.0
1344.80877	841.0
1345.34403	844.75
1345.879235	839.0
1346.414383	844.0
1346.949476	830.0
1347.484513	851.0
1348.019494	840.0
1348.55442	836.25
1349.089289	839.5
1349.624103	841.0
1350.158861	841.75
1350.693563	844.25
1351.228209	844.75
1351.7628	829.0
1352.297334	841.75
1352.831813	843.75
1353.366236	847.75
1353.900604	845.0
1354.434915	844.25
1354.969171	840.5
1355.503371	846.25
1356.037515	838.25
1356.571604	843.25
1357.105636	837.25
1357.639613	845.0
1358.173535	841.5
1358.7074	842.25
1359.24121	843.0
1359.774964	843.75
1360.308662	847.5
1360.842304	850.5
1361.375891	841.5
1361.909422	847.0
1362.442897	841.0
1362.976317	842.0
1363.50968	840.5
1364.042989	841.0
1364.576241	852.5
1365.109438	847.25
1365.642579	848.5
1366.175664	843.75
1366.708693	848.75
1367.241667	842.5
1367.774585	848.25
1368.307448	858.0
1368.840255	845.0
1369.373006	843.0
1369.905701	850.0
1370.438341	857.0
1370.970925	850.25
1371.503454	850.75
1372.035926	849.25
1372.568344	844.75
1373.100705	844.25
1373.633011	844.0
1374.165261	848.75
1374.697456	854.25
1375.229595	845.25
1375.761678	837.75
1376.293705	849.5
1376.825677	846.5
1377.357594	839.5
1377.889455	854.0
1378.42126	851.25
1378.953009	847.75
1379.484703	848.75
1380.016342	849.25
1380.547924	857.25
1381.079452	842.25
1381.610923	845.0
1382.142339	851.25
1382.673699	855.75
1383.205004	843.75
1383.736253	847.25
1384.267447	842.75
1384.798585	854.25
1385.329668	839.75
1385.860695	850.75
1386.391666	859.75
1386.922582	867.5
1387.453442	870.5
1387.984247	911.5
1388.514996	1065.75
1389.04569	1372.5
1389.576328	1207.0
1390.10691	949.25
1390.637437	870.0
1391.167909	852.25
1391.698325	850.25
1392.228685	856.0
1392.75899	848.5
1393.28924	849.5
1393.819434	842.0
1394.349572	854.0
1394.879655	854.0
1395.409683	848.25
1395.939655	849.75
1396.469571	857.75
1396.999432	842.75
1397.529237	838.75
1398.058987	846.25
1398.588682	841.5
1399.118321	850.5
1399.647905	855.25
1400.177433	846.75
1400.706906	852.0
1401.236323	854.0
1401.765685	848.25
1402.294991	851.75
1402.824242	853.75
1403.353437	857.0
1403.882577	852.0
1404.411662	854.0
1404.940691	847.25
1405.469665	851.75
1405.998583	852.75
1406.527446	848.75
1407.056253	850.0
1407.585005	849.0
1408.113702	843.25
1408.642343	850.0
1409.170929	860.25
1409.69946	869.75
1410.227935	883.75
1410.756354	887.0
1411.284719	868.5
1411.813028	861.75
1412.341281	846.0
1412.869479	850.0
1413.397622	847.75
1413.92571	838.0
1414.453742	849.75
1414.981718	852.0
1415.50964	861.5
1416.037506	850.0
1416.565316	844.5
1417.093072	849.75
1417.620772	847.25
1418.148416	852.0
1418.676005	845.25
1419.203539	855.75
1419.731018	853.0
1420.258441	848.5
1420.785809	845.0
1421.313122	850.0
1421.840379	848.5
1422.367582	854.25
1422.894728	851.0
1423.42182	844.25
1423.948856	851.75
1424.475837	846.25
1425.002762	853.5
1425.529633	851.25
1426.056448	848.0
1426.583207	847.75
1427.109912	844.75
1427.636561	846.0
1428.163155	852.5
1428.689694	847.75
1429.216177	850.0
1429.742605	849.0
1430.268978	847.75
1430.795296	851.0
1431.321558	852.5
1431.847765	847.75
1432.373917	845.75
1432.900014	851.75
1433.426056	842.25
1433.952042	857.25
1434.477973	853.5
1435.003849	858.5
1435.529669	855.75
1436.055435	857.0
1436.581145	853.0
1437.1068	846.0
1437.632399	856.5
1438.157944	854.25
1438.683433	849.5
1439.208868	859.0
1439.734247	853.25
1440.25957	850.0
1440.784839	846.75
1441.310053	857.0
1441.835211	857.75
1442.360314	846.5
1442.885362	855.0
1443.410355	855.5
1443.935292	858.0
1444.460175	850.75
1444.985002	854.0
1445.509774	859.5
1446.034491	861.0
1446.559153	862.75
1447.08376	860.0
1447.608312	861.75
1448.132808	858.0
1448.65725	868.25
1449.181636	864.0
1449.705967	868.5
1450.230243	858.5
1450.754464	860.0
1451.27863	858.5
1451.802741	864.0
1452.326797	862.25
1452.850797	860.75
1453.374743	860.25
1453.898633	857.25
1454.422468	865.5
1454.946249	866.25
1455.469974	858.25
1455.993644	858.25
1456.517259	857.75
1457.040819	870.5
1457.564324	858.5
1458.087773	855.75
1458.611168	861.25
1459.134508	852.5
1459.657793	857.75
1460.181022	853.0
1460.704197	853.75
1461.227316	859.0
1461.750381	852.75
1462.27339	855.5
1462.796345	850.75
1463.319244	860.75
1463.842089	847.25
1464.364878	849.0
1464.887613	856.0
1465.410292	848.25
1465.932916	852.75
1466.455486	832.75
1466.978	852.5
1467.50046	845.25
1468.022864	848.75
1468.545214	846.75
1469.067508	855.25
1469.589748	857.0
1470.111932	843.25
1470.634062	855.25
1471.156136	852.0
1471.678156	859.5
1472.20012	849.0
1472.72203	852.5
1473.243885	845.25
1473.765685	842.25
1474.28743	844.75
1474.80912	850.75
1475.330755	851.25
1475.852335	839.5
1476.37386	848.25
1476.89533	851.75
1477.416745	845.25
1477.938106	854.25
1478.459411	849.5
1478.980662	850.75
1479.501857	847.0
1480.022998	852.25
1480.544084	845.0
1481.065115	856.75
1481.586091	845.0
1482.107012	854.75
1483.669446	863.25
1484.190148	860.75
1484.710794	857.25
1485.231386	857.25
1485.751923	845.5
1486.272406	860.75
1486.792833	862.25
1487.313205	853.0
1487.833523	849.75
1488.353786	851.25
1488.873994	856.5
1489.394147	868.0
1489.914245	866.0
1490.434288	856.25
1490.954277	857.5
1491.474211	858.25
1491.99409	861.5
1492.513914	862.75
1493.033683	857.25
1493.553398	852.5
1494.073057	861.5
1494.592662	862.5
1495.112212	859.25
1495.631708	858.0
1496.151148	852.25
1496.670534	855.75
1497.189865	851.0
1497.709141	852.0
1498.228362	850.0
1498.747529	845.5
1499.266641	849.0
1499.785698	858.0
1500.3047	854.0
1500.823648	839.0
1501.34254	853.75
1501.861379	850.5
1502.380162	846.0
1502.89889	848.75
1503.417564	847.5
1503.936183	846.5
1504.454748	846.75
1504.973257	853.75
1505.491712	845.5
1506.010112	853.75
1506.528458	842.75
1507.046748	849.25
1507.564984	845.75
1508.083166	848.0
1508.601292	850.5
1509.119364	852.5
1509.637381	851.25
1510.155344	847.5
1510.673252	854.25
1511.191105	848.0
1511.708903	841.25
1512.226647	857.25
1512.744336	853.25
1513.261971	846.25
1513.77955	844.75
1514.297076	852.5
1514.814546	851.0
1515.331962	854.25
1515.849323	846.0
1516.366629	848.75
1516.883881	851.5
1517.401078	847.5
1517.918221	844.25
1518.435309	847.5
1518.952342	848.5
1519.469321	844.5
1519.986245	848.0
1520.503114	846.75
1521.019929	841.75
1521.536689	853.75
1522.053395	850.75
1522.570046	851.75
1523.086642	847.5
1523.603184	845.25
1524.119671	847.0
1524.636103	844.5
1525.152481	851.0
1525.668805	846.25
1526.185073	855.0
1526.701288	844.25
1527.217447	842.0
1527.733552	846.75
1528.249603	853.5
1528.765599	848.75
1529.28154	843.0
1529.797427	847.25
1530.313259	848.25
1530.829037	847.5
1531.34476	846.75
1531.860429	855.75
1532.376043	848.0
1532.891602	845.25
1533.407107	851.5
1533.922558	856.25
1534.437954	844.25
1534.953295	854.5
1535.468582	844.0
1535.983815	847.25
1536.498993	851.5
1537.014116	849.25
1537.529185	847.0
1538.044199	852.5
1538.559159	855.0
1539.074064	852.75
1539.588915	857.5
1540.103712	853.0
1540.618454	843.25
1541.133141	862.0
1541.647774	849.0
1542.162353	840.75
1542.676877	857.0
1543.191346	851.0
1543.705761	848.25
1544.220122	853.0
1544.734428	856.75
1545.24868	852.0
1545.762877	847.5
1546.27702	850.25
1546.791109	840.0
1547.305143	858.25
1547.819122	852.0
1548.333047	856.75
1548.846918	855.25
1549.360734	851.75
1549.874496	855.5
1550.388204	850.25
1550.901857	848.25
1551.415455	849.25
1551.929	844.5
1552.442489	857.5
1552.955925	856.0
1553.469306	856.75
1553.982632	854.25
1554.495905	853.5
1555.009123	852.5
1555.522286	845.75
1556.035395	855.0
1556.54845	852.5
1557.06145	859.75
1557.574396	851.5
1558.087288	851.75
1558.600125	852.25
1559.112908	858.25
1559.625637	850.0
1560.138311	851.75
1560.650931	862.25
1561.163497	856.0
1561.676008	861.0
1562.188465	859.0
1562.700867	858.75
1563.213216	853.5
1563.725509	858.75
1564.237749	861.0
1564.749934	852.25
1565.262065	855.5
1565.774142	855.0
1566.286164	859.5
1566.798132	859.5
1567.310046	868.25
1567.821906	864.5
1568.333711	866.5
1568.845462	860.0
1569.357158	870.75
1569.868801	860.0
1570.380389	860.5
1570.891922	857.25
1571.403402	864.0
1571.914827	862.0
1572.426198	864.5
1572.937515	870.5
1573.448777	864.25
1573.959985	860.25
1574.471139	866.75
1574.982239	870.25
1575.493285	863.75
1576.004276	870.75
1576.515213	869.0
1577.026096	867.25
1577.536924	884.75
1578.047698	890.5
1578.558419	889.0
1579.069084	885.0
1579.579696	884.0
1580.090254	896.5
1580.600757	902.25
1581.111206	891.5
1581.621601	897.0
1582.131941	886.75
1582.642228	894.75
1583.15246	887.75
1583.662638	891.5
1584.172762	890.25
1584.682832	880.25
1585.192847	877.0
1585.702809	880.5
1586.212716	872.75
1586.722569	873.0
1587.232368	875.5
1587.742113	869.25
1588.251803	869.25
1588.76144	881.75
1589.271022	869.0
1589.78055	869.75
1590.290024	876.5
1590.799444	871.0
1591.30881	867.75
1591.818121	867.75
1592.327379	875.0
