1042.414189	708.75
1042.980685	715.0
1043.547124	706.75
1044.113505	714.5
1044.679828	711.0
1045.246093	706.25
1045.8123	709.0
1046.378449	708.5
1046.94454	711.25
1047.510573	706.25
1048.076548	712.75
1048.642465	704.0
1049.208325	707.75
1049.774126	702.25
1050.339869	702.75
1050.905555	704.0
1051.471183	704.0
1052.036752	706.5
1052.602264	705.5
1053.167718	703.25
1053.733114	701.75
1054.298452	706.5
1054.863733	707.5
1055.428955	701.0
1055.994119	702.25
1056.559226	702.0
1057.124275	699.5
1057.689266	700.25
1058.254199	703.5
1058.819074	694.5
1059.383891	694.75
1059.94865	699.75
1060.513352	700.75
1061.077996	701.75
1061.642582	699.25
1062.20711	701.5
1062.77158	702.75
1063.335992	705.0
1063.900347	700.0
1064.464643	700.0
1065.028882	697.5
1065.593063	700.0
1066.157187	700.25
1066.721252	700.75
1067.28526	703.75
1067.84921	700.25
1068.413102	701.0
1068.976936	701.25
1069.540713	702.0
1070.104431	707.5
1070.668092	698.75
1071.231696	700.25
1071.795241	696.0
1072.358729	701.5
1072.922159	701.5
1073.485531	698.0
1074.048845	701.0
1074.612102	699.0
1075.175301	696.0
1075.738442	701.0
1076.301525	700.25
1076.864551	702.75
1077.427519	697.5
1077.990429	698.5
1078.553281	702.5
1079.116076	697.25
1079.678813	699.25
1080.241492	698.25
1080.804114	696.0
1081.366678	702.0
1081.929184	693.75
1082.491633	702.5
1083.054024	703.25
1083.616357	701.25
1084.178632	701.75
1084.74085	701.75
1085.30301	703.75
1085.865113	699.0
1086.427158	697.25
1086.989145	703.0
1087.551074	706.5
1088.112946	700.5
1088.67476	697.5
1089.236517	702.0
1089.798216	704.5
1090.359857	702.5
1090.92144	701.75
1091.482966	701.25
1092.044435	704.0
1092.605845	704.25
1093.167199	699.75
1093.728494	697.75
1094.289732	698.5
1094.850912	700.5
1095.412035	713.0
1095.9731	699.0
1096.534107	701.5
1097.095057	706.25
1097.65595	699.0
1098.216784	696.0
1098.777561	700.5
1099.338281	693.25
1099.898943	701.0
1100.459547	696.5
1101.020094	696.5
1101.580584	700.75
1102.141015	699.0
1102.701389	697.25
1103.261706	697.75
1103.821965	700.75
1104.382167	701.5
1104.942311	700.75
1105.502397	704.5
1106.062426	702.25
1106.622398	696.5
1107.182312	699.0
1107.742168	696.25
1108.301967	701.0
1108.861708	698.25
1109.421392	697.25
1109.981019	699.25
1110.540587	697.25
1111.100099	698.75
1111.659553	696.25
1112.218949	697.0
1112.778288	698.75
1113.33757	699.25
1113.896794	695.25
1114.45596	703.0
1115.015069	697.0
1115.574121	696.0
1116.133115	701.5
1116.692052	697.25
1117.250931	698.25
1117.809753	702.25
1118.368517	699.0
1118.927224	694.75
1119.485873	699.75
1120.044465	701.75
1120.603	691.5
1121.161477	700.25
1121.719897	694.5
1122.278259	693.25
1122.836564	700.5
1123.394812	696.0
1123.953002	698.0
1124.511135	695.75
1125.06921	699.0
1125.627228	703.0
1126.185189	696.0
1126.743092	697.75
1127.300938	703.25
1127.858726	698.5
1128.416457	704.25
1128.974131	702.5
1129.531748	701.0
1130.089307	699.75
1130.646808	700.75
1131.204252	699.5
1131.761639	699.25
1132.318969	700.75
1132.876241	698.25
1133.433456	697.5
1133.990614	696.5
1134.547714	698.75
1135.104757	699.0
1135.661743	699.0
1136.218671	695.25
1136.775542	699.0
1137.332356	699.0
1137.889112	700.0
1138.445811	698.5
1139.002453	700.0
1139.559037	696.5
1140.115565	698.5
1140.672035	693.5
1141.228447	698.25
1141.784803	699.0
1142.341101	694.5
1142.897342	696.5
1143.453525	697.75
1144.009651	699.5
1144.565721	700.75
1145.121732	702.25
1145.677687	698.0
1146.233584	699.0
1146.789424	701.5
1147.345207	695.25
1147.900933	696.75
1148.456601	691.75
1149.012212	697.0
1149.567766	696.75
1150.123263	699.75
1150.678702	701.5
1151.234085	704.5
1151.78941	698.5
1152.344678	693.75
1152.899888	696.75
1153.455042	701.25
1154.010138	696.75
1154.565177	695.5
1155.120159	698.75
1155.675084	699.5
1156.229951	696.75
1156.784762	695.75
1157.339515	699.25
1157.894211	702.25
1158.44885	695.5
1159.003432	698.25
1159.557956	702.5
1160.112424	702.5
1160.666834	698.5
1161.221187	701.0
1161.775483	698.75
1162.329722	698.25
1162.883904	699.25
1163.438029	697.0
1163.992096	700.75
1164.546107	696.75
1165.10006	699.25
1165.653956	701.0
1166.207795	695.5
1166.761577	701.25
1167.315302	695.5
1167.86897	698.25
1168.422581	700.25
1168.976134	698.25
1169.529631	699.75
1170.08307	702.25
1170.636453	701.25
1171.189778	701.5
1171.743046	697.75
1172.296257	693.5
1172.849412	697.5
1173.402509	702.0
1173.955549	701.0
1174.508532	698.75
1175.061458	698.75
1175.614327	699.5
1176.167138	695.25
1176.719893	699.75
1177.272591	696.5
1177.825232	701.0
1178.377816	698.5
1178.930342	698.0
1179.482812	698.0
1180.035225	699.0
1180.587581	700.75
1181.139879	698.75
1181.692121	701.0
1182.244306	693.75
1182.796434	697.75
1183.348504	698.0
1183.900518	699.5
1184.452475	701.5
1185.004375	704.5
1185.556218	702.5
1186.108004	699.5
1186.659733	697.75
1187.211405	696.25
1187.76302	698.75
1188.314578	698.75
1188.866079	701.75
1189.417523	699.25
1189.96891	697.75
1190.520241	700.0
1191.071514	697.0
1191.622731	696.25
1192.17389	698.75
1192.724993	700.0
1193.276039	721.25
1193.827027	696.25
1194.377959	697.5
1194.928834	698.25
1195.479653	702.5
1196.030414	697.5
1196.581118	701.25
1197.131766	702.25
1197.682356	699.5
1198.23289	697.25
1198.783367	695.5
1199.333786	699.25
1199.88415	696.75
1200.434456	700.25
1200.984705	699.0
1201.534898	699.5
1202.085033	697.5
1202.635112	697.25
1203.185134	696.75
1203.735099	702.5
1204.285007	697.75
1204.834859	699.75
1205.384653	697.0
1205.934391	698.75
1206.484072	694.5
1207.033696	700.5
1207.583263	695.5
1208.132774	696.75
1208.682228	701.0
1209.231624	700.25
1209.780965	701.0
1210.330248	698.25
1210.879474	700.5
1211.428644	699.5
1211.977757	698.25
1212.526813	700.75
1213.075813	699.25
1213.624755	698.0
1214.173641	699.25
1214.72247	701.5
1215.271242	702.75
1215.819958	697.0
1216.368617	699.0
1216.917219	699.5
1217.465764	701.0
1218.014253	701.5
1218.562685	700.0
1219.11106	703.5
1219.659378	703.75
1220.20764	701.0
1220.755845	699.5
1221.303993	700.25
1221.852085	701.25
1222.400119	697.25
1222.948097	701.75
1223.496019	697.75
1224.043883	699.25
1224.591691	701.0
1225.139443	701.5
1225.687137	699.75
1226.234775	703.75
1226.782357	700.0
1227.329881	704.75
1227.877349	704.5
1228.42476	698.0
1228.972115	699.75
1229.519413	693.5
1230.066654	697.25
1230.613839	701.25
1231.160967	698.5
1231.708038	698.0
1232.255053	696.75
1232.802011	699.75
1233.348912	696.75
1233.895757	702.5
1234.442545	699.75
1234.989277	698.75
1235.535951	699.0
1236.08257	702.5
1236.629131	702.0
1237.175636	703.75
1237.722085	695.0
1238.268477	701.0
1238.814812	701.75
1239.361091	700.5
1239.907313	693.75
1240.453478	703.5
1240.999587	696.5
1241.54564	698.0
1242.091636	701.5
1242.637575	703.0
1243.183457	695.25
1243.729284	701.25
1244.275053	704.0
1244.820766	702.0
1245.366423	704.5
1245.912022	698.75
1246.457566	698.75
1247.003053	700.0
1247.548483	700.5
1248.093857	705.25
1248.639174	703.5
1249.184435	703.25
1249.729639	700.75
1250.274787	699.5
1250.819878	702.25
1251.364912	700.75
1251.909891	700.25
1252.454812	703.25
1252.999677	694.25
1253.544486	701.0
1254.089238	704.0
1254.633934	700.75
1255.178573	699.25
1255.723156	698.75
1256.267682	698.75
1256.812152	700.75
1257.356565	702.5
1257.900922	702.25
1258.445223	701.75
1258.989467	703.75
1259.533654	702.0
1260.077785	726.5
1260.62186	706.75
1261.165878	700.75
1261.70984	703.0
1262.253745	704.25
1262.797594	701.25
1263.341386	703.0
1263.885123	704.75
1264.428802	712.0
1264.972425	712.75
1265.515992	719.25
1266.059503	721.5
1266.602957	709.5
1267.146354	706.0
1267.689696	704.75
1268.23298	711.5
1268.776209	705.75
1269.319381	701.25
1269.862497	704.25
1270.405556	703.25
1270.948559	704.25
1271.491506	705.0
1272.034396	702.0
1272.57723	704.0
1273.120007	705.25
1273.662728	703.25
1274.205393	703.25
1274.748002	703.0
1275.290554	702.5
1275.83305	700.75
1276.375489	706.0
1276.917872	705.75
1277.460199	703.5
1278.00247	706.75
1278.544684	707.75
1279.086842	705.25
1279.628943	697.0
1280.170989	707.75
1280.712978	706.5
1281.25491	707.75
1281.796787	704.75
1282.338607	706.0
1282.880371	711.75
1283.422078	716.5
1283.963729	731.5
1284.505324	759.25
1285.046863	851.25
1285.588345	983.25
1286.129772	921.75
1286.671142	784.0
1287.212455	732.25
1287.753713	710.5
1288.294914	712.25
1288.836059	708.0
1289.377147	708.5
1289.91818	705.5
1290.459156	708.0
1291.000076	703.25
1291.54094	703.75
1292.081747	702.0
1292.622499	704.0
1293.163194	704.25
1293.703833	704.0
1294.244415	705.5
1294.784942	702.0
1295.325412	705.5
1295.865826	701.75
1296.406184	704.25
1296.946486	704.75
1297.486731	700.25
1298.026921	703.5
1298.567054	702.75
1299.107131	699.5
1299.647152	706.5
1300.187116	701.0
1300.727025	701.0
1301.266877	706.5
1301.806673	698.75
1302.346413	700.0
1302.886097	700.75
1303.425725	702.25
1303.965297	705.5
1304.504812	697.75
1305.044272	699.75
1305.583675	703.25
1306.123022	700.0
1306.662313	704.5
1307.201548	703.25
1307.740727	701.5
1308.279849	700.5
1308.818916	700.5
1309.357926	705.25
1309.896881	701.75
1310.435779	699.0
1310.974621	699.75
1311.513407	701.0
1312.052137	701.25
1312.590811	701.75
1313.129429	696.75
1313.667991	704.75
1314.206497	702.75
1314.744946	702.0
1315.28334	698.75
1315.821678	699.25
1316.359959	699.0
1316.898184	703.5
1317.436354	702.25
1317.974467	704.5
1318.512525	701.25
1319.050526	698.5
1319.588471	700.0
1320.12636	704.5
1320.664194	702.5
1321.201971	704.5
1321.739692	700.5
1322.277357	703.5
1322.814967	701.25
1323.35252	699.5
1323.890017	708.5
1324.427458	702.75
1324.964843	701.0
1325.502173	705.5
1326.039446	699.75
1326.576663	702.75
1327.113824	700.25
1327.65093	702.0
1328.187979	700.0
1328.724972	699.25
1329.26191	698.75
1329.798791	706.5
1330.335617	700.0
1330.872386	700.5
1331.4091	705.75
1331.945758	698.25
1332.48236	698.5
1333.018905	702.5
1333.555395	702.75
1334.091829	697.75
1334.628207	703.25
1335.164529	702.25
1335.700796	700.75
1336.237006	702.5
1336.77316	699.0
1337.309259	700.5
1337.845301	699.0
1338.381288	702.5
1338.917219	701.25
1339.453094	697.5
1339.988913	702.5
1340.524676	701.5
1341.060383	703.25
1341.596034	699.25
1342.13163	704.0
1342.66717	701.25
1343.202653	703.5
1343.738081	700.25
1344.273453	697.5
1344.80877	698.0
1345.34403	703.75
1345.879235	698.75
1346.414383	703.25
1346.949476	704.0
1347.484513	703.75
1348.019494	704.25
1348.55442	701.75
1349.089289	702.25
1349.624103	698.75
1350.158861	704.0
1350.693563	703.75
1351.228209	705.5
1351.7628	701.0
1352.297334	703.0
1352.831813	700.25
1353.366236	704.25
1353.900604	707.5
1354.434915	700.25
1354.969171	701.5
1355.503371	698.5
1356.037515	699.75
1356.571604	698.25
1357.105636	701.5
1357.639613	701.75
1358.173535	701.25
1358.7074	699.25
1359.24121	699.0
1359.774964	703.5
1360.308662	700.0
1360.842304	700.75
1361.375891	703.0
1361.909422	704.0
1362.442897	703.75
1362.976317	700.75
1363.50968	702.75
1364.042989	702.0
1364.576241	701.5
1365.109438	700.0
1365.642579	704.75
1366.175664	702.0
1366.708693	703.75
1367.241667	702.75
1367.774585	710.75
1368.307448	699.75
1368.840255	701.25
1369.373006	703.25
1369.905701	705.5
1370.438341	704.5
1370.970925	711.75
1371.503454	699.5
1372.035926	700.5
1372.568344	706.0
1373.100705	704.75
1373.633011	703.0
1374.165261	703.5
1374.697456	700.25
1375.229595	701.25
1375.761678	706.75
1376.293705	704.25
1376.825677	706.25
1377.357594	704.75
1377.889455	702.0
1378.42126	703.25
1378.953009	700.25
1379.484703	710.0
1380.016342	703.75
1380.547924	703.25
1381.079452	702.75
1381.610923	701.25
1382.142339	701.75
1382.673699	704.25
1383.205004	705.5
1383.736253	708.75
1384.267447	708.25
1384.798585	708.75
1385.329668	706.0
1385.860695	707.0
1386.391666	714.0
1386.922582	723.25
1387.453442	733.25
1387.984247	776.0
1388.514996	948.75
1389.04569	1224.5
1389.576328	1047.0
1390.10691	802.0
1390.637437	735.0
1391.167909	717.75
1391.698325	713.0
1392.228685	708.75
1392.75899	709.75
1393.28924	705.5
1393.819434	710.0
1394.349572	708.5
1394.879655	703.0
1395.409683	702.25
1395.939655	707.0
1396.469571	701.75
1396.999432	703.0
1397.529237	703.25
1398.058987	705.0
1398.588682	707.75
1399.118321	702.75
1399.647905	703.0
1400.177433	703.25
1400.706906	707.25
1401.236323	705.0
1401.765685	705.75
1402.294991	703.75
1402.824242	702.0
1403.353437	703.0
1403.882577	703.25
1404.411662	699.5
1404.940691	706.25
1405.469665	705.75
1405.998583	700.75
1406.527446	706.0
1407.056253	701.5
1407.585005	704.0
1408.113702	708.0
1408.642343	706.0
1409.170929	711.25
1409.69946	724.75
1410.227935	734.5
1410.756354	733.5
1411.284719	723.25
1411.813028	711.5
1412.341281	708.25
1412.869479	707.0
1413.397622	707.75
1413.92571	699.25
1414.453742	705.0
1414.981718	703.25
1415.50964	711.25
1416.037506	703.0
1416.565316	700.5
1417.093072	704.25
1417.620772	704.5
1418.148416	703.75
1418.676005	704.0
1419.203539	701.75
1419.731018	702.5
1420.258441	698.0
1420.785809	705.75
1421.313122	701.75
1421.840379	701.5
1422.367582	701.0
1422.894728	706.75
1423.42182	701.5
1423.948856	702.0
1424.475837	705.0
1425.002762	704.5
1425.529633	705.0
1426.056448	708.0
1426.583207	702.75
1427.109912	705.75
1427.636561	705.5
1428.163155	707.25
1428.689694	706.75
1429.216177	703.25
1429.742605	704.75
1430.268978	701.25
1430.795296	704.0
1431.321558	701.75
1431.847765	700.25
1432.373917	704.0
1432.900014	702.0
1433.426056	703.75
1433.952042	700.75
1434.477973	704.25
1435.003849	700.75
1435.529669	699.5
1436.055435	702.25
1436.581145	703.75
1437.1068	703.5
1437.632399	700.25
1438.157944	698.0
1438.683433	705.0
1439.208868	699.5
1439.734247	702.25
1440.25957	701.5
1440.784839	700.25
1441.310053	696.75
1441.835211	702.0
1442.360314	701.5
1442.885362	703.25
1443.410355	699.25
1443.935292	707.0
1444.460175	701.75
1444.985002	698.75
1445.509774	702.5
1446.034491	702.5
1446.559153	704.25
1447.08376	704.25
1447.608312	703.5
1448.132808	704.25
1448.65725	702.75
1449.181636	701.25
1449.705967	699.5
1450.230243	699.25
1450.754464	701.5
1451.27863	699.75
1451.802741	703.5
1452.326797	704.75
1452.850797	701.0
1453.374743	702.75
1453.898633	703.5
1454.422468	707.75
1454.946249	704.0
1455.469974	701.5
1455.993644	699.75
1456.517259	702.75
1457.040819	699.75
1457.564324	702.0
1458.087773	702.25
1458.611168	705.5
1459.134508	701.25
1459.657793	700.5
1460.181022	702.0
1460.704197	701.75
1461.227316	703.0
1461.750381	702.75
1462.27339	703.25
1462.796345	703.0
1463.319244	701.25
1463.842089	701.5
1464.364878	702.25
1464.887613	700.5
1465.410292	701.25
1465.932916	702.5
1466.455486	701.0
1466.978	703.25
1467.50046	700.5
1468.022864	706.0
1468.545214	702.25
1469.067508	701.0
1469.589748	701.0
1470.111932	700.0
1470.634062	705.5
1471.156136	701.75
1471.678156	703.5
1472.20012	701.25
1472.72203	704.25
1473.243885	699.25
1473.765685	699.75
1474.28743	693.25
1474.80912	701.0
1476.37386	713.5
1476.89533	701.25
1477.416745	701.0
1477.938106	702.75
1478.459411	696.25
1478.980662	702.0
1479.501857	697.0
1480.022998	699.0
1480.544084	705.0
1481.065115	700.5
1481.586091	698.75
1482.107012	703.0
1482.627878	706.5
1483.14869	701.0
1483.669446	704.5
1484.190148	698.25
1484.710794	701.25
1485.231386	705.25
1485.751923	700.75
1486.272406	702.75
1486.792833	702.25
1487.313205	695.5
1487.833523	704.5
1488.353786	699.5
1488.873994	698.25
1489.394147	698.5
1489.914245	703.0
1490.434288	702.0
1490.954277	702.25
1491.474211	695.25
1491.99409	695.25
1492.513914	700.5
1493.033683	700.75
1493.553398	702.75
1494.073057	701.75
1494.592662	703.0
1495.112212	702.5
1495.631708	700.25
1496.151148	697.5
1496.670534	699.5
1497.189865	706.5
1497.709141	701.75
1498.228362	701.25
1498.747529	696.75
1499.266641	698.75
1499.785698	706.0
1500.3047	704.25
1500.823648	701.5
1501.34254	709.5
1501.861379	700.0
1502.380162	701.0
1502.89889	702.75
1503.417564	697.25
1503.936183	698.5
1504.454748	702.0
1504.973257	698.0
1505.491712	702.75
1506.010112	701.25
1506.528458	699.25
1507.046748	702.0
1507.564984	700.75
1508.083166	700.75
1508.601292	700.75
1509.119364	699.0
1509.637381	694.75
1510.155344	703.0
1510.673252	708.0
1511.191105	700.0
1511.708903	702.0
1512.226647	703.75
1512.744336	700.5
1513.261971	698.5
1513.77955	698.0
1514.297076	701.75
1514.814546	699.25
1515.331962	702.75
1515.849323	705.75
1516.366629	705.25
1516.883881	697.5
1517.401078	700.0
1517.918221	701.75
1518.435309	700.25
1518.952342	698.75
1519.469321	703.75
1519.986245	700.0
1520.503114	702.0
1521.019929	700.0
1521.536689	700.5
1522.053395	702.75
1522.570046	702.75
1523.086642	704.5
1523.603184	701.25
1524.119671	702.75
1524.636103	704.75
1525.152481	698.75
1525.668805	699.25
1526.185073	700.5
1526.701288	703.75
1527.217447	699.75
1527.733552	702.25
1528.249603	699.0
1528.765599	699.75
1529.28154	701.25
1529.797427	701.75
1530.313259	698.5
1530.829037	703.25
1531.34476	704.5
1531.860429	699.5
1532.376043	697.25
1532.891602	701.75
1533.407107	706.5
1533.922558	700.0
1534.437954	701.0
1534.953295	701.5
1535.468582	700.0
1535.983815	702.5
1536.498993	700.25
1537.014116	702.25
1537.529185	702.5
1538.044199	701.5
1538.559159	701.25
1539.074064	702.5
1539.588915	700.75
1540.103712	701.5
1540.618454	698.25
1541.133141	702.0
1541.647774	703.0
1542.162353	705.0
1542.676877	701.75
1543.191346	699.0
1543.705761	700.75
1544.220122	705.0
1544.734428	702.0
1545.24868	702.5
1545.762877	700.5
1546.27702	702.75
1546.791109	701.75
1547.305143	701.75
1547.819122	699.25
1548.333047	695.75
1548.846918	701.0
1549.360734	702.5
1549.874496	698.5
1550.388204	698.75
1550.901857	706.0
1551.415455	697.75
1551.929	700.25
1552.442489	700.25
1552.955925	700.75
1553.469306	707.5
1553.982632	698.25
1554.495905	702.0
1555.009123	698.5
1555.522286	701.5
1556.035395	698.25
1556.54845	701.25
1557.06145	701.25
1557.574396	701.75
1558.087288	700.75
1558.600125	705.0
1559.112908	700.0
1559.625637	700.5
1560.138311	698.75
1560.650931	696.5
1561.163497	704.0
1561.676008	703.5
1562.188465	705.75
1562.700867	705.5
1563.213216	697.25
1563.725509	702.5
1564.237749	702.75
1564.749934	702.0
1565.262065	699.0
1565.774142	701.0
1566.286164	702.0
1566.798132	704.0
1567.310046	703.0
1567.821906	705.75
1568.333711	703.25
1568.845462	706.75
1569.357158	700.25
1569.868801	701.75
1570.380389	705.5
1570.891922	702.75
1571.403402	702.25
1571.914827	701.25
1572.426198	701.75
1572.937515	703.5
1573.448777	700.75
1573.959985	704.75
1574.471139	699.25
1574.982239	707.75
1575.493285	698.5
1576.004276	700.75
1576.515213	701.75
1577.026096	704.0
1577.536924	700.5
1578.047698	700.0
1578.558419	703.25
1579.069084	700.75
1579.579696	706.5
1580.090254	703.25
1580.600757	699.75
1581.111206	701.75
1581.621601	703.25
1582.131941	704.25
1582.642228	706.0
1583.15246	701.25
1583.662638	701.25
1584.172762	698.25
1584.682832	702.0
1585.192847	699.75
1585.702809	702.5
1586.212716	703.0
1586.722569	700.0
1587.232368	702.0
1587.742113	703.75
1588.251803	697.75
1588.76144	703.75
1589.271022	704.75
1589.78055	701.25
1590.290024	697.75
1590.799444	701.0
1591.30881	702.5
1591.818121	698.75
1592.327379	700.25
