1042.414189	750.0
1042.980685	751.0
1043.547124	744.0
1044.113505	746.0
1044.679828	752.0
1045.246093	755.0
1045.8123	742.0
1046.378449	750.0
1046.94454	742.0
1047.510573	743.0
1048.076548	740.0
1048.642465	751.0
1049.208325	733.0
1049.774126	742.0
1050.339869	735.0
1050.905555	740.0
1051.471183	739.0
1052.036752	737.0
1052.602264	739.0
1053.167718	737.0
1053.733114	738.0
1054.298452	741.0
1054.863733	743.0
1055.428955	742.0
1055.994119	725.0
1056.559226	727.0
1057.124275	728.0
1057.689266	730.0
1058.254199	721.0
1058.819074	733.0
1059.383891	744.0
1059.94865	736.0
1060.513352	729.0
1061.077996	725.0
1061.642582	719.0
1062.20711	716.0
1062.77158	718.0
1063.335992	729.0
1063.900347	721.0
1064.464643	726.0
1065.028882	732.0
1065.593063	727.0
1066.157187	728.0
1066.721252	732.0
1067.28526	723.0
1067.84921	720.0
1068.413102	740.0
1068.976936	732.0
1069.540713	720.0
1070.104431	743.0
1070.668092	725.0
1071.231696	726.0
1071.795241	727.0
1072.358729	730.0
1072.922159	721.0
1073.485531	711.0
1074.048845	717.0
1074.612102	717.0
1075.175301	727.0
1075.738442	738.0
1076.301525	714.0
1076.864551	728.0
1077.427519	724.0
1077.990429	731.0
1078.553281	724.0
1079.116076	723.0
1079.678813	723.0
1080.241492	729.0
1080.804114	726.0
1081.366678	723.0
1081.929184	725.0
1082.491633	726.0
1083.054024	729.0
1083.616357	720.0
1084.178632	723.0
1084.74085	725.0
1085.30301	717.0
1085.865113	730.0
1086.427158	728.0
1086.989145	725.0
1087.551074	730.0
1088.112946	738.0
1088.67476	717.0
1089.236517	724.0
1089.798216	726.0
1090.359857	724.0
1090.92144	722.0
1091.482966	720.0
1092.044435	734.0
1092.605845	733.0
1093.167199	724.0
1093.728494	739.0
1094.289732	722.0
1094.850912	718.0
1095.412035	731.0
1095.9731	724.0
1096.534107	720.0
1097.095057	727.0
1097.65595	719.0
1098.216784	724.0
1098.777561	720.0
1099.338281	726.0
1099.898943	719.0
1100.459547	720.0
1101.020094	724.0
1101.580584	729.0
1102.141015	722.0
1102.701389	723.0
1103.261706	726.0
1103.821965	720.0
1104.382167	724.0
1104.942311	725.0
1105.502397	728.0
1106.062426	731.0
1106.622398	716.0
1107.182312	728.0
1107.742168	736.0
1108.301967	715.0
1108.861708	733.0
1109.421392	727.0
1109.981019	730.0
1110.540587	732.0
1111.100099	718.0
1111.659553	724.0
1112.218949	735.0
1112.778288	721.0
1113.33757	730.0
1113.896794	727.0
1114.45596	732.0
1115.015069	721.0
1115.574121	726.0
1116.133115	734.0
1116.692052	720.0
1117.250931	729.0
1117.809753	723.0
1118.368517	729.0
1118.927224	733.0
1119.485873	735.0
1120.044465	721.0
1120.603	723.0
1121.161477	733.0
1121.719897	734.0
1122.278259	727.0
1122.836564	733.0
1123.394812	734.0
1123.953002	723.0
1124.511135	729.0
1125.06921	724.0
1125.627228	731.0
1126.185189	731.0
1126.743092	733.0
1127.300938	735.0
1127.858726	730.0
1128.416457	732.0
1128.974131	728.0
1129.531748	729.0
1130.089307	735.0
1130.646808	737.0
1131.204252	725.0
1131.761639	729.0
1132.318969	719.0
1132.876241	726.0
1133.433456	721.0
1133.990614	728.0
1134.547714	725.0
1135.104757	729.0
1135.661743	730.0
1136.218671	733.0
1136.775542	729.0
1137.332356	730.0
1137.889112	727.0
1138.445811	729.0
1139.002453	723.0
1139.559037	731.0
1140.115565	725.0
1140.672035	725.0
1141.228447	726.0
1141.784803	731.0
1142.341101	731.0
1142.897342	733.0
1143.453525	729.0
1144.009651	727.0
1144.565721	727.0
1145.121732	733.0
1145.677687	725.0
1146.233584	734.0
1146.789424	727.0
1147.345207	727.0
1147.900933	730.0
1148.456601	728.0
1149.012212	720.0
1149.567766	724.0
1150.123263	724.0
1150.678702	731.0
1151.234085	729.0
1151.78941	721.0
1152.344678	730.0
1152.899888	734.0
1153.455042	724.0
1154.010138	731.0
1154.565177	725.0
1155.120159	734.0
1155.675084	728.0
1156.229951	726.0
1156.784762	726.0
1157.339515	730.0
1157.894211	738.0
1158.44885	733.0
1159.003432	732.0
1159.557956	723.0
1160.112424	724.0
1160.666834	729.0
1161.221187	735.0
1161.775483	728.0
1162.329722	737.0
1162.883904	727.0
1163.438029	731.0
1163.992096	731.0
1164.546107	735.0
1165.10006	740.0
1165.653956	731.0
1166.207795	724.0
1166.761577	743.0
1167.315302	741.0
1167.86897	741.0
1168.422581	734.0
1168.976134	737.0
1169.529631	733.0
1170.08307	732.0
1170.636453	737.0
1171.189778	733.0
1171.743046	735.0
1172.296257	726.0
1172.849412	738.0
1173.402509	732.0
1173.955549	727.0
1174.508532	726.0
1175.061458	735.0
1175.614327	721.0
1176.167138	718.0
1176.719893	723.0
1177.272591	726.0
1177.825232	736.0
1178.377816	719.0
1178.930342	731.0
1179.482812	734.0
1180.035225	741.0
1180.587581	720.0
1181.139879	729.0
1181.692121	739.0
1182.244306	729.0
1182.796434	727.0
1183.348504	723.0
1183.900518	738.0
1184.452475	722.0
1185.004375	722.0
1185.556218	729.0
1186.108004	732.0
1186.659733	738.0
1187.211405	728.0
1187.76302	730.0
1188.314578	717.0
1188.866079	730.0
1189.417523	720.0
1189.96891	728.0
1190.520241	735.0
1191.071514	731.0
1191.622731	730.0
1192.17389	743.0
1192.724993	731.0
1193.276039	756.0
1193.827027	723.0
1194.377959	725.0
1194.928834	727.0
1195.479653	730.0
1196.030414	728.0
1196.581118	730.0
1197.131766	721.0
1197.682356	723.0
1198.23289	720.0
1198.783367	732.0
1199.333786	735.0
1199.88415	736.0
1200.434456	725.0
1200.984705	727.0
1201.534898	736.0
1202.085033	729.0
1202.635112	728.0
1203.185134	743.0
1203.735099	731.0
1204.285007	721.0
1204.834859	729.0
1205.384653	733.0
1205.934391	721.0
1206.484072	720.0
1207.033696	719.0
1207.583263	738.0
1208.132774	731.0
1208.682228	739.0
1209.231624	727.0
1209.780965	727.0
1210.330248	731.0
1210.879474	733.0
1211.428644	738.0
1211.977757	732.0
1212.526813	729.0
1213.075813	726.0
1213.624755	727.0
1214.173641	726.0
1214.72247	724.0
1215.271242	738.0
1215.819958	737.0
1216.368617	731.0
1216.917219	726.0
1217.465764	734.0
1218.014253	725.0
1218.562685	734.0
1219.11106	733.0
1219.659378	721.0
1220.20764	735.0
1220.755845	724.0
1221.303993	723.0
1221.852085	732.0
1222.400119	734.0
1222.948097	733.0
1223.496019	729.0
1224.043883	728.0
1224.591691	741.0
1225.139443	736.0
1225.687137	722.0
1226.234775	736.0
1226.782357	734.0
1227.329881	733.0
1227.877349	733.0
1228.42476	742.0
1228.972115	731.0
1229.519413	745.0
1230.066654	727.0
1230.613839	734.0
1231.160967	738.0
1231.708038	726.0
1232.255053	723.0
1232.802011	738.0
1233.348912	736.0
1233.895757	730.0
1234.442545	736.0
1234.989277	740.0
1235.535951	729.0
1236.08257	742.0
1236.629131	735.0
1237.175636	727.0
1237.722085	725.0
1238.268477	728.0
1238.814812	746.0
1239.361091	738.0
1239.907313	743.0
1240.453478	736.0
1240.999587	737.0
1241.54564	738.0
1242.091636	731.0
1242.637575	740.0
1243.183457	725.0
1243.729284	731.0
1244.275053	722.0
1244.820766	736.0
1245.366423	736.0
1245.912022	750.0
1246.457566	748.0
1247.003053	736.0
1247.548483	746.0
1248.093857	743.0
1248.639174	736.0
1249.184435	731.0
1249.729639	740.0
1250.274787	734.0
1250.819878	749.0
1251.364912	736.0
1251.909891	735.0
1252.454812	743.0
1252.999677	731.0
1253.544486	731.0
1254.089238	723.0
1254.633934	730.0
1255.178573	734.0
1255.723156	736.0
1256.267682	737.0
1256.812152	732.0
1257.356565	738.0
1257.900922	730.0
1258.445223	728.0
1258.989467	746.0
1260.62186	735.0
1261.165878	727.0
1261.70984	746.0
1262.253745	733.0
1262.797594	744.0
1263.341386	746.0
1263.885123	744.0
1264.428802	738.0
1264.972425	733.0
1265.515992	744.0
1266.059503	734.0
1266.602957	747.0
1267.146354	743.0
1267.689696	745.0
1268.23298	732.0
1268.776209	734.0
1269.319381	737.0
1269.862497	744.0
1270.405556	745.0
1270.948559	733.0
1271.491506	732.0
1272.034396	740.0
1272.57723	734.0
1273.120007	748.0
1273.662728	739.0
1274.205393	739.0
1274.748002	750.0
1275.290554	750.0
1275.83305	750.0
1276.375489	740.0
1276.917872	737.0
1277.460199	764.0
1278.00247	739.0
1278.544684	757.0
1279.086842	749.0
1279.628943	740.0
1280.170989	739.0
1280.712978	756.0
1281.25491	744.0
1281.796787	742.0
1282.338607	753.0
1282.880371	744.0
1283.422078	743.0
1283.963729	747.0
1284.505324	740.0
1285.046863	750.0
1285.588345	748.0
1286.129772	736.0
1286.671142	756.0
1287.212455	735.0
1287.753713	748.0
1288.294914	745.0
1288.836059	747.0
1289.377147	749.0
1289.91818	750.0
1290.459156	748.0
1291.000076	734.0
1291.54094	737.0
1292.081747	743.0
1292.622499	736.0
1293.163194	758.0
1293.703833	745.0
1294.244415	747.0
1294.784942	749.0
1295.325412	736.0
1295.865826	760.0
1296.406184	759.0
1296.946486	743.0
1297.486731	743.0
1298.026921	749.0
1298.567054	744.0
1299.107131	761.0
1299.647152	743.0
1300.187116	748.0
1300.727025	746.0
1301.266877	747.0
1301.806673	741.0
1302.346413	747.0
1302.886097	740.0
1303.425725	743.0
1303.965297	744.0
1304.504812	746.0
1305.044272	736.0
1305.583675	756.0
1306.123022	744.0
1306.662313	747.0
1307.201548	751.0
1307.740727	744.0
1308.279849	746.0
1308.818916	744.0
1309.357926	749.0
1309.896881	758.0
1310.435779	754.0
1310.974621	729.0
1311.513407	735.0
1312.052137	739.0
1312.590811	739.0
1313.129429	743.0
1313.667991	737.0
1314.206497	740.0
1314.744946	740.0
1315.28334	736.0
1315.821678	739.0
1316.359959	733.0
1316.898184	746.0
1317.436354	735.0
1317.974467	733.0
1318.512525	733.0
1319.050526	745.0
1319.588471	733.0
1320.12636	743.0
1320.664194	730.0
1321.201971	740.0
1321.739692	734.0
1322.277357	726.0
1322.814967	728.0
1323.35252	733.0
1323.890017	731.0
1324.427458	735.0
1324.964843	737.0
1325.502173	734.0
1326.039446	736.0
1326.576663	727.0
1327.113824	739.0
1327.65093	731.0
1328.187979	736.0
1328.724972	738.0
1329.26191	728.0
1329.798791	727.0
1330.335617	729.0
1330.872386	726.0
1331.4091	740.0
1331.945758	738.0
1332.48236	728.0
1333.018905	736.0
1333.555395	742.0
1334.091829	739.0
1334.628207	737.0
1335.164529	732.0
1335.700796	734.0
1336.237006	731.0
1336.77316	729.0
1337.309259	731.0
1337.845301	743.0
1338.381288	735.0
1338.917219	734.0
1339.453094	731.0
1339.988913	735.0
1340.524676	736.0
1341.060383	739.0
1341.596034	730.0
1342.13163	733.0
1342.66717	731.0
1343.202653	734.0
1343.738081	746.0
1344.273453	732.0
1344.80877	734.0
1345.34403	730.0
1345.879235	735.0
1346.414383	745.0
1346.949476	744.0
1347.484513	741.0
1348.019494	740.0
1348.55442	736.0
1349.089289	743.0
1349.624103	740.0
1350.158861	741.0
1350.693563	735.0
1351.228209	735.0
1351.7628	740.0
1352.297334	733.0
1352.831813	735.0
1353.366236	727.0
1353.900604	739.0
1354.434915	730.0
1354.969171	745.0
1355.503371	755.0
1356.037515	738.0
1356.571604	732.0
1357.105636	736.0
1357.639613	727.0
1358.173535	731.0
1358.7074	736.0
1359.24121	723.0
1359.774964	731.0
1360.308662	730.0
1360.842304	737.0
1361.375891	746.0
1361.909422	746.0
1362.442897	738.0
1362.976317	737.0
1363.50968	731.0
1364.042989	743.0
1364.576241	743.0
1365.109438	732.0
1365.642579	733.0
1366.175664	743.0
1366.708693	745.0
1367.241667	742.0
1367.774585	739.0
1368.307448	738.0
1368.840255	745.0
1369.373006	746.0
1369.905701	738.0
1370.438341	736.0
1370.970925	734.0
1371.503454	733.0
1372.035926	736.0
1372.568344	731.0
1373.100705	738.0
1373.633011	739.0
1374.165261	740.0
1374.697456	733.0
1375.229595	744.0
1375.761678	729.0
1376.293705	734.0
1376.825677	726.0
1377.357594	740.0
1377.889455	739.0
1378.42126	732.0
1378.953009	738.0
1379.484703	740.0
1380.016342	737.0
1380.547924	736.0
1381.079452	736.0
1381.610923	734.0
1382.142339	739.0
1382.673699	738.0
1383.205004	739.0
1383.736253	736.0
1384.267447	737.0
1384.798585	740.0
1385.329668	748.0
1385.860695	749.0
1386.391666	727.0
1386.922582	741.0
1387.453442	735.0
1387.984247	746.0
1388.514996	741.0
1389.04569	742.0
1389.576328	740.0
1390.10691	735.0
1390.637437	740.0
1391.167909	743.0
1391.698325	740.0
1392.228685	747.0
1392.75899	737.0
1393.28924	718.0
1393.819434	743.0
1394.349572	739.0
1394.879655	744.0
1395.409683	741.0
1395.939655	740.0
1396.469571	743.0
1396.999432	742.0
1397.529237	737.0
1398.058987	743.0
1398.588682	734.0
1399.118321	742.0
1399.647905	745.0
1400.177433	739.0
1400.706906	734.0
1401.236323	743.0
1401.765685	748.0
1402.294991	745.0
1402.824242	734.0
1403.353437	749.0
1403.882577	751.0
1404.411662	736.0
1404.940691	739.0
1405.469665	741.0
1405.998583	736.0
1406.527446	732.0
1407.056253	747.0
1407.585005	733.0
1408.113702	729.0
1408.642343	741.0
1409.170929	738.0
1409.69946	746.0
1410.227935	740.0
1410.756354	729.0
1411.284719	740.0
1411.813028	739.0
1412.341281	737.0
1412.869479	741.0
1413.397622	739.0
1413.92571	748.0
1414.453742	743.0
1414.981718	739.0
1415.50964	745.0
1416.037506	738.0
1416.565316	745.0
1417.093072	741.0
1417.620772	734.0
1418.148416	735.0
1418.676005	736.0
1419.203539	731.0
1419.731018	742.0
1420.258441	737.0
1420.785809	738.0
1421.313122	747.0
1421.840379	749.0
1422.367582	742.0
1422.894728	753.0
1423.42182	730.0
1423.948856	739.0
1424.475837	725.0
1425.002762	741.0
1425.529633	739.0
1426.056448	735.0
1426.583207	743.0
1427.109912	747.0
1427.636561	730.0
1428.163155	742.0
1428.689694	756.0
1429.216177	738.0
1429.742605	742.0
1430.268978	743.0
1430.795296	743.0
1431.321558	753.0
1431.847765	745.0
1432.373917	735.0
1432.900014	740.0
1433.426056	745.0
1433.952042	739.0
1434.477973	739.0
1435.003849	742.0
1435.529669	734.0
1436.055435	741.0
1436.581145	745.0
1437.1068	744.0
1437.632399	739.0
1438.157944	736.0
1438.683433	739.0
1439.208868	753.0
1439.734247	749.0
1440.25957	750.0
1440.784839	752.0
1441.310053	750.0
1441.835211	745.0
1442.360314	748.0
1442.885362	748.0
1443.410355	746.0
1443.935292	757.0
1444.460175	747.0
1444.985002	748.0
1445.509774	743.0
1446.034491	742.0
1446.559153	744.0
1447.08376	743.0
1447.608312	752.0
1448.132808	756.0
1448.65725	752.0
1449.181636	749.0
1449.705967	741.0
1450.230243	748.0
1450.754464	749.0
1451.27863	746.0
1451.802741	746.0
1452.326797	751.0
1452.850797	745.0
1453.374743	738.0
1453.898633	747.0
1454.422468	743.0
1454.946249	744.0
1455.469974	745.0
1455.993644	743.0
1456.517259	752.0
1457.040819	737.0
1457.564324	753.0
1458.087773	741.0
1458.611168	746.0
1459.134508	744.0
1459.657793	739.0
1460.181022	745.0
1460.704197	740.0
1461.227316	743.0
1461.750381	741.0
1462.27339	749.0
1462.796345	739.0
1463.319244	755.0
1463.842089	751.0
1464.364878	745.0
1464.887613	741.0
1465.410292	752.0
1465.932916	745.0
1466.455486	740.0
1466.978	752.0
1467.50046	738.0
1468.022864	748.0
1468.545214	741.0
1469.067508	742.0
1469.589748	746.0
1470.111932	736.0
1470.634062	745.0
1471.156136	746.0
1471.678156	749.0
1472.20012	743.0
1472.72203	756.0
1473.243885	754.0
1473.765685	743.0
1474.28743	747.0
1474.80912	743.0
1475.330755	749.0
1475.852335	739.0
1476.37386	728.0
1476.89533	737.0
1477.416745	742.0
1477.938106	737.0
1478.459411	753.0
1478.980662	731.0
1479.501857	745.0
1480.022998	739.0
1480.544084	733.0
1481.065115	743.0
1481.586091	740.0
1482.107012	745.0
1482.627878	749.0
1483.14869	752.0
1483.669446	751.0
1484.190148	739.0
1484.710794	745.0
1485.231386	738.0
1485.751923	743.0
1486.272406	754.0
1486.792833	752.0
1487.313205	740.0
1487.833523	752.0
1488.353786	733.0
1488.873994	735.0
1489.394147	748.0
1489.914245	745.0
1490.434288	743.0
1490.954277	751.0
1491.474211	751.0
1491.99409	748.0
1492.513914	732.0
1493.033683	735.0
1493.553398	759.0
1494.073057	755.0
1494.592662	730.0
1495.112212	742.0
1495.631708	739.0
1496.151148	748.0
1496.670534	751.0
1497.189865	750.0
1497.709141	751.0
1498.228362	757.0
1498.747529	738.0
1499.266641	754.0
1499.785698	746.0
1500.3047	762.0
1500.823648	738.0
1501.34254	737.0
1501.861379	742.0
1502.380162	736.0
1502.89889	745.0
1503.417564	743.0
1503.936183	753.0
1504.454748	744.0
1504.973257	740.0
1505.491712	752.0
1506.010112	740.0
1506.528458	741.0
1507.046748	748.0
1507.564984	747.0
1508.083166	743.0
1508.601292	743.0
1509.119364	747.0
1509.637381	736.0
1510.155344	741.0
1510.673252	762.0
1511.191105	745.0
1511.708903	738.0
1512.226647	756.0
1512.744336	741.0
1513.261971	753.0
1513.77955	739.0
1514.297076	746.0
1514.814546	746.0
1515.331962	737.0
1515.849323	740.0
1516.366629	747.0
1516.883881	736.0
1517.401078	734.0
1517.918221	745.0
1518.435309	752.0
1518.952342	746.0
1519.469321	757.0
1519.986245	738.0
1520.503114	741.0
1521.019929	745.0
1521.536689	732.0
1522.053395	752.0
1522.570046	746.0
1523.086642	750.0
1523.603184	746.0
1524.119671	743.0
1524.636103	747.0
1525.152481	753.0
1525.668805	732.0
1526.185073	743.0
1526.701288	748.0
1527.217447	740.0
1527.733552	737.0
1528.249603	736.0
1528.765599	751.0
1529.28154	740.0
1529.797427	748.0
1530.313259	757.0
1530.829037	745.0
1531.34476	750.0
1531.860429	739.0
1532.376043	749.0
1532.891602	740.0
1533.407107	744.0
1533.922558	752.0
1534.437954	748.0
1534.953295	736.0
1535.468582	736.0
1535.983815	741.0
1536.498993	739.0
1537.014116	740.0
1537.529185	755.0
1538.044199	738.0
1538.559159	749.0
1539.074064	752.0
1539.588915	746.0
1540.103712	751.0
1540.618454	746.0
1541.133141	746.0
1541.647774	744.0
1542.162353	739.0
1542.676877	744.0
1543.191346	745.0
1543.705761	754.0
1544.220122	739.0
1544.734428	745.0
1545.24868	750.0
1545.762877	746.0
1546.27702	746.0
1546.791109	727.0
1547.305143	740.0
1547.819122	751.0
1548.333047	741.0
1548.846918	746.0
1549.360734	748.0
1549.874496	744.0
1550.388204	738.0
1550.901857	743.0
1551.415455	732.0
1551.929	750.0
1552.442489	742.0
1552.955925	735.0
1553.469306	747.0
1553.982632	742.0
1554.495905	743.0
1555.009123	748.0
1555.522286	747.0
1556.035395	730.0
1556.54845	748.0
1557.06145	748.0
1557.574396	745.0
1558.087288	745.0
1558.600125	754.0
1559.112908	744.0
1559.625637	745.0
1560.138311	757.0
1560.650931	742.0
1561.163497	741.0
1561.676008	740.0
1562.188465	747.0
1562.700867	744.0
1563.213216	748.0
1563.725509	747.0
1564.237749	751.0
1564.749934	756.0
1565.262065	743.0
1565.774142	753.0
1566.286164	751.0
1566.798132	747.0
1567.310046	751.0
1567.821906	754.0
1568.333711	738.0
1568.845462	750.0
1569.357158	743.0
1569.868801	744.0
1570.380389	751.0
1570.891922	734.0
1571.403402	763.0
1571.914827	763.0
1572.426198	750.0
1572.937515	739.0
1573.448777	739.0
1573.959985	752.0
1574.471139	741.0
1574.982239	758.0
1575.493285	746.0
1576.004276	758.0
1576.515213	761.0
1577.026096	759.0
1577.536924	743.0
1578.047698	762.0
1578.558419	769.0
1579.069084	755.0
1579.579696	753.0
1580.090254	739.0
1580.600757	764.0
1581.111206	748.0
1581.621601	765.0
1582.131941	762.0
1582.642228	772.0
1583.15246	753.0
1583.662638	748.0
1584.172762	763.0
1584.682832	750.0
1585.192847	760.0
1585.702809	739.0
1586.212716	754.0
1586.722569	761.0
1587.232368	743.0
1587.742113	755.0
1588.251803	748.0
1588.76144	747.0
1589.271022	747.0
1589.78055	754.0
1590.290024	746.0
1590.799444	759.0
1591.30881	752.0
1591.818121	760.0
1592.327379	764.0
