1042.414189	746.75
1042.980685	750.5
1043.547124	749.5
1044.113505	750.0
1044.679828	744.5
1045.246093	748.25
1045.8123	743.75
1046.378449	744.0
1046.94454	744.75
1047.510573	746.25
1048.076548	745.0
1048.642465	740.75
1049.208325	741.25
1049.774126	746.25
1050.339869	738.5
1050.905555	737.0
1051.471183	743.5
1052.036752	742.5
1052.602264	740.75
1053.167718	745.75
1053.733114	739.75
1054.298452	742.5
1054.863733	742.25
1055.428955	741.75
1055.994119	739.0
1056.559226	740.5
1057.124275	741.0
1057.689266	740.0
1058.254199	738.75
1058.819074	739.5
1059.383891	739.25
1059.94865	738.5
1060.513352	734.75
1061.077996	739.25
1061.642582	742.5
1062.20711	747.75
1062.77158	739.5
1063.335992	746.75
1063.900347	740.5
1064.464643	742.25
1065.028882	744.0
1065.593063	747.75
1066.157187	740.5
1066.721252	743.25
1067.28526	737.75
1067.84921	744.5
1068.413102	743.75
1068.976936	739.75
1069.540713	744.5
1070.104431	749.25
1070.668092	744.5
1071.231696	739.25
1071.795241	737.75
1072.358729	742.0
1072.922159	742.25
1073.485531	748.5
1074.048845	738.75
1074.612102	740.25
1075.175301	745.25
1075.738442	744.25
1076.301525	739.5
1076.864551	742.0
1077.427519	740.25
1077.990429	744.75
1078.553281	746.0
1079.116076	743.75
1079.678813	740.75
1080.241492	743.25
1080.804114	744.25
1081.366678	743.5
1081.929184	740.5
1082.491633	750.25
1083.054024	742.0
1083.616357	744.25
1084.178632	747.0
1084.74085	750.0
1085.30301	747.5
1085.865113	748.25
1086.427158	746.75
1086.989145	752.75
1087.551074	750.75
1088.112946	747.75
1088.67476	746.5
1089.236517	749.0
1089.798216	748.25
1090.359857	747.25
1090.92144	749.0
1091.482966	745.5
1092.044435	751.5
1092.605845	747.75
1093.167199	751.0
1093.728494	748.75
1094.289732	748.25
1094.850912	760.0
1095.412035	760.75
1095.9731	745.75
1096.534107	747.75
1097.095057	756.25
1097.65595	751.25
1098.216784	744.5
1098.777561	750.5
1099.338281	755.75
1099.898943	755.5
1100.459547	753.5
1101.020094	746.75
1101.580584	747.25
1102.141015	752.75
1102.701389	754.25
1103.261706	750.5
1103.821965	757.0
1104.382167	753.75
1104.942311	750.0
1105.502397	754.25
1106.062426	749.25
1106.622398	750.25
1107.182312	752.5
1107.742168	759.25
1108.301967	755.0
1108.861708	755.75
1109.421392	756.75
1109.981019	755.5
1110.540587	754.0
1111.100099	752.25
1111.659553	753.25
1112.218949	752.25
1112.778288	762.0
1113.33757	749.0
1113.896794	747.75
1114.45596	754.25
1115.015069	756.75
1115.574121	757.5
1116.133115	757.75
1116.692052	754.75
1117.250931	760.25
1117.809753	760.25
1118.368517	757.75
1118.927224	753.5
1119.485873	756.25
1120.044465	751.75
1120.603	754.5
1121.161477	756.25
1121.719897	752.0
1122.278259	755.25
1122.836564	760.0
1123.394812	757.75
1123.953002	753.75
1124.511135	760.75
1125.06921	754.0
1125.627228	756.75
1126.185189	760.75
1126.743092	764.75
1127.300938	765.25
1127.858726	769.25
1128.416457	766.25
1128.974131	762.0
1129.531748	762.25
1130.089307	762.75
1130.646808	762.5
1131.204252	762.75
1131.761639	762.75
1132.318969	761.0
1132.876241	761.25
1133.433456	754.0
1133.990614	756.25
1134.547714	759.5
1135.104757	755.0
1135.661743	755.25
1136.218671	751.5
1136.775542	755.75
1137.332356	758.75
1137.889112	759.0
1138.445811	758.0
1139.002453	757.25
1139.559037	750.75
1140.115565	754.75
1140.672035	759.25
1141.228447	760.5
1141.784803	759.5
1142.341101	753.0
1142.897342	760.75
1143.453525	754.0
1144.009651	755.25
1144.565721	754.75
1145.121732	755.25
1145.677687	759.5
1146.233584	762.0
1146.789424	756.25
1147.345207	758.25
1147.900933	753.5
1148.456601	756.5
1149.012212	752.25
1149.567766	755.0
1150.123263	759.25
1150.678702	759.75
1151.234085	761.75
1151.78941	761.0
1152.344678	753.25
1152.899888	756.0
1153.455042	756.75
1154.010138	754.75
1154.565177	757.5
1155.120159	758.75
1155.675084	757.5
1156.229951	758.5
1156.784762	750.5
1157.339515	756.0
1157.894211	757.75
1158.44885	754.0
1159.003432	758.75
1159.557956	753.0
1160.112424	758.5
1160.666834	764.25
1161.221187	758.75
1161.775483	765.25
1162.329722	759.25
1162.883904	758.0
1163.438029	753.75
1163.992096	756.5
1164.546107	756.5
1165.10006	753.5
1165.653956	751.0
1166.207795	751.25
1166.761577	755.75
1167.315302	751.75
1167.86897	756.25
1168.422581	758.0
1168.976134	759.25
1169.529631	748.25
1170.08307	752.25
1170.636453	758.25
1171.189778	754.25
1171.743046	748.25
1172.296257	755.0
1172.849412	757.0
1173.402509	752.25
1173.955549	752.0
1174.508532	754.75
1175.061458	760.25
1175.614327	752.5
1176.167138	751.5
1176.719893	757.25
1177.272591	748.75
1177.825232	755.5
1178.377816	749.25
1178.930342	754.25
1179.482812	756.0
1180.035225	750.0
1180.587581	746.0
1181.139879	749.0
1181.692121	749.75
1182.244306	751.0
1182.796434	749.5
1183.348504	757.5
1183.900518	751.75
1184.452475	752.75
1185.004375	752.5
1185.556218	748.5
1186.108004	756.0
1186.659733	753.75
1187.211405	749.75
1187.76302	752.75
1188.314578	750.75
1188.866079	748.75
1189.417523	753.5
1189.96891	750.75
1190.520241	753.5
1191.071514	745.25
1191.622731	755.5
1192.17389	752.75
1192.724993	753.75
1193.276039	768.0
1193.827027	752.75
1194.377959	747.25
1194.928834	745.0
1195.479653	755.5
1196.030414	746.0
1196.581118	752.5
1197.131766	749.25
1197.682356	756.0
1198.23289	743.5
1198.783367	746.0
1199.333786	752.25
1199.88415	750.0
1200.434456	745.5
1200.984705	750.5
1201.534898	751.25
1202.085033	752.5
1202.635112	749.25
1203.185134	751.75
1203.735099	746.75
1204.285007	742.5
1204.834859	748.25
1205.384653	751.5
1205.934391	745.75
1206.484072	749.0
1207.033696	753.75
1207.583263	744.0
1208.132774	752.25
1208.682228	750.25
1209.231624	744.25
1209.780965	744.25
1210.330248	742.75
1210.879474	745.75
1211.428644	748.25
1211.977757	743.25
1212.526813	752.75
1213.075813	749.5
1213.624755	747.75
1214.173641	748.75
1214.72247	747.0
1215.271242	747.0
1215.819958	753.0
1216.368617	752.25
1216.917219	750.0
1217.465764	750.5
1218.014253	749.5
1218.562685	750.75
1219.11106	748.0
1219.659378	749.25
1220.20764	753.0
1220.755845	748.0
1221.303993	747.25
1221.852085	748.75
1222.400119	750.25
1222.948097	747.25
1223.496019	745.5
1224.043883	753.0
1224.591691	747.0
1225.139443	748.0
1225.687137	743.75
1226.234775	750.0
1226.782357	749.5
1227.329881	752.5
1227.877349	744.75
1228.42476	744.75
1228.972115	753.5
1229.519413	750.25
1230.066654	748.0
1230.613839	747.5
1231.160967	749.25
1231.708038	753.25
1232.255053	751.0
1232.802011	751.25
1233.348912	752.0
1233.895757	747.5
1234.442545	748.75
1234.989277	746.75
1235.535951	744.5
1236.08257	753.25
1236.629131	749.5
1237.175636	746.75
1237.722085	748.25
1238.268477	753.75
1238.814812	744.5
1239.361091	749.0
1239.907313	744.5
1240.453478	747.0
1240.999587	742.75
1241.54564	747.25
1242.091636	750.75
1242.637575	752.75
1243.183457	746.25
1243.729284	738.5
1244.275053	749.75
1244.820766	751.75
1245.366423	745.5
1245.912022	741.75
1246.457566	749.25
1247.003053	748.75
1247.548483	747.75
1248.093857	748.75
1248.639174	741.75
1249.184435	753.0
1249.729639	739.25
1250.274787	749.75
1250.819878	746.5
1251.364912	752.5
1251.909891	751.5
1252.454812	752.5
1252.999677	751.75
1253.544486	750.25
1254.089238	752.0
1254.633934	747.0
1255.178573	748.75
1255.723156	748.5
1256.267682	750.25
1256.812152	742.25
1257.356565	748.75
1257.900922	749.25
1258.445223	754.0
1258.989467	750.0
1259.533654	745.0
1260.077785	768.75
1260.62186	749.75
1261.165878	746.75
1261.70984	750.0
1262.253745	747.5
1262.797594	742.75
1263.341386	751.0
1263.885123	754.5
1264.428802	752.5
1264.972425	750.5
1265.515992	751.0
1266.059503	747.0
1266.602957	747.75
1267.146354	739.25
1267.689696	744.75
1268.23298	746.75
1268.776209	742.75
1269.319381	745.25
1269.862497	746.25
1270.405556	740.25
1270.948559	741.0
1271.491506	752.5
1272.034396	744.5
1272.57723	746.75
1273.120007	741.75
1273.662728	745.5
1274.205393	744.75
1274.748002	746.75
1275.290554	749.75
1275.83305	741.75
1276.375489	743.5
1276.917872	744.75
1277.460199	751.5
1278.00247	748.75
1278.544684	745.5
1279.086842	746.75
1279.628943	754.25
1280.170989	749.25
1280.712978	752.5
1281.25491	747.0
1281.796787	755.25
1282.338607	763.25
1282.880371	769.0
1283.422078	797.25
1283.963729	796.0
1284.505324	799.5
1285.046863	797.5
1285.588345	785.5
1286.129772	764.75
1286.671142	757.25
1287.212455	758.75
1287.753713	754.5
1288.294914	745.0
1288.836059	747.0
1289.377147	746.5
1289.91818	746.5
1290.459156	745.5
1291.000076	742.75
1291.54094	751.0
1292.081747	745.75
1292.622499	746.25
1293.163194	752.5
1293.703833	750.5
1294.244415	752.75
1294.784942	746.5
1295.325412	744.75
1295.865826	751.25
1296.406184	750.25
1296.946486	750.0
1297.486731	745.75
1298.026921	746.5
1298.567054	749.75
1299.107131	743.75
1299.647152	748.5
1300.187116	745.0
1300.727025	741.75
1301.266877	745.25
1301.806673	746.0
1302.346413	741.25
1302.886097	743.25
1303.425725	742.0
1303.965297	737.75
1304.504812	747.25
1305.044272	745.0
1305.583675	748.0
1306.123022	741.75
1306.662313	741.75
1307.201548	744.25
1307.740727	742.75
1308.279849	746.5
1308.818916	747.5
1309.357926	742.25
1309.896881	749.0
1310.435779	744.75
1310.974621	745.75
1311.513407	743.75
1312.052137	748.75
1312.590811	742.0
1313.129429	739.75
1313.667991	742.75
1314.206497	739.5
1314.744946	740.25
1315.28334	739.25
1315.821678	742.0
1316.359959	740.0
1316.898184	742.75
1317.436354	737.25
1317.974467	741.5
1318.512525	737.75
1319.050526	741.25
1319.588471	742.25
1320.12636	737.5
1320.664194	741.5
1321.201971	739.75
1321.739692	739.5
1322.277357	737.5
1322.814967	736.25
1323.35252	741.0
1323.890017	741.5
1324.427458	746.0
1324.964843	737.25
1325.502173	737.25
1326.039446	741.0
1326.576663	738.5
1327.113824	741.25
1327.65093	738.0
1328.187979	740.5
1328.724972	741.0
1329.26191	742.0
1329.798791	740.5
1330.335617	742.5
1330.872386	740.75
1331.4091	745.25
1331.945758	735.25
1332.48236	734.25
1333.018905	739.75
1333.555395	743.75
1334.091829	737.25
1334.628207	742.0
1335.164529	739.75
1335.700796	735.5
1336.237006	742.75
1336.77316	735.0
1337.309259	738.5
1337.845301	738.75
1338.381288	744.5
1338.917219	738.75
1339.453094	742.25
1339.988913	742.75
1340.524676	745.5
1341.060383	734.0
1341.596034	746.5
1342.13163	743.25
1342.66717	741.0
1343.202653	742.0
1343.738081	739.25
1344.273453	743.75
1344.80877	738.0
1345.34403	740.0
1345.879235	737.75
1346.414383	741.75
1346.949476	740.0
1347.484513	743.75
1348.019494	737.0
1348.55442	734.5
1349.089289	734.75
1349.624103	742.75
1350.158861	746.75
1350.693563	741.5
1351.228209	739.75
1351.7628	738.5
1352.297334	741.5
1352.831813	738.5
1353.366236	742.0
1353.900604	741.75
1354.434915	743.25
1354.969171	742.75
1355.503371	737.0
1356.037515	742.0
1356.571604	741.5
1357.105636	740.0
1357.639613	737.0
1358.173535	743.25
1358.7074	743.0
1359.24121	745.0
1359.774964	739.25
1360.308662	746.75
1360.842304	739.25
1361.375891	740.5
1361.909422	747.25
1362.442897	744.0
1362.976317	740.75
1363.50968	738.25
1364.042989	739.75
1364.576241	742.75
1365.109438	739.25
1365.642579	736.25
1366.175664	742.75
1366.708693	742.5
1367.241667	738.0
1367.774585	738.25
1368.307448	742.75
1368.840255	746.5
1369.373006	737.5
1369.905701	742.25
1370.438341	738.5
1370.970925	744.75
1371.503454	745.25
1372.035926	740.0
1372.568344	741.5
1373.100705	745.25
1373.633011	740.0
1374.165261	740.25
1374.697456	743.75
1375.229595	741.0
1375.761678	741.25
1376.293705	746.25
1376.825677	743.0
1377.357594	742.0
1377.889455	741.5
1378.42126	740.75
1378.953009	741.0
1379.484703	737.5
1380.016342	743.5
1380.547924	739.75
1381.079452	744.75
1381.610923	742.0
1382.142339	736.0
1382.673699	746.75
1383.205004	741.5
1383.736253	739.5
1384.267447	740.5
1384.798585	746.5
1385.329668	747.5
1385.860695	747.0
1386.391666	753.5
1386.922582	774.0
1387.453442	812.5
1387.984247	851.75
1388.514996	869.0
1389.04569	829.25
1389.576328	778.5
1390.10691	757.75
1390.637437	750.0
1391.167909	749.0
1391.698325	742.75
1392.228685	744.25
1392.75899	744.25
1393.28924	743.75
1393.819434	746.25
1394.349572	739.0
1394.879655	742.75
1395.409683	741.75
1395.939655	746.75
1396.469571	737.75
1396.999432	743.25
1397.529237	739.0
1398.058987	735.25
1398.588682	742.5
1399.118321	737.75
1399.647905	736.0
1400.177433	742.0
1400.706906	744.5
1401.236323	741.25
1401.765685	742.25
1402.294991	732.5
1402.824242	737.75
1403.353437	734.0
1403.882577	740.75
1404.411662	735.75
1404.940691	741.75
1405.469665	736.75
1405.998583	736.5
1406.527446	737.75
1407.056253	737.75
1407.585005	742.75
1408.113702	740.75
1408.642343	735.5
1409.170929	742.75
1409.69946	740.0
1410.227935	747.0
1410.756354	738.25
1411.284719	739.0
1411.813028	739.5
1412.341281	737.25
1412.869479	733.5
1413.397622	737.5
1413.92571	732.5
1414.453742	734.75
1414.981718	732.0
1415.50964	744.75
1416.037506	737.75
1416.565316	731.0
1417.093072	738.5
1417.620772	729.75
1418.148416	729.75
1418.676005	731.75
1419.203539	732.25
1419.731018	733.75
1420.258441	729.0
1420.785809	737.75
1421.313122	732.25
1421.840379	736.0
1422.367582	736.25
1422.894728	737.75
1423.42182	731.5
1423.948856	736.75
1424.475837	734.5
1425.002762	733.5
1425.529633	731.0
1426.056448	732.75
1426.583207	730.5
1427.109912	730.25
1427.636561	727.5
1428.163155	729.75
1428.689694	729.0
1429.216177	731.75
1429.742605	724.0
1430.268978	729.5
1430.795296	731.25
1431.321558	729.5
1431.847765	728.5
1432.373917	723.0
1432.900014	727.0
1433.426056	734.5
1433.952042	720.75
1434.477973	728.25
1435.003849	724.25
1435.529669	726.25
1436.055435	728.0
1436.581145	725.5
1437.1068	729.75
1437.632399	725.25
1438.157944	725.5
1438.683433	726.75
1439.208868	721.5
1439.734247	721.25
1440.25957	723.25
1440.784839	717.5
1441.310053	727.75
1441.835211	720.0
1442.360314	722.5
1442.885362	723.0
1443.410355	725.75
1443.935292	728.5
1444.460175	718.5
1444.985002	720.5
1445.509774	720.75
1446.034491	720.0
1446.559153	722.75
1447.08376	719.5
1447.608312	723.0
1448.132808	727.25
1448.65725	720.75
1449.181636	725.25
1449.705967	721.75
1450.230243	721.75
1450.754464	724.25
1451.27863	718.0
1451.802741	724.0
1452.326797	715.5
1452.850797	716.75
1453.374743	721.5
1453.898633	717.0
1454.422468	718.75
1454.946249	720.25
1455.469974	723.25
1455.993644	722.0
1456.517259	721.25
1457.040819	719.75
1457.564324	720.0
1458.087773	718.75
1458.611168	719.75
1459.134508	718.0
1459.657793	717.25
1460.181022	724.0
1460.704197	719.25
1461.227316	713.75
1461.750381	720.0
1462.27339	716.5
1462.796345	724.75
1463.319244	718.0
1463.842089	720.25
1464.364878	719.75
1464.887613	717.25
1465.410292	717.0
1465.932916	714.25
1466.455486	716.75
1466.978	709.5
1467.50046	715.0
1468.022864	713.75
1468.545214	721.5
1469.067508	717.5
1469.589748	717.5
1470.111932	718.5
1470.634062	715.25
1471.156136	712.25
1471.678156	714.25
1472.20012	712.75
1472.72203	714.5
1473.243885	709.75
1473.765685	720.0
1474.28743	718.0
1474.80912	713.0
1475.330755	717.25
1475.852335	713.75
1476.37386	712.0
1476.89533	711.0
1477.416745	712.25
1477.938106	716.25
1478.459411	712.5
1478.980662	713.25
1479.501857	711.5
1480.022998	714.25
1480.544084	714.75
1481.065115	711.0
1481.586091	713.75
1482.107012	717.5
1482.627878	716.75
1483.14869	713.25
1483.669446	711.25
1484.190148	712.5
1484.710794	713.75
1485.231386	712.0
1485.751923	713.0
1486.272406	718.75
1486.792833	706.0
1487.313205	710.75
1487.833523	705.0
1488.353786	712.75
1488.873994	716.75
1489.394147	708.75
1489.914245	707.25
1490.434288	710.75
1490.954277	710.75
1491.474211	709.0
1491.99409	710.0
1492.513914	711.25
1493.033683	710.25
1493.553398	714.75
1494.073057	706.75
1494.592662	706.0
1495.112212	712.0
1495.631708	710.75
1496.151148	707.5
1496.670534	710.5
1497.189865	710.5
1497.709141	705.5
1498.228362	706.75
1498.747529	712.75
1499.266641	712.0
1499.785698	715.25
1500.3047	714.5
1500.823648	713.25
1501.34254	710.25
1501.861379	714.25
1502.380162	713.0
1502.89889	712.0
1503.417564	705.25
1503.936183	706.5
1504.454748	707.75
1504.973257	709.5
1505.491712	710.5
1506.010112	708.5
1506.528458	707.25
1507.046748	709.75
1507.564984	709.75
1508.083166	707.75
1508.601292	706.5
1509.119364	706.25
1509.637381	705.75
1510.155344	708.25
1510.673252	722.0
1511.191105	710.0
1511.708903	706.75
1512.226647	705.5
1512.744336	713.5
1513.261971	707.25
1513.77955	707.25
1514.297076	708.75
1514.814546	710.25
1515.331962	707.5
1515.849323	707.5
1516.366629	701.5
1516.883881	710.5
1517.401078	708.5
1517.918221	702.25
1518.435309	708.5
1518.952342	708.25
1519.469321	708.0
1519.986245	710.25
1520.503114	703.0
1521.019929	707.75
1521.536689	706.25
1522.053395	703.75
1522.570046	705.75
1523.086642	704.5
1523.603184	704.75
1524.119671	705.75
1524.636103	707.5
1525.152481	712.25
1525.668805	703.25
1526.185073	705.0
1526.701288	708.0
1527.217447	705.75
1527.733552	703.5
1528.765599	725.0
1529.28154	705.75
1529.797427	702.5
1530.313259	707.5
1530.829037	706.25
1531.34476	705.25
1531.860429	702.25
1532.376043	709.75
1532.891602	709.5
1533.407107	704.0
1533.922558	706.5
1534.437954	708.0
1534.953295	705.25
1535.468582	704.75
1535.983815	708.5
1536.498993	705.5
1537.014116	704.5
1537.529185	707.25
1538.044199	710.0
1538.559159	705.5
1539.074064	705.75
1539.588915	706.25
1540.103712	706.5
1540.618454	707.25
1541.133141	706.0
1541.647774	703.75
1542.162353	705.0
1542.676877	706.25
1543.191346	706.5
1543.705761	708.75
1544.220122	704.0
1544.734428	704.5
1545.24868	705.0
1545.762877	704.25
1546.27702	707.75
1546.791109	709.75
1547.305143	710.0
1547.819122	711.0
1548.333047	707.75
1548.846918	706.75
1549.360734	704.5
1549.874496	705.25
1550.388204	703.0
1550.901857	708.25
1551.415455	706.25
1551.929	708.5
1552.442489	708.0
1552.955925	703.5
1553.469306	704.75
1553.982632	706.75
1554.495905	706.0
1555.009123	699.5
1555.522286	702.75
1556.035395	705.25
1556.54845	700.5
1557.06145	709.75
1557.574396	705.5
1558.087288	707.5
1558.600125	703.5
1559.112908	711.5
1559.625637	701.0
1560.138311	706.75
1560.650931	704.0
1561.163497	699.5
1561.676008	705.25
1562.188465	702.25
1562.700867	703.0
1563.213216	707.25
1563.725509	707.25
1564.237749	707.25
1564.749934	705.75
1565.262065	708.75
1565.774142	706.75
1566.286164	708.5
1566.798132	705.75
1567.310046	709.75
1567.821906	700.25
1568.333711	706.25
1568.845462	705.0
1569.357158	706.0
1569.868801	706.75
1570.380389	710.5
1570.891922	705.75
1571.403402	702.25
1571.914827	706.75
1572.426198	703.5
1572.937515	709.5
1573.448777	703.25
1573.959985	703.25
1574.471139	703.25
1574.982239	701.5
1575.493285	706.75
1576.004276	703.0
1576.515213	702.75
1577.026096	702.0
1577.536924	705.25
1578.047698	702.0
1578.558419	704.5
1579.069084	702.5
1579.579696	706.0
1580.090254	703.75
1580.600757	704.75
1581.111206	705.75
1581.621601	702.5
1582.131941	704.0
1582.642228	705.5
1583.15246	703.25
1583.662638	705.75
1584.172762	701.75
1584.682832	703.25
1585.192847	705.25
1585.702809	709.0
1586.212716	707.75
1586.722569	706.25
1587.232368	702.25
1587.742113	706.5
1588.251803	705.75
1588.76144	705.75
1589.271022	708.75
1589.78055	705.5
1590.290024	707.25
1590.799444	707.75
1591.30881	707.5
1591.818121	705.0
1592.327379	700.25
