1042.414189	719.75
1042.980685	715.5
1043.547124	719.75
1044.113505	720.25
1044.679828	721.25
1045.246093	714.25
1045.8123	714.25
1046.378449	713.0
1046.94454	712.25
1047.510573	712.0
1048.076548	715.0
1048.642465	716.0
1049.208325	711.0
1049.774126	710.25
1050.339869	717.5
1050.905555	714.25
1051.471183	708.0
1052.036752	713.25
1052.602264	706.25
1053.167718	710.5
1053.733114	708.25
1054.298452	709.75
1054.863733	704.75
1055.428955	706.75
1055.994119	705.0
1056.559226	700.5
1057.124275	710.0
1057.689266	708.75
1058.254199	708.0
1058.819074	703.0
1059.383891	701.5
1059.94865	702.25
1060.513352	703.25
1061.077996	707.5
1061.642582	706.5
1062.20711	706.5
1062.77158	706.75
1063.335992	702.25
1063.900347	707.25
1064.464643	702.5
1065.028882	703.0
1065.593063	703.75
1066.157187	705.0
1066.721252	704.5
1067.28526	699.75
1067.84921	708.5
1068.413102	701.5
1068.976936	702.75
1069.540713	704.25
1070.104431	708.75
1070.668092	703.0
1071.231696	701.5
1071.795241	697.5
1072.358729	706.5
1072.922159	699.5
1073.485531	704.0
1074.048845	705.75
1074.612102	708.5
1075.175301	704.0
1075.738442	698.25
1076.301525	704.25
1076.864551	704.75
1077.427519	705.0
1077.990429	703.0
1078.553281	703.25
1079.116076	703.75
1079.678813	709.25
1080.241492	704.75
1080.804114	699.5
1081.366678	701.25
1081.929184	704.75
1082.491633	705.0
1083.054024	703.25
1083.616357	705.25
1084.178632	702.0
1084.74085	705.75
1085.30301	701.0
1085.865113	706.25
1086.427158	700.5
1086.989145	702.75
1087.551074	702.25
1088.112946	705.5
1088.67476	700.5
1089.236517	700.5
1089.798216	706.5
1090.359857	703.75
1090.92144	701.75
1091.482966	704.75
1092.044435	701.75
1092.605845	700.25
1093.167199	708.0
1093.728494	707.25
1094.289732	703.25
1094.850912	699.75
1095.412035	712.25
1095.9731	699.0
1096.534107	702.75
1097.095057	711.0
1097.65595	697.5
1098.216784	699.0
1098.777561	701.5
1099.338281	699.5
1099.898943	699.5
1100.459547	703.75
1101.020094	704.25
1101.580584	703.5
1102.141015	704.75
1102.701389	702.0
1103.261706	696.5
1103.821965	701.75
1104.382167	702.5
1104.942311	704.25
1105.502397	700.0
1106.062426	706.25
1106.622398	701.25
1107.182312	705.0
1107.742168	706.5
1108.301967	700.25
1108.861708	705.5
1109.421392	698.75
1109.981019	702.0
1110.540587	703.75
1111.100099	706.0
1111.659553	699.25
1112.218949	701.75
1112.778288	699.5
1113.33757	701.5
1113.896794	704.75
1114.45596	701.5
1115.015069	702.25
1115.574121	699.0
1116.133115	705.25
1116.692052	701.75
1117.250931	703.0
1117.809753	701.0
1118.368517	700.75
1118.927224	701.5
1119.485873	705.0
1120.044465	702.0
1120.603	703.5
1121.161477	698.0
1121.719897	704.25
1122.278259	703.5
1122.836564	702.75
1123.394812	703.0
1123.953002	702.25
1124.511135	705.0
1125.06921	703.25
1125.627228	701.75
1126.185189	704.0
1126.743092	700.0
1127.300938	705.5
1127.858726	709.25
1128.416457	704.75
1128.974131	704.0
1129.531748	708.25
1130.089307	706.0
1130.646808	705.5
1131.204252	706.0
1131.761639	704.25
1132.318969	705.25
1132.876241	705.0
1133.433456	705.25
1133.990614	705.5
1134.547714	700.5
1135.104757	704.25
1135.661743	700.75
1136.218671	701.75
1136.775542	705.25
1137.332356	700.75
1137.889112	702.75
1138.445811	700.0
1139.002453	704.0
1139.559037	704.25
1140.115565	705.0
1140.672035	705.75
1141.228447	700.0
1141.784803	705.5
1142.341101	705.0
1142.897342	706.25
1143.453525	700.0
1144.009651	699.0
1144.565721	699.75
1145.121732	702.75
1145.677687	702.25
1146.233584	702.5
1146.789424	705.5
1147.345207	699.25
1147.900933	701.75
1148.456601	701.25
1149.012212	703.0
1149.567766	703.25
1150.123263	700.5
1150.678702	700.5
1151.234085	704.25
1151.78941	702.25
1152.344678	700.75
1152.899888	699.75
1153.455042	702.0
1154.010138	703.0
1154.565177	697.0
1155.120159	703.5
1155.675084	703.0
1156.229951	704.25
1156.784762	705.75
1157.339515	703.5
1157.894211	701.0
1158.44885	704.0
1159.003432	706.5
1159.557956	703.0
1160.112424	702.25
1160.666834	700.25
1161.221187	707.25
1161.775483	706.25
1162.329722	705.0
1162.883904	703.5
1163.438029	702.25
1163.992096	704.0
1164.546107	701.25
1165.10006	710.75
1165.653956	705.5
1166.207795	701.0
1166.761577	704.25
1167.315302	705.5
1167.86897	703.25
1168.422581	705.75
1168.976134	699.5
1169.529631	707.75
1170.08307	701.5
1170.636453	706.75
1171.189778	702.75
1171.743046	704.0
1172.296257	703.25
1172.849412	702.5
1173.402509	700.25
1173.955549	695.75
1174.508532	701.5
1175.061458	702.75
1175.614327	704.25
1176.167138	703.75
1176.719893	702.0
1177.272591	702.25
1177.825232	698.5
1178.377816	702.5
1178.930342	702.0
1179.482812	702.75
1180.035225	701.25
1180.587581	704.25
1181.139879	702.5
1181.692121	702.5
1182.244306	702.75
1182.796434	701.25
1183.348504	704.25
1183.900518	699.75
1184.452475	699.5
1185.004375	699.0
1185.556218	699.5
1186.108004	698.25
1186.659733	699.0
1187.211405	700.0
1187.76302	703.25
1188.314578	700.0
1188.866079	701.0
1189.417523	700.5
1189.96891	699.75
1190.520241	700.75
1191.071514	699.0
1191.622731	700.0
1192.17389	702.0
1192.724993	703.0
1193.276039	724.25
1193.827027	701.75
1194.377959	705.25
1194.928834	702.5
1195.479653	705.0
1196.030414	696.0
1196.581118	703.0
1197.131766	699.0
1197.682356	702.5
1198.23289	698.75
1198.783367	698.75
1199.333786	706.75
1199.88415	700.5
1200.434456	702.0
1200.984705	695.75
1201.534898	705.75
1202.085033	700.75
1202.635112	703.75
1203.185134	707.0
1203.735099	700.5
1204.285007	701.5
1204.834859	703.5
1205.384653	698.0
1205.934391	701.75
1206.484072	703.25
1207.033696	701.25
1207.583263	695.5
1208.132774	702.0
1208.682228	706.0
1209.231624	703.0
1209.780965	699.75
1210.330248	700.5
1210.879474	697.25
1211.428644	700.0
1211.977757	704.25
1212.526813	701.25
1213.075813	701.0
1213.624755	705.25
1214.173641	700.75
1214.72247	700.25
1215.271242	694.5
1215.819958	702.5
1216.368617	702.25
1216.917219	702.0
1217.465764	705.0
1218.014253	705.0
1218.562685	701.25
1219.11106	704.25
1219.659378	703.75
1220.20764	701.5
1220.755845	704.75
1221.303993	706.5
1221.852085	704.5
1222.400119	702.5
1222.948097	699.0
1223.496019	696.75
1224.043883	699.75
1224.591691	703.0
1225.139443	702.5
1225.687137	702.5
1226.234775	699.0
1226.782357	702.75
1227.329881	703.5
1227.877349	702.0
1228.42476	702.75
1228.972115	703.25
1229.519413	707.0
1230.066654	702.75
1230.613839	700.25
1231.160967	702.25
1231.708038	705.5
1232.255053	705.75
1232.802011	705.75
1233.348912	710.25
1233.895757	707.5
1234.442545	703.0
1234.989277	702.0
1235.535951	702.0
1236.08257	702.0
1236.629131	703.75
1237.175636	703.25
1237.722085	699.0
1238.268477	705.25
1238.814812	702.25
1239.361091	706.5
1239.907313	704.5
1240.453478	704.5
1240.999587	700.5
1241.54564	708.0
1242.091636	708.0
1242.637575	706.5
1243.183457	707.75
1243.729284	700.5
1244.275053	701.25
1244.820766	705.0
1245.366423	702.25
1245.912022	704.5
1246.457566	706.75
1247.003053	699.5
1247.548483	704.75
1248.093857	700.75
1248.639174	701.5
1249.184435	702.0
1249.729639	701.5
1250.274787	707.5
1250.819878	706.75
1251.364912	705.25
1251.909891	703.0
1252.454812	702.75
1252.999677	706.25
1253.544486	708.25
1254.089238	702.5
1254.633934	705.25
1255.178573	704.5
1255.723156	706.0
1256.267682	706.0
1256.812152	706.5
1257.356565	706.75
1257.900922	709.25
1258.445223	710.5
1258.989467	710.75
1259.533654	714.0
1260.077785	724.5
1260.62186	713.25
1261.165878	720.75
1261.70984	715.5
1262.253745	722.0
1262.797594	727.5
1263.341386	728.0
1263.885123	734.25
1264.428802	732.5
1264.972425	722.75
1265.515992	725.25
1266.059503	713.75
1266.602957	711.5
1267.146354	712.25
1267.689696	713.5
1268.23298	714.25
1268.776209	711.5
1269.319381	709.0
1269.862497	710.0
1270.405556	713.5
1270.948559	713.25
1271.491506	713.25
1272.034396	709.0
1272.57723	712.0
1273.120007	708.25
1273.662728	710.25
1274.205393	710.25
1274.748002	711.5
1275.290554	713.75
1275.83305	708.75
1276.375489	712.25
1276.917872	713.25
1277.460199	713.75
1278.00247	722.0
1278.544684	717.25
1279.086842	713.25
1279.628943	721.0
1280.170989	727.0
1280.712978	735.5
1281.25491	756.25
1281.796787	781.75
1282.338607	856.75
1282.880371	975.75
1283.422078	1118.0
1283.963729	1173.75
1284.505324	1060.25
1285.046863	913.75
1285.588345	819.75
1286.129772	759.75
1286.671142	739.25
1287.212455	738.75
1287.753713	725.75
1288.294914	717.5
1288.836059	722.5
1289.377147	718.0
1289.91818	715.0
1290.459156	716.25
1291.000076	714.75
1291.54094	714.25
1292.081747	712.5
1292.622499	713.5
1293.163194	711.25
1293.703833	712.0
1294.244415	714.0
1294.784942	717.0
1295.325412	709.5
1295.865826	711.0
1296.406184	707.5
1296.946486	713.25
1297.486731	707.0
1298.026921	710.25
1298.567054	713.25
1299.107131	707.25
1299.647152	711.0
1300.187116	708.5
1300.727025	710.0
1301.266877	710.5
1301.806673	708.5
1302.346413	712.75
1302.886097	707.25
1303.425725	705.25
1303.965297	706.75
1304.504812	707.75
1305.044272	710.5
1305.583675	705.75
1306.123022	707.25
1306.662313	705.75
1307.201548	706.0
1307.740727	707.5
1308.279849	707.5
1308.818916	709.0
1309.357926	705.25
1309.896881	708.5
1310.435779	707.25
1310.974621	707.25
1311.513407	708.25
1312.052137	708.25
1312.590811	700.25
1313.129429	708.5
1313.667991	705.0
1314.206497	708.0
1314.744946	704.75
1315.28334	710.25
1315.821678	708.5
1316.359959	708.25
1316.898184	707.75
1317.436354	704.0
1317.974467	708.0
1318.512525	702.0
1319.050526	705.0
1319.588471	708.25
1320.12636	704.25
1320.664194	699.5
1321.201971	703.25
1321.739692	706.75
1322.277357	706.0
1322.814967	710.0
1323.35252	704.25
1323.890017	713.5
1324.427458	707.75
1324.964843	703.25
1325.502173	699.75
1326.039446	699.0
1326.576663	708.0
1327.113824	703.0
1327.65093	708.0
1328.187979	703.25
1328.724972	705.25
1329.26191	709.5
1329.798791	705.5
1330.335617	703.5
1330.872386	703.25
1331.4091	705.25
1331.945758	703.75
1332.48236	701.0
1333.018905	701.0
1333.555395	706.25
1334.091829	711.75
1334.628207	707.75
1335.164529	707.25
1335.700796	707.75
1336.237006	705.0
1336.77316	708.75
1337.309259	706.5
1337.845301	703.75
1338.381288	704.0
1338.917219	707.0
1339.453094	706.0
1339.988913	703.0
1340.524676	706.0
1341.060383	707.25
1341.596034	701.5
1342.13163	706.0
1342.66717	701.5
1343.202653	706.75
1343.738081	706.0
1344.273453	708.5
1344.80877	705.0
1345.34403	708.75
1345.879235	707.25
1346.414383	703.0
1346.949476	702.75
1347.484513	708.0
1348.019494	703.75
1348.55442	708.0
1349.089289	707.5
1349.624103	704.75
1350.158861	703.0
1350.693563	704.5
1351.228209	704.0
1351.7628	702.75
1352.297334	708.25
1352.831813	710.0
1353.366236	707.75
1353.900604	709.0
1354.434915	710.25
1354.969171	705.75
1355.503371	700.75
1356.037515	705.0
1356.571604	709.25
1357.105636	703.25
1357.639613	709.75
1358.173535	705.5
1358.7074	705.0
1359.24121	706.0
1359.774964	707.75
1360.308662	710.25
1360.842304	707.0
1361.375891	705.0
1361.909422	707.25
1362.442897	706.5
1362.976317	707.25
1363.50968	708.5
1364.042989	709.25
1364.576241	709.5
1365.109438	708.75
1365.642579	708.5
1366.175664	710.25
1366.708693	709.0
1367.241667	709.0
1367.774585	710.0
1368.307448	706.75
1368.840255	709.0
1369.373006	713.25
1369.905701	728.75
1370.438341	728.5
1370.970925	710.75
1371.503454	710.5
1372.035926	707.25
1372.568344	714.0
1373.100705	711.75
1373.633011	707.75
1374.165261	709.0
1374.697456	710.75
1375.229595	713.5
1375.761678	709.5
1376.293705	714.5
1376.825677	712.25
1377.357594	712.5
1377.889455	714.0
1378.42126	714.0
1378.953009	716.5
1379.484703	715.0
1380.016342	717.75
1380.547924	718.5
1381.079452	718.25
1381.610923	721.25
1382.142339	721.0
1382.673699	720.5
1383.205004	728.75
1383.736253	731.25
1384.267447	733.25
1384.798585	745.0
1385.329668	755.75
1385.860695	784.0
1386.391666	861.25
1386.922582	1009.75
1387.453442	1350.25
1387.984247	1676.0
1388.514996	1488.0
1389.04569	1079.5
1389.576328	878.75
1390.10691	791.0
1390.637437	761.75
1391.167909	741.25
1391.698325	736.0
1392.228685	728.75
1392.75899	728.75
1393.28924	719.25
1393.819434	725.0
1394.349572	717.5
1394.879655	720.25
1395.409683	714.5
1395.939655	717.25
1396.469571	713.75
1396.999432	711.75
1397.529237	710.0
1398.058987	717.0
1398.588682	713.0
1399.118321	714.25
1399.647905	713.25
1400.177433	710.75
1400.706906	718.0
1401.236323	709.0
1401.765685	710.5
1402.294991	710.5
1402.824242	712.5
1403.353437	713.0
1403.882577	710.25
1404.411662	715.25
1404.940691	715.75
1405.469665	715.5
1405.998583	720.75
1406.527446	719.0
1407.056253	719.25
1407.585005	729.0
1408.113702	733.75
1408.642343	745.5
1409.170929	750.5
1409.69946	745.5
1410.227935	746.0
1410.756354	730.75
1411.284719	719.5
1411.813028	722.25
1412.341281	719.0
1412.869479	715.0
1413.397622	713.5
1413.92571	710.75
1414.453742	708.25
1414.981718	711.0
1415.50964	721.75
1416.037506	708.75
1416.565316	705.75
1417.093072	707.0
1417.620772	706.75
1418.148416	708.0
1418.676005	703.5
1419.203539	710.0
1419.731018	706.75
1420.258441	706.0
1420.785809	706.5
1421.313122	701.5
1421.840379	706.0
1422.367582	709.0
1422.894728	705.75
1423.42182	707.25
1423.948856	708.75
1424.475837	707.0
1425.002762	707.5
1425.529633	708.75
1426.056448	706.0
1426.583207	705.25
1427.109912	708.0
1427.636561	703.0
1428.163155	705.25
1428.689694	705.25
1429.216177	702.5
1429.742605	708.5
1430.268978	704.75
1430.795296	702.0
1431.321558	703.75
1431.847765	707.5
1432.373917	701.0
1432.900014	706.5
1433.426056	701.75
1433.952042	699.0
1434.477973	703.25
1435.003849	697.25
1435.529669	705.25
1436.055435	704.0
1436.581145	702.5
1437.1068	701.75
1437.632399	701.5
1438.157944	700.25
1438.683433	705.0
1439.208868	703.0
1439.734247	703.75
1440.25957	701.25
1440.784839	703.5
1441.310053	705.5
1441.835211	706.75
1442.360314	706.0
1442.885362	704.75
1443.410355	705.75
1443.935292	703.5
1444.460175	703.25
1444.985002	701.25
1445.509774	706.25
1446.034491	705.0
1446.559153	705.0
1447.08376	706.25
1447.608312	705.5
1448.132808	703.75
1448.65725	703.0
1449.181636	700.25
1449.705967	704.0
1450.230243	704.5
1450.754464	701.75
1451.27863	701.0
1451.802741	705.25
1452.326797	703.75
1452.850797	701.0
1453.374743	706.5
1453.898633	702.75
1454.422468	702.25
1454.946249	703.5
1455.469974	699.5
1455.993644	705.0
1456.517259	702.0
1457.040819	704.5
1457.564324	700.75
1458.087773	703.25
1458.611168	709.25
1459.134508	700.75
1459.657793	698.75
1460.181022	700.25
1460.704197	700.0
1461.227316	700.75
1461.750381	698.5
1462.27339	703.75
1462.796345	703.25
1463.319244	698.25
1463.842089	700.75
1464.364878	699.0
1464.887613	700.0
1465.410292	701.5
1465.932916	699.25
1466.455486	698.0
1466.978	701.25
1467.50046	702.25
1468.022864	703.5
1468.545214	701.25
1469.067508	707.0
1469.589748	703.5
1470.111932	709.0
1470.634062	701.75
1471.156136	703.0
1471.678156	697.0
1472.20012	699.0
1472.72203	700.25
1473.243885	701.25
1473.765685	703.5
1474.28743	703.25
1474.80912	707.25
1475.330755	696.5
1475.852335	696.5
1476.37386	705.0
1476.89533	705.5
1477.416745	701.0
1477.938106	698.5
1478.459411	706.25
1478.980662	704.75
1479.501857	701.75
1480.022998	703.75
1480.544084	702.0
1481.065115	701.75
1481.586091	703.0
1482.107012	701.0
1482.627878	704.5
1483.14869	699.25
1483.669446	700.75
1484.190148	702.75
1484.710794	704.75
1485.231386	705.0
1485.751923	705.5
1486.272406	702.75
1486.792833	699.25
1487.313205	697.25
1487.833523	698.5
1488.353786	702.75
1488.873994	702.0
1489.394147	701.0
1489.914245	707.0
1490.434288	701.75
1490.954277	707.25
1491.474211	704.25
1491.99409	705.5
1492.513914	701.5
1493.033683	704.25
1493.553398	701.25
1494.073057	705.0
1494.592662	703.5
1495.112212	700.0
1495.631708	704.75
1496.151148	700.25
1496.670534	700.0
1497.189865	704.25
1497.709141	702.5
1498.228362	701.75
1498.747529	701.0
1499.266641	703.5
1499.785698	707.5
1500.3047	700.25
1500.823648	702.25
1501.34254	705.25
1501.861379	700.25
1502.380162	701.5
1502.89889	699.75
1503.417564	691.25
1503.936183	700.75
1504.454748	704.25
1504.973257	703.0
1505.491712	697.25
1506.010112	702.25
1506.528458	699.75
1507.046748	701.25
1507.564984	701.0
1508.083166	700.5
1508.601292	699.75
1509.119364	706.25
1509.637381	701.0
1510.155344	705.25
1510.673252	707.25
1511.191105	700.75
1511.708903	699.5
1512.226647	698.0
1512.744336	702.75
1513.261971	702.0
1513.77955	703.75
1514.297076	704.25
1514.814546	699.75
1515.331962	700.25
1515.849323	701.5
1516.366629	698.25
1516.883881	697.75
1517.401078	700.25
1517.918221	699.0
1518.435309	698.5
1518.952342	697.75
1519.469321	701.5
1519.986245	703.25
1520.503114	701.25
1521.019929	697.25
1521.536689	702.0
1522.053395	703.0
1522.570046	699.75
1523.086642	699.5
1523.603184	700.0
1524.119671	700.25
1524.636103	705.25
1525.152481	700.75
1525.668805	699.75
1526.185073	704.75
1526.701288	701.25
1527.217447	703.0
1527.733552	697.75
1528.249603	705.5
1528.765599	701.25
1529.28154	701.0
1529.797427	704.5
1530.313259	701.0
1530.829037	701.5
1531.34476	702.75
1531.860429	702.5
1532.376043	698.5
1532.891602	703.0
1533.407107	703.75
1533.922558	705.25
1534.437954	697.5
1534.953295	700.75
1535.468582	700.0
1535.983815	700.75
1536.498993	701.0
1537.014116	696.25
1537.529185	704.5
1538.044199	699.75
1538.559159	701.5
1539.074064	700.5
1539.588915	704.5
1540.103712	698.5
1540.618454	695.0
1541.133141	699.25
1541.647774	702.0
1542.162353	706.5
1542.676877	698.5
1543.191346	699.25
1543.705761	702.25
1544.220122	702.0
1544.734428	702.25
1545.24868	699.5
1545.762877	700.25
1546.27702	700.5
1546.791109	698.5
1547.305143	699.25
1547.819122	702.25
1548.333047	701.75
1548.846918	700.75
1549.360734	698.75
1549.874496	701.5
1550.388204	697.75
1550.901857	698.5
1551.415455	701.75
1551.929	701.5
1552.442489	706.0
1552.955925	700.25
1553.469306	701.25
1553.982632	703.0
1554.495905	700.5
1555.009123	702.0
1555.522286	701.25
1556.035395	700.5
1556.54845	698.5
1557.06145	696.5
1557.574396	702.5
1558.087288	702.25
1558.600125	702.5
1559.112908	703.25
1559.625637	699.25
1560.138311	698.25
1560.650931	697.75
1561.163497	701.5
1561.676008	705.0
1562.188465	698.75
1562.700867	698.5
1563.213216	699.75
1563.725509	702.5
1564.237749	701.5
1564.749934	703.5
1565.262065	701.25
1565.774142	702.25
1566.286164	699.5
1566.798132	698.0
1567.310046	703.25
1567.821906	700.5
1568.333711	697.5
1568.845462	702.0
1569.357158	697.75
1569.868801	699.5
1570.380389	703.5
1570.891922	700.25
1571.403402	701.25
1571.914827	698.75
1572.426198	706.25
1572.937515	699.5
1573.448777	700.0
1573.959985	702.5
1574.471139	703.5
1574.982239	697.5
1575.493285	700.25
1576.004276	703.5
1576.515213	700.0
1577.026096	703.25
1577.536924	701.0
1578.047698	708.5
1579.579696	702.0
1580.090254	700.75
1580.600757	705.25
1581.111206	704.5
1581.621601	706.25
1582.131941	698.5
1582.642228	700.25
1583.15246	699.5
1583.662638	704.25
1584.172762	700.25
1584.682832	704.25
1585.192847	699.0
1585.702809	699.0
1586.212716	708.0
1586.722569	701.0
1587.232368	700.0
1587.742113	702.0
1588.251803	699.0
1588.76144	704.0
1589.271022	702.75
1589.78055	698.5
1590.290024	700.5
1590.799444	699.75
1591.30881	703.25
1591.818121	699.0
1592.327379	698.75
