1042.414189	686.5
1042.980685	685.75
1043.547124	684.5
1044.113505	688.25
1044.679828	683.5
1045.246093	684.5
1045.8123	682.25
1046.378449	681.25
1046.94454	682.5
1047.510573	681.5
1048.076548	681.75
1048.642465	680.5
1049.208325	681.75
1049.774126	677.5
1050.339869	680.5
1050.905555	683.75
1051.471183	680.5
1052.036752	679.0
1052.602264	676.5
1053.167718	679.0
1053.733114	677.25
1054.298452	675.75
1054.863733	676.5
1055.428955	679.0
1055.994119	677.75
1056.559226	674.25
1057.124275	678.75
1057.689266	673.0
1058.254199	675.5
1058.819074	673.75
1059.383891	674.5
1059.94865	673.25
1060.513352	674.75
1061.077996	678.5
1061.642582	676.25
1062.20711	675.0
1062.77158	676.25
1063.335992	675.0
1063.900347	675.25
1064.464643	672.75
1065.028882	675.0
1065.593063	676.5
1066.157187	674.5
1066.721252	673.5
1067.28526	670.5
1067.84921	673.5
1068.413102	674.0
1068.976936	675.0
1069.540713	673.25
1070.104431	678.0
1070.668092	675.25
1071.231696	673.5
1071.795241	672.0
1072.358729	672.5
1072.922159	675.25
1073.485531	670.75
1074.048845	673.75
1074.612102	674.0
1075.175301	673.25
1075.738442	671.25
1076.301525	672.0
1076.864551	672.5
1077.427519	673.5
1077.990429	674.0
1078.553281	671.75
1079.116076	673.25
1079.678813	675.5
1080.241492	672.75
1080.804114	673.75
1081.366678	672.75
1081.929184	673.25
1082.491633	674.5
1083.054024	673.0
1083.616357	672.75
1084.178632	671.75
1084.74085	672.25
1085.30301	671.25
1085.865113	673.0
1086.427158	675.5
1086.989145	674.0
1087.551074	673.5
1088.112946	674.5
1088.67476	670.5
1089.236517	673.75
1089.798216	670.5
1090.359857	669.75
1090.92144	673.25
1091.482966	673.0
1092.044435	672.5
1092.605845	670.0
1093.167199	676.75
1093.728494	673.75
1094.289732	672.25
1094.850912	671.75
1095.412035	682.0
1095.9731	672.25
1096.534107	670.25
1097.095057	679.75
1097.65595	671.5
1098.216784	668.5
1098.777561	676.5
1099.338281	672.25
1099.898943	672.25
1100.459547	672.0
1101.020094	673.25
1101.580584	671.0
1102.141015	671.5
1102.701389	674.0
1103.261706	671.75
1103.821965	674.75
1104.382167	670.25
1104.942311	669.25
1105.502397	675.75
1106.062426	674.75
1106.622398	670.0
1107.182312	673.25
1107.742168	670.5
1108.301967	673.5
1108.861708	672.5
1109.421392	672.5
1109.981019	673.5
1110.540587	671.25
1111.100099	669.5
1111.659553	671.75
1112.218949	674.0
1112.778288	670.75
1113.33757	672.0
1113.896794	675.0
1114.45596	670.5
1115.015069	669.75
1115.574121	668.75
1116.133115	671.0
1116.692052	673.5
1117.250931	672.25
1117.809753	670.25
1118.368517	670.25
1118.927224	672.5
1119.485873	671.5
1120.044465	676.25
1120.603	674.75
1121.161477	672.75
1121.719897	673.25
1122.278259	674.25
1122.836564	668.25
1123.394812	670.75
1123.953002	672.75
1124.511135	668.75
1125.06921	672.0
1125.627228	673.0
1126.185189	669.25
1126.743092	671.75
1127.300938	676.75
1127.858726	670.5
1128.416457	669.5
1128.974131	672.5
1129.531748	674.25
1130.089307	670.25
1130.646808	669.75
1131.204252	673.25
1131.761639	672.75
1132.318969	671.75
1132.876241	674.0
1133.433456	674.0
1133.990614	674.75
1134.547714	671.25
1135.104757	675.0
1135.661743	673.25
1136.218671	672.25
1136.775542	674.0
1137.332356	671.75
1137.889112	674.0
1138.445811	670.5
1139.002453	672.25
1139.559037	671.75
1140.115565	672.75
1140.672035	671.5
1141.228447	672.75
1141.784803	670.75
1142.341101	673.75
1142.897342	673.0
1143.453525	676.75
1144.009651	673.5
1144.565721	675.75
1145.121732	674.5
1145.677687	673.25
1146.233584	673.75
1146.789424	673.25
1147.345207	675.75
1147.900933	679.0
1148.456601	677.25
1149.012212	672.75
1149.567766	676.25
1150.123263	678.0
1150.678702	695.25
1151.234085	726.25
1151.78941	708.0
1152.344678	682.0
1152.899888	674.5
1153.455042	674.25
1154.010138	676.0
1154.565177	676.25
1155.120159	676.75
1155.675084	673.75
1156.229951	669.25
1156.784762	676.0
1157.339515	673.0
1157.894211	670.0
1158.44885	674.0
1159.003432	669.5
1159.557956	672.25
1160.112424	672.25
1160.666834	673.25
1161.221187	670.75
1161.775483	672.25
1162.329722	672.0
1162.883904	673.25
1163.438029	673.25
1163.992096	674.25
1164.546107	674.0
1165.10006	673.5
1165.653956	669.5
1166.207795	671.0
1166.761577	670.75
1167.315302	672.5
1167.86897	671.0
1168.422581	670.5
1168.976134	671.25
1169.529631	673.25
1170.08307	671.25
1170.636453	676.0
1171.189778	672.75
1171.743046	672.75
1172.296257	670.5
1172.849412	671.75
1173.402509	676.0
1173.955549	673.0
1174.508532	674.75
1175.061458	673.25
1175.614327	670.0
1176.167138	673.0
1176.719893	673.25
1177.272591	671.25
1177.825232	673.25
1178.377816	670.25
1178.930342	674.0
1179.482812	670.75
1180.035225	672.75
1180.587581	671.5
1181.139879	668.25
1181.692121	670.75
1182.244306	672.5
1182.796434	671.5
1183.348504	672.75
1183.900518	675.5
1184.452475	673.5
1185.004375	672.5
1185.556218	672.0
1186.108004	671.25
1186.659733	669.25
1187.211405	672.25
1187.76302	667.5
1188.314578	669.75
1188.866079	673.5
1189.417523	670.25
1189.96891	672.5
1190.520241	672.75
1191.071514	670.25
1191.622731	672.0
1192.17389	672.5
1192.724993	672.0
1193.276039	690.75
1193.827027	670.75
1194.377959	674.0
1194.928834	671.25
1195.479653	674.0
1196.030414	672.25
1196.581118	671.0
1197.131766	675.0
1197.682356	674.0
1198.23289	671.25
1198.783367	670.5
1199.333786	671.75
1199.88415	670.5
1200.434456	671.5
1200.984705	672.0
1201.534898	674.0
1202.085033	668.25
1202.635112	672.75
1203.185134	672.0
1203.735099	671.75
1204.285007	673.75
1204.834859	672.0
1205.384653	671.5
1205.934391	673.25
1206.484072	671.75
1207.033696	670.75
1207.583263	671.75
1208.132774	673.25
1208.682228	669.75
1209.231624	672.75
1209.780965	673.75
1210.330248	672.0
1210.879474	672.0
1211.428644	672.0
1211.977757	669.5
1212.526813	669.5
1213.075813	672.75
1213.624755	671.25
1214.173641	673.0
1214.72247	674.0
1215.271242	672.5
1215.819958	673.0
1216.368617	671.25
1216.917219	672.5
1217.465764	672.0
1218.014253	673.75
1218.562685	673.0
1219.11106	671.5
1219.659378	673.25
1220.20764	675.0
1220.755845	674.0
1221.303993	669.0
1221.852085	670.25
1222.400119	673.5
1222.948097	673.5
1223.496019	673.25
1224.043883	672.75
1224.591691	671.25
1225.139443	673.5
1225.687137	671.5
1226.234775	673.75
1226.782357	674.0
1227.329881	672.0
1227.877349	672.25
1228.42476	675.0
1228.972115	671.75
1229.519413	672.0
1230.066654	671.25
1230.613839	674.0
1231.160967	674.0
1231.708038	676.25
1232.255053	675.75
1232.802011	674.25
1233.348912	672.75
1233.895757	673.25
1234.442545	674.75
1234.989277	675.25
1235.535951	673.0
1236.08257	671.0
1236.629131	671.75
1237.175636	671.0
1237.722085	669.75
1238.268477	671.75
1238.814812	673.25
1239.361091	673.0
1239.907313	673.0
1240.453478	672.25
1240.999587	673.5
1241.54564	674.75
1242.091636	670.5
1242.637575	674.0
1243.183457	670.5
1243.729284	671.0
1244.275053	673.25
1244.820766	678.0
1245.366423	676.5
1245.912022	674.0
1246.457566	671.75
1247.003053	672.75
1247.548483	672.5
1248.093857	675.25
1248.639174	675.75
1249.184435	673.0
1249.729639	675.0
1250.274787	673.75
1250.819878	672.5
1251.364912	675.75
1251.909891	670.25
1252.454812	674.0
1252.999677	671.5
1253.544486	673.0
1254.089238	671.25
1254.633934	670.5
1255.178573	672.0
1255.723156	673.0
1256.267682	674.25
1256.812152	672.25
1257.356565	671.5
1257.900922	675.25
1258.445223	674.5
1258.989467	670.5
1259.533654	673.75
1260.62186	673.0
1261.165878	672.0
1261.70984	673.0
1262.253745	673.0
1262.797594	675.5
1263.341386	675.75
1263.885123	677.75
1264.428802	681.0
1264.972425	688.5
1265.515992	704.75
1266.059503	703.5
1266.602957	688.0
1267.146354	680.75
1267.689696	676.25
1268.23298	676.25
1268.776209	674.75
1269.319381	675.5
1269.862497	675.75
1270.405556	674.0
1270.948559	676.25
1271.491506	675.0
1272.034396	670.75
1272.57723	674.25
1273.120007	672.75
1273.662728	673.75
1274.205393	673.75
1274.748002	672.5
1275.290554	675.25
1275.83305	671.75
1276.375489	673.25
1276.917872	673.5
1277.460199	672.5
1278.00247	676.25
1278.544684	672.5
1279.086842	674.25
1279.628943	672.5
1280.170989	673.0
1280.712978	674.5
1281.25491	677.75
1281.796787	679.75
1282.338607	677.25
1282.880371	679.75
1283.422078	689.0
1283.963729	698.0
1284.505324	719.0
1285.046863	809.75
1285.588345	1026.75
1286.129772	1141.25
1286.671142	881.0
1287.212455	732.75
1287.753713	695.5
1288.294914	689.25
1288.836059	682.25
1289.377147	678.75
1289.91818	676.0
1290.459156	675.25
1291.000076	676.75
1291.54094	677.25
1292.081747	673.0
1292.622499	672.0
1293.163194	676.5
1293.703833	673.5
1294.244415	676.0
1294.784942	676.5
1295.325412	673.75
1295.865826	672.5
1296.406184	672.5
1296.946486	672.75
1297.486731	671.75
1298.026921	672.75
1298.567054	672.0
1299.107131	671.25
1299.647152	671.5
1300.187116	676.5
1300.727025	672.25
1301.266877	669.0
1301.806673	666.25
1302.346413	672.25
1302.886097	674.0
1303.425725	672.0
1303.965297	668.25
1304.504812	672.75
1305.044272	671.75
1305.583675	673.25
1306.123022	672.0
1306.662313	673.25
1307.201548	672.0
1307.740727	672.0
1308.279849	668.5
1308.818916	672.0
1309.357926	668.75
1309.896881	672.25
1310.435779	674.5
1310.974621	672.0
1311.513407	671.75
1312.052137	670.75
1312.590811	674.0
1313.129429	671.5
1313.667991	672.5
1314.206497	672.0
1314.744946	669.0
1315.28334	667.25
1315.821678	672.5
1316.359959	672.25
1316.898184	673.5
1317.436354	672.25
1317.974467	672.75
1318.512525	673.5
1319.050526	672.0
1319.588471	674.0
1320.12636	672.5
1320.664194	675.5
1321.201971	671.25
1321.739692	672.75
1322.277357	671.0
1322.814967	669.75
1323.35252	673.75
1323.890017	678.75
1324.427458	676.0
1324.964843	670.5
1325.502173	671.25
1326.039446	672.5
1326.576663	670.0
1327.113824	671.25
1327.65093	674.0
1328.187979	670.75
1328.724972	669.5
1329.26191	671.25
1329.798791	670.75
1330.335617	671.0
1330.872386	670.25
1331.4091	672.25
1331.945758	671.0
1332.48236	670.5
1333.018905	668.25
1333.555395	671.5
1334.091829	669.75
1334.628207	675.0
1335.164529	673.75
1335.700796	670.0
1336.237006	668.5
1336.77316	671.75
1337.309259	672.25
1337.845301	673.5
1338.381288	673.0
1338.917219	671.25
1339.453094	671.0
1339.988913	674.75
1340.524676	672.5
1341.060383	670.25
1341.596034	672.5
1342.13163	672.75
1342.66717	670.25
1343.202653	673.5
1343.738081	671.5
1344.273453	673.0
1344.80877	669.25
1345.34403	673.5
1345.879235	670.5
1346.414383	669.75
1346.949476	671.75
1347.484513	675.0
1348.019494	670.0
1348.55442	668.75
1349.089289	670.75
1349.624103	674.0
1350.158861	671.5
1350.693563	672.75
1351.228209	673.75
1351.7628	671.0
1352.297334	673.0
1352.831813	674.25
1353.366236	671.0
1353.900604	668.75
1354.434915	669.75
1354.969171	672.25
1355.503371	674.25
1356.037515	672.0
1356.571604	672.5
1357.105636	674.0
1357.639613	674.5
1358.173535	670.25
1358.7074	669.75
1359.24121	673.0
1359.774964	672.25
1360.308662	671.25
1360.842304	673.0
1361.375891	676.75
1361.909422	674.0
1362.442897	673.25
1362.976317	672.5
1363.50968	675.0
1364.042989	670.5
1364.576241	675.75
1365.109438	673.0
1365.642579	673.75
1366.175664	671.0
1366.708693	673.0
1367.241667	672.75
1367.774585	672.25
1368.307448	671.0
1368.840255	673.5
1369.373006	674.0
1369.905701	674.5
1370.438341	676.5
1370.970925	686.5
1371.503454	681.75
1372.035926	675.0
1372.568344	674.25
1373.100705	671.75
1373.633011	675.25
1374.165261	673.5
1374.697456	674.0
1375.229595	673.5
1375.761678	673.25
1376.293705	675.25
1376.825677	672.0
1377.357594	672.25
1377.889455	674.0
1378.42126	674.75
1378.953009	677.25
1379.484703	673.75
1380.016342	677.0
1380.547924	675.25
1381.079452	676.0
1381.610923	673.0
1382.142339	675.25
1382.673699	678.5
1383.205004	676.25
1383.736253	681.75
1384.267447	675.25
1384.798585	678.5
1385.329668	681.25
1385.860695	682.0
1386.391666	685.25
1386.922582	686.75
1387.453442	703.25
1387.984247	740.25
1388.514996	911.0
1389.04569	1407.25
1389.576328	1367.0
1390.10691	865.0
1390.637437	724.5
1391.167909	691.25
1391.698325	687.5
1392.228685	681.75
1392.75899	680.0
1393.28924	677.25
1393.819434	678.75
1394.349572	675.0
1394.879655	672.5
1395.409683	674.75
1395.939655	673.0
1396.469571	674.0
1396.999432	672.25
1397.529237	673.75
1398.058987	674.5
1398.588682	669.75
1399.118321	674.5
1399.647905	671.5
1400.177433	673.5
1400.706906	674.0
1401.236323	671.0
1401.765685	670.0
1402.294991	672.75
1402.824242	670.75
1403.353437	673.5
1403.882577	669.75
1404.411662	668.5
1404.940691	673.25
1405.469665	672.75
1405.998583	675.0
1406.527446	678.5
1407.056253	675.25
1407.585005	674.5
1408.113702	675.5
1408.642343	677.0
1409.170929	683.0
1409.69946	694.25
1410.227935	718.5
1410.756354	733.0
1411.284719	704.75
1411.813028	681.25
1412.341281	673.0
1412.869479	674.25
1413.397622	670.25
1413.92571	672.0
1414.453742	673.5
1414.981718	669.5
1415.50964	683.75
1416.037506	670.5
1416.565316	672.0
1417.093072	671.0
1417.620772	672.0
1418.148416	671.75
1418.676005	669.5
1419.203539	673.25
1419.731018	668.75
1420.258441	673.5
1420.785809	670.25
1421.313122	671.5
1421.840379	672.25
1422.367582	669.25
1422.894728	669.25
1423.42182	672.75
1423.948856	670.0
1424.475837	671.0
1425.002762	672.0
1425.529633	669.75
1426.056448	671.75
1426.583207	672.5
1427.109912	674.25
1427.636561	669.25
1428.163155	670.5
1428.689694	667.25
1429.216177	671.25
1429.742605	668.25
1430.268978	672.0
1430.795296	668.5
1431.321558	670.75
1431.847765	669.5
1432.373917	670.25
1432.900014	671.75
1433.426056	669.75
1433.952042	670.75
1434.477973	667.75
1435.003849	667.5
1435.529669	670.0
1436.055435	668.5
1436.581145	669.0
1437.1068	671.75
1437.632399	672.0
1438.157944	668.0
1438.683433	670.5
1439.208868	669.0
1439.734247	669.75
1440.25957	670.0
1440.784839	669.5
1441.310053	670.5
1441.835211	669.25
1442.360314	668.75
1442.885362	671.0
1443.410355	666.25
1443.935292	670.25
1444.460175	669.25
1444.985002	669.0
1445.509774	672.5
1446.034491	666.75
1446.559153	672.0
1447.08376	667.0
1447.608312	672.0
1448.132808	672.0
1448.65725	667.75
1449.181636	669.5
1449.705967	670.75
1450.230243	666.75
1450.754464	668.25
1451.27863	668.25
1451.802741	667.75
1452.326797	667.5
1452.850797	667.5
1453.374743	668.75
1453.898633	670.25
1454.422468	666.25
1454.946249	665.5
1455.469974	667.25
1455.993644	668.25
1456.517259	671.25
1457.040819	666.5
1457.564324	664.75
1458.087773	668.0
1458.611168	667.0
1459.134508	670.5
1459.657793	666.5
1460.181022	669.75
1460.704197	667.0
1461.227316	668.75
1461.750381	668.5
1462.27339	669.5
1462.796345	667.5
1463.319244	668.25
1463.842089	667.75
1464.364878	666.25
1464.887613	668.75
1465.410292	666.25
1465.932916	670.5
1466.455486	668.5
1466.978	667.75
1467.50046	665.75
1468.022864	663.5
1468.545214	668.0
1469.067508	668.0
1469.589748	666.75
1470.111932	668.0
1470.634062	667.5
1471.156136	667.25
1471.678156	666.25
1472.20012	667.75
1472.72203	667.5
1473.243885	666.25
1473.765685	666.75
1474.28743	667.5
1474.80912	667.75
1475.330755	665.0
1475.852335	665.75
1476.37386	668.0
1476.89533	666.75
1477.416745	665.75
1477.938106	665.25
1478.459411	668.25
1478.980662	671.0
1479.501857	666.5
1480.022998	669.25
1480.544084	668.0
1481.065115	669.5
1481.586091	670.5
1482.107012	667.25
1482.627878	666.25
1483.14869	668.5
1483.669446	667.75
1484.190148	668.75
1484.710794	667.25
1485.231386	668.75
1485.751923	667.25
1486.272406	666.25
1486.792833	667.25
1487.313205	668.75
1487.833523	667.0
1488.353786	665.0
1488.873994	667.0
1489.394147	668.25
1489.914245	665.25
1490.434288	668.75
1490.954277	669.25
1491.474211	667.25
1491.99409	664.75
1492.513914	666.75
1493.033683	667.75
1493.553398	667.0
1494.073057	667.5
1494.592662	667.25
1495.112212	668.75
1495.631708	664.75
1496.151148	666.0
1496.670534	666.5
1497.189865	668.75
1497.709141	668.25
1498.228362	667.75
1498.747529	666.75
1499.266641	667.75
1499.785698	677.25
1501.34254	675.0
1501.861379	668.5
1502.380162	666.0
1502.89889	664.75
1503.417564	666.75
1503.936183	667.75
1504.454748	664.75
1504.973257	666.0
1505.491712	665.0
1506.010112	666.5
1506.528458	669.75
1507.046748	667.75
1507.564984	665.25
1508.083166	667.75
1508.601292	668.75
1509.119364	667.0
1509.637381	664.0
1510.155344	662.75
1510.673252	678.25
1511.191105	664.0
1511.708903	667.0
1512.226647	668.75
1512.744336	668.25
1513.261971	667.5
1513.77955	668.0
1514.297076	667.75
1514.814546	665.75
1515.331962	667.0
1515.849323	664.5
1516.366629	665.5
1516.883881	667.0
1517.401078	665.25
1517.918221	662.75
1518.435309	668.25
1518.952342	667.75
1519.469321	668.25
1519.986245	669.75
1520.503114	665.0
1521.019929	669.75
1521.536689	666.25
1522.053395	666.25
1522.570046	667.25
1523.086642	668.5
1523.603184	666.75
1524.119671	668.75
1524.636103	667.75
1525.152481	669.5
1525.668805	665.25
1526.185073	667.5
1526.701288	662.75
1527.217447	667.0
1527.733552	666.75
1528.249603	666.75
1528.765599	666.25
1529.28154	666.0
1529.797427	664.75
1530.313259	665.75
1530.829037	667.0
1531.34476	665.5
1531.860429	667.75
1532.376043	666.75
1532.891602	667.0
1533.407107	666.5
1533.922558	666.25
1534.437954	667.5
1534.953295	667.75
1535.468582	666.5
1535.983815	668.0
1536.498993	666.25
1537.014116	669.0
1537.529185	667.5
1538.044199	666.75
1538.559159	668.5
1539.074064	666.0
1539.588915	668.0
1540.103712	664.0
1540.618454	668.75
1541.133141	668.0
1541.647774	664.75
1542.162353	666.75
1542.676877	667.0
1543.191346	667.5
1543.705761	663.5
1544.220122	667.5
1544.734428	666.0
1545.24868	664.25
1545.762877	666.75
1546.27702	664.25
1546.791109	667.75
1547.305143	663.75
1547.819122	665.0
1548.333047	664.5
1548.846918	666.5
1549.360734	664.75
1549.874496	668.0
1550.388204	666.75
1550.901857	665.75
1551.415455	664.5
1551.929	668.0
1552.442489	669.25
1552.955925	669.0
1553.469306	666.0
1553.982632	667.25
1554.495905	670.25
1555.009123	670.25
1555.522286	665.25
1556.035395	665.0
1556.54845	669.5
1557.06145	668.25
1557.574396	668.75
1558.087288	666.5
1558.600125	666.0
1559.112908	666.5
1559.625637	669.0
1560.138311	663.75
1560.650931	666.25
1561.163497	666.25
1561.676008	667.5
1562.188465	667.75
1562.700867	665.5
1563.213216	667.25
1563.725509	666.75
1564.237749	668.0
1564.749934	665.5
1565.262065	666.0
1565.774142	668.0
1566.286164	667.5
1566.798132	670.0
1567.310046	669.5
1567.821906	665.0
1568.333711	665.5
1568.845462	666.5
1569.357158	666.75
1569.868801	668.75
1570.380389	668.25
1570.891922	664.0
1571.403402	664.5
1571.914827	663.5
1572.426198	669.0
1572.937515	665.25
1573.448777	666.25
1573.959985	666.75
1574.471139	666.5
1574.982239	665.5
1575.493285	664.25
1576.004276	665.5
1576.515213	663.75
1577.026096	665.75
1577.536924	664.75
1578.047698	664.5
1578.558419	666.5
1579.069084	666.25
1579.579696	664.75
1580.090254	665.25
1580.600757	665.25
1581.111206	665.0
1581.621601	664.25
1582.131941	667.25
1582.642228	669.75
1583.15246	664.5
1583.662638	663.25
1584.172762	666.25
1584.682832	664.75
1585.192847	663.25
1585.702809	665.5
1586.212716	663.25
1586.722569	667.5
1587.232368	666.0
1587.742113	665.25
1588.251803	667.25
1588.76144	663.75
1589.271022	665.5
1589.78055	665.0
1590.290024	664.75
1590.799444	667.25
1591.30881	663.25
1591.818121	664.5
1592.327379	665.75
