1042.414189	732.0
1042.980685	727.5999756
1043.547124	728.2000122
1044.113505	717.7999878
1044.679828	722.7999878
1045.246093	725.4000244
1045.8123	723.4000244
1046.378449	720.2000122
1046.94454	726.0
1047.510573	721.5999756
1048.076548	722.7999878
1048.642465	717.7999878
1049.208325	721.0
1049.774126	725.4000244
1050.339869	722.0
1050.905555	722.2000122
1051.471183	718.7999878
1052.036752	716.0
1052.602264	717.0
1053.167718	718.5999756
1053.733114	722.4000244
1054.298452	717.4000244
1054.863733	716.0
1055.428955	714.5999756
1055.994119	716.0
1056.559226	720.2000122
1057.124275	716.5999756
1057.689266	720.4000244
1058.254199	714.0
1058.819074	715.2000122
1059.383891	716.2000122
1059.94865	713.7999878
1060.513352	717.7999878
1061.077996	715.2000122
1061.642582	711.7999878
1062.20711	721.2000122
1062.77158	717.7999878
1063.335992	716.7999878
1063.900347	711.4000244
1064.464643	709.5999756
1065.028882	711.5999756
1065.593063	713.4000244
1066.157187	714.2000122
1066.721252	712.0
1067.28526	714.7999878
1067.84921	714.0
1068.413102	714.4000244
1068.976936	715.0
1069.540713	713.4000244
1070.104431	719.2000122
1070.668092	715.5999756
1071.231696	715.5999756
1071.795241	714.0
1072.358729	717.4000244
1072.922159	717.0
1073.485531	713.4000244
1074.048845	711.4000244
1074.612102	714.7999878
1075.175301	719.2000122
1075.738442	711.7999878
1076.301525	715.0
1076.864551	715.2000122
1077.427519	715.4000244
1077.990429	715.5999756
1078.553281	716.4000244
1079.116076	715.2000122
1079.678813	711.0
1080.241492	716.4000244
1080.804114	715.5999756
1081.366678	712.5999756
1081.929184	717.7999878
1082.491633	717.0
1083.054024	713.2000122
1083.616357	714.2000122
1084.178632	716.0
1084.74085	717.4000244
1085.30301	717.0
1085.865113	715.5999756
1086.427158	715.5999756
1086.989145	715.5999756
1087.551074	719.4000244
1088.112946	724.0
1088.67476	714.0
1089.236517	716.4000244
1089.798216	716.5999756
1090.359857	713.2000122
1090.92144	715.4000244
1091.482966	721.4000244
1092.044435	717.7999878
1093.167199	735.7999878
1093.728494	721.2000122
1094.289732	717.4000244
1094.850912	719.5999756
1095.412035	724.4000244
1095.9731	718.4000244
1096.534107	713.2000122
1097.095057	722.2000122
1097.65595	716.7999878
1098.216784	716.4000244
1098.777561	719.5999756
1099.338281	716.2000122
1099.898943	713.4000244
1100.459547	714.4000244
1101.020094	715.7999878
1101.580584	712.7999878
1102.141015	711.4000244
1102.701389	712.0
1103.261706	712.5999756
1103.821965	714.4000244
1104.382167	713.4000244
1104.942311	711.0
1105.502397	712.7999878
1106.062426	717.4000244
1106.622398	718.4000244
1107.182312	717.4000244
1107.742168	714.5999756
1108.301967	712.7999878
1108.861708	718.0
1109.421392	713.5999756
1109.981019	710.0
1110.540587	708.7999878
1111.100099	713.2000122
1111.659553	713.0
1112.218949	710.5999756
1112.778288	712.4000244
1113.33757	710.4000244
1113.896794	711.4000244
1114.45596	717.4000244
1115.015069	707.5999756
1115.574121	712.5999756
1116.133115	714.5999756
1116.692052	712.7999878
1117.250931	714.4000244
1117.809753	712.2000122
1118.368517	713.7999878
1118.927224	711.4000244
1119.485873	715.2000122
1120.044465	707.4000244
1120.603	709.7999878
1121.161477	715.4000244
1121.719897	709.7999878
1122.278259	710.2000122
1122.836564	712.7999878
1123.394812	710.4000244
1123.953002	715.2000122
1124.511135	711.2000122
1125.06921	715.7999878
1125.627228	711.0
1126.185189	713.7999878
1126.743092	716.4000244
1127.300938	710.0
1127.858726	715.7999878
1128.416457	710.2000122
1128.974131	711.4000244
1129.531748	712.4000244
1130.089307	714.5999756
1130.646808	715.0
1131.204252	712.4000244
1131.761639	712.7999878
1132.318969	715.2000122
1132.876241	718.7999878
1133.433456	712.5999756
1133.990614	711.4000244
1134.547714	714.4000244
1135.104757	711.4000244
1135.661743	715.0
1136.218671	718.7999878
1136.775542	710.5999756
1137.332356	714.2000122
1137.889112	709.5999756
1138.445811	711.2000122
1139.002453	716.4000244
1139.559037	712.0
1140.115565	710.4000244
1140.672035	712.0
1141.228447	712.0
1141.784803	713.4000244
1142.341101	710.7999878
1142.897342	717.0
1143.453525	714.0
1144.009651	710.2000122
1144.565721	712.4000244
1145.121732	715.5999756
1145.677687	712.7999878
1146.233584	712.4000244
1146.789424	711.7999878
1147.345207	714.4000244
1147.900933	712.2000122
1148.456601	712.7999878
1149.012212	714.7999878
1149.567766	716.0
1150.123263	716.2000122
1150.678702	714.2000122
1151.234085	719.5999756
1151.78941	712.4000244
1152.344678	716.0
1152.899888	710.0
1153.455042	710.5999756
1154.010138	711.5999756
1154.565177	715.7999878
1155.120159	713.7999878
1155.675084	712.4000244
1156.229951	716.4000244
1156.784762	719.5999756
1157.339515	711.0
1157.894211	712.7999878
1158.44885	711.0
1159.003432	714.5999756
1159.557956	714.7999878
1160.112424	717.2000122
1160.666834	713.5999756
1161.221187	715.5999756
1161.775483	713.7999878
1162.329722	712.7999878
1162.883904	709.5999756
1163.438029	712.2000122
1163.992096	715.7999878
1164.546107	714.5999756
1165.10006	716.5999756
1165.653956	718.0
1166.207795	716.7999878
1166.761577	717.5999756
1167.315302	711.7999878
1167.86897	712.0
1168.422581	714.0
1168.976134	718.7999878
1169.529631	711.7999878
1170.08307	714.0
1170.636453	711.0
1171.189778	713.7999878
1171.743046	713.4000244
1172.296257	713.5999756
1172.849412	713.2000122
1173.402509	716.7999878
1173.955549	712.7999878
1174.508532	711.7999878
1175.061458	714.7999878
1175.614327	712.7999878
1176.167138	714.0
1176.719893	715.2000122
1177.272591	713.0
1177.825232	715.2000122
1178.377816	708.7999878
1178.930342	715.0
1179.482812	715.5999756
1180.035225	716.0
1180.587581	714.2000122
1181.139879	713.2000122
1181.692121	710.0
1182.244306	712.5999756
1182.796434	714.7999878
1183.348504	715.2000122
1183.900518	711.4000244
1184.452475	718.4000244
1185.004375	713.7999878
1185.556218	714.0
1186.108004	714.5999756
1186.659733	712.4000244
1187.211405	714.4000244
1187.76302	716.4000244
1188.314578	712.0
1188.866079	715.4000244
1189.417523	716.4000244
1189.96891	712.4000244
1190.520241	715.5999756
1191.071514	715.5999756
1191.622731	711.4000244
1192.17389	718.7999878
1192.724993	713.7999878
1193.276039	732.2000122
1193.827027	718.0
1194.377959	713.5999756
1194.928834	713.0
1195.479653	716.5999756
1196.030414	717.5999756
1196.581118	712.7999878
1197.131766	713.0
1197.682356	714.0
1198.23289	718.0
1198.783367	716.5999756
1199.333786	712.2000122
1199.88415	719.0
1200.434456	718.7999878
1200.984705	714.7999878
1201.534898	717.2000122
1202.085033	714.5999756
1202.635112	714.0
1203.185134	716.5999756
1203.735099	716.4000244
1204.285007	717.7999878
1204.834859	716.5999756
1205.384653	717.4000244
1205.934391	720.0
1206.484072	722.4000244
1207.033696	716.0
1207.583263	716.5999756
1208.132774	716.5999756
1208.682228	717.7999878
1209.231624	713.4000244
1209.780965	715.2000122
1210.330248	711.7999878
1210.879474	712.5999756
1211.428644	715.0
1211.977757	714.0
1212.526813	712.5999756
1213.075813	714.5999756
1213.624755	714.7999878
1214.173641	712.5999756
1214.72247	719.2000122
1215.271242	718.0
1215.819958	715.4000244
1216.368617	719.2000122
1216.917219	717.7999878
1217.465764	716.7999878
1218.014253	718.2000122
1218.562685	715.0
1219.11106	715.2000122
1219.659378	717.4000244
1220.20764	717.2000122
1220.755845	712.7999878
1221.303993	713.0
1221.852085	712.5999756
1222.400119	718.5999756
1222.948097	713.4000244
1223.496019	718.5999756
1224.043883	716.2000122
1224.591691	715.4000244
1225.139443	716.0
1225.687137	714.2000122
1226.234775	716.5999756
1226.782357	716.0
1227.329881	717.2000122
1227.877349	713.5999756
1228.42476	716.4000244
1228.972115	718.5999756
1229.519413	717.4000244
1230.066654	718.2000122
1230.613839	714.5999756
1231.160967	715.7999878
1231.708038	717.5999756
1232.255053	717.7999878
1232.802011	717.5999756
1233.348912	720.5999756
1233.895757	715.5999756
1234.442545	718.0
1234.989277	718.4000244
1235.535951	714.4000244
1236.08257	714.0
1236.629131	720.2000122
1237.175636	717.4000244
1237.722085	716.5999756
1238.268477	719.2000122
1238.814812	719.7999878
1239.361091	717.7999878
1239.907313	717.2000122
1240.453478	719.4000244
1240.999587	717.2000122
1241.54564	719.2000122
1242.091636	725.2000122
1242.637575	718.2000122
1243.183457	715.2000122
1243.729284	720.7999878
1244.275053	724.0
1244.820766	716.5999756
1245.366423	718.7999878
1245.912022	719.2000122
1246.457566	725.0
1247.003053	719.5999756
1247.548483	722.2000122
1248.093857	721.5999756
1248.639174	720.2000122
1249.184435	720.0
1249.729639	721.2000122
1250.274787	722.2000122
1250.819878	722.2000122
1251.364912	721.7999878
1251.909891	722.2000122
1252.454812	723.2000122
1252.999677	720.0
1253.544486	721.2000122
1254.089238	723.4000244
1254.633934	723.4000244
1255.178573	722.2000122
1255.723156	726.0
1256.267682	726.7999878
1256.812152	723.7999878
1257.356565	729.7999878
1257.900922	728.0
1258.445223	729.7999878
1258.989467	738.4000244
1259.533654	732.4000244
1260.077785	748.2000122
1260.62186	739.4000244
1261.165878	737.2000122
1261.70984	750.5999756
1262.253745	757.5999756
1262.797594	760.7999878
1263.341386	764.7999878
1263.885123	763.7999878
1264.428802	757.0
1264.972425	752.2000122
1265.515992	747.4000244
1266.059503	738.2000122
1266.602957	743.0
1267.146354	736.5999756
1267.689696	735.4000244
1268.23298	735.0
1268.776209	732.4000244
1269.319381	732.2000122
1269.862497	731.4000244
1270.405556	734.5999756
1270.948559	731.5999756
1271.491506	728.4000244
1272.034396	730.2000122
1272.57723	731.5999756
1273.120007	735.7999878
1273.662728	730.0
1274.205393	733.5999756
1274.748002	737.2000122
1275.290554	730.5999756
1275.83305	734.5999756
1276.375489	735.4000244
1276.917872	737.5999756
1277.460199	739.7999878
1278.00247	740.7999878
1278.544684	744.4000244
1279.086842	746.7999878
1279.628943	756.5999756
1280.170989	771.2000122
1280.712978	787.0
1281.25491	819.2000122
1281.796787	917.2000122
1282.338607	1090.400024
1282.880371	1357.0
1283.422078	1535.199951
1283.963729	1421.599976
1284.505324	1159.0
1285.046863	962.0
1285.588345	858.0
1286.129772	794.7999878
1286.671142	777.7999878
1287.212455	758.4000244
1287.753713	748.2000122
1288.294914	746.2000122
1288.836059	744.7999878
1289.377147	736.5999756
1289.91818	734.7999878
1290.459156	739.5999756
1291.000076	741.7999878
1291.54094	731.2000122
1292.081747	732.7999878
1292.622499	735.4000244
1293.163194	732.4000244
1293.703833	731.0
1294.244415	732.7999878
1294.784942	730.7999878
1295.325412	728.2000122
1295.865826	732.4000244
1296.406184	729.7999878
1296.946486	726.2000122
1297.486731	726.4000244
1298.026921	728.0
1298.567054	728.7999878
1299.107131	730.7999878
1299.647152	729.0
1300.187116	730.4000244
1300.727025	728.5999756
1301.266877	727.0
1301.806673	728.2000122
1302.346413	727.7999878
1302.886097	730.0
1303.425725	727.7999878
1303.965297	723.2000122
1304.504812	726.2000122
1305.044272	723.7999878
1305.583675	727.0
1306.123022	726.0
1306.662313	720.4000244
1307.201548	724.5999756
1307.740727	726.7999878
1308.279849	721.5999756
1308.818916	723.2000122
1309.357926	725.4000244
1309.896881	723.7999878
1310.435779	720.7999878
1310.974621	727.0
1311.513407	722.5999756
1312.052137	726.0
1312.590811	724.4000244
1313.129429	722.7999878
1313.667991	723.7999878
1314.206497	723.7999878
1314.744946	724.2000122
1315.28334	726.5999756
1315.821678	720.4000244
1316.359959	723.0
1316.898184	720.2000122
1317.436354	723.4000244
1317.974467	721.0
1318.512525	723.5999756
1319.050526	721.2000122
1319.588471	724.2000122
1320.12636	723.0
1320.664194	722.7999878
1321.201971	725.0
1321.739692	720.4000244
1322.277357	723.0
1322.814967	724.7999878
1323.35252	721.5999756
1323.890017	727.4000244
1324.427458	724.2000122
1324.964843	727.0
1325.502173	726.0
1326.039446	723.7999878
1326.576663	718.5999756
1327.113824	722.0
1327.65093	720.4000244
1328.187979	726.5999756
1328.724972	723.2000122
1329.26191	720.5999756
1329.798791	722.7999878
1330.335617	723.2000122
1330.872386	728.2000122
1331.4091	722.5999756
1331.945758	722.5999756
1332.48236	720.0
1333.018905	722.7999878
1333.555395	722.7999878
1334.091829	726.5999756
1334.628207	723.5999756
1335.164529	721.2000122
1335.700796	723.7999878
1336.237006	723.4000244
1336.77316	720.4000244
1337.309259	720.7999878
1337.845301	725.0
1338.381288	725.4000244
1338.917219	719.5999756
1339.453094	726.7999878
1339.988913	726.5999756
1340.524676	726.0
1341.060383	722.2000122
1341.596034	726.0
1342.13163	725.4000244
1342.66717	723.7999878
1343.202653	719.0
1343.738081	721.4000244
1344.273453	724.5999756
1344.80877	721.0
1345.34403	724.0
1345.879235	724.7999878
1346.414383	720.4000244
1346.949476	721.0
1347.484513	728.2000122
1348.019494	724.5999756
1348.55442	723.5999756
1349.089289	723.4000244
1349.624103	718.2000122
1350.158861	722.4000244
1350.693563	723.2000122
1351.228209	727.0
1351.7628	727.5999756
1352.297334	725.0
1352.831813	721.2000122
1353.366236	724.7999878
1353.900604	729.2000122
1354.434915	721.5999756
1354.969171	721.2000122
1355.503371	725.5999756
1356.037515	726.0
1356.571604	722.0
1357.105636	727.7999878
1357.639613	725.4000244
1358.173535	724.0
1358.7074	727.2000122
1359.24121	729.7999878
1359.774964	725.7999878
1360.308662	723.7999878
1360.842304	721.2000122
1361.375891	724.5999756
1361.909422	726.7999878
1362.442897	725.4000244
1362.976317	725.0
1363.50968	731.0
1364.042989	732.4000244
1364.576241	726.5999756
1365.109438	735.2000122
1365.642579	727.2000122
1366.175664	729.2000122
1366.708693	727.5999756
1367.241667	729.5999756
1367.774585	731.2000122
1368.307448	728.5999756
1368.840255	733.5999756
1369.373006	736.2000122
1369.905701	762.0
1370.438341	758.2000122
1370.970925	741.4000244
1371.503454	732.5999756
1372.035926	728.5999756
1372.568344	732.2000122
1373.100705	731.2000122
1373.633011	730.5999756
1374.165261	728.4000244
1374.697456	726.7999878
1375.229595	730.4000244
1375.761678	728.7999878
1376.293705	730.7999878
1376.825677	735.5999756
1377.357594	733.2000122
1377.889455	740.7999878
1378.42126	735.7999878
1378.953009	735.0
1379.484703	738.0
1380.016342	740.5999756
1380.547924	742.7999878
1381.079452	748.2000122
1381.610923	746.4000244
1382.142339	754.2000122
1382.673699	757.2000122
1383.205004	761.2000122
1383.736253	774.4000244
1384.267447	784.5999756
1384.798585	807.4000244
1385.329668	846.4000244
1385.860695	914.4000244
1386.391666	1066.800049
1386.922582	1438.800049
1387.453442	2107.199951
1387.984247	2406.600098
1388.514996	1825.800049
1389.04569	1222.800049
1389.576328	966.7999878
1390.10691	860.4000244
1390.637437	816.2000122
1391.167909	785.2000122
1391.698325	772.0
1392.228685	758.4000244
1392.75899	753.7999878
1393.28924	755.4000244
1393.819434	749.7999878
1394.349572	748.0
1394.879655	744.4000244
1395.409683	740.4000244
1395.939655	741.4000244
1396.469571	743.5999756
1396.999432	744.0
1397.529237	734.7999878
1398.058987	736.2000122
1398.588682	740.2000122
1399.118321	736.7999878
1399.647905	734.0
1400.177433	735.0
1400.706906	736.2000122
1401.236323	740.5999756
1401.765685	738.2000122
1402.294991	733.2000122
1402.824242	744.0
1403.353437	735.2000122
1403.882577	736.0
1404.411662	738.5999756
1404.940691	737.7999878
1405.469665	741.0
1405.998583	750.4000244
1406.527446	747.2000122
1407.056253	753.4000244
1407.585005	763.7999878
1408.113702	783.4000244
1408.642343	784.5999756
1409.170929	806.4000244
1409.69946	799.2000122
1410.227935	792.7999878
1410.756354	772.5999756
1411.284719	757.2000122
1411.813028	746.2000122
1412.341281	743.2000122
1412.869479	739.7999878
1413.397622	738.4000244
1413.92571	732.4000244
1414.453742	729.7999878
1414.981718	728.2000122
1415.50964	734.5999756
1416.037506	729.4000244
1416.565316	725.2000122
1417.093072	725.4000244
1417.620772	726.2000122
1418.148416	726.4000244
1418.676005	729.5999756
1419.203539	723.4000244
1419.731018	726.7999878
1420.258441	725.5999756
1420.785809	725.5999756
1421.313122	731.2000122
1421.840379	721.5999756
1422.367582	725.4000244
1422.894728	725.2000122
1423.42182	726.7999878
1423.948856	727.2000122
1424.475837	724.4000244
1425.002762	723.0
1425.529633	725.4000244
1426.056448	723.4000244
1426.583207	724.5999756
1427.109912	724.4000244
1427.636561	720.7999878
1428.163155	724.7999878
1428.689694	719.4000244
1429.216177	721.5999756
1429.742605	721.7999878
1430.268978	721.5999756
1430.795296	723.2000122
1431.321558	724.2000122
1431.847765	720.4000244
1432.373917	723.0
1432.900014	716.2000122
1433.426056	720.5999756
1433.952042	719.2000122
1434.477973	721.5999756
1435.003849	716.0
1435.529669	717.4000244
1436.055435	718.5999756
1436.581145	720.0
1437.1068	721.0
1437.632399	722.5999756
1438.157944	717.5999756
1438.683433	720.0
1439.208868	722.0
1439.734247	717.7999878
1440.25957	718.5999756
1440.784839	721.4000244
1441.310053	718.7999878
1441.835211	720.7999878
1442.360314	721.2000122
1442.885362	720.5999756
1443.410355	720.7999878
1443.935292	717.7999878
1444.460175	721.4000244
1444.985002	724.4000244
1445.509774	719.4000244
1446.034491	718.4000244
1446.559153	718.0
1447.08376	720.2000122
1447.608312	716.4000244
1448.132808	719.5999756
1448.65725	717.4000244
1449.181636	716.5999756
1449.705967	717.5999756
1450.230243	715.7999878
1450.754464	718.4000244
1451.27863	716.0
1451.802741	713.7999878
1452.326797	720.0
1452.850797	717.5999756
1453.374743	721.2000122
1453.898633	723.4000244
1454.422468	716.4000244
1454.946249	715.7999878
1455.469974	716.2000122
1455.993644	718.7999878
1456.517259	717.7999878
1457.040819	717.2000122
1457.564324	716.0
1458.087773	718.4000244
1458.611168	720.4000244
1459.134508	719.4000244
1459.657793	718.7999878
1460.181022	717.2000122
1460.704197	714.0
1461.227316	718.0
1461.750381	716.5999756
1462.27339	720.2000122
1462.796345	718.5999756
1463.319244	715.2000122
1463.842089	715.2000122
1464.364878	715.2000122
1464.887613	720.5999756
1465.410292	712.7999878
1465.932916	718.0
1466.455486	718.7999878
1466.978	718.0
1467.50046	716.0
1468.022864	716.5999756
1468.545214	717.2000122
1469.067508	719.4000244
1469.589748	719.5999756
1470.111932	717.0
1470.634062	717.7999878
1471.156136	716.2000122
1471.678156	716.2000122
1472.20012	714.5999756
1472.72203	719.2000122
1473.243885	717.0
1473.765685	715.2000122
1474.28743	717.4000244
1474.80912	713.7999878
1475.330755	714.0
1475.852335	714.2000122
1476.37386	716.4000244
1476.89533	716.4000244
1477.416745	717.0
1477.938106	717.2000122
1478.459411	714.2000122
1478.980662	713.7999878
1479.501857	718.4000244
1480.022998	714.5999756
1480.544084	717.4000244
1481.065115	712.4000244
1481.586091	718.2000122
1482.107012	718.2000122
1482.627878	720.7999878
1483.14869	714.5999756
1483.669446	714.2000122
1484.190148	716.4000244
1484.710794	715.2000122
1485.231386	713.7999878
1485.751923	715.0
1486.272406	715.0
1486.792833	719.0
1487.313205	717.5999756
1487.833523	717.2000122
1488.353786	720.4000244
1488.873994	721.4000244
1489.394147	717.4000244
1489.914245	719.0
1490.434288	714.7999878
1490.954277	716.2000122
1491.474211	716.5999756
1491.99409	721.0
1492.513914	718.4000244
1493.033683	717.5999756
1493.553398	714.0
1494.073057	717.7999878
1494.592662	717.0
1495.112212	715.0
1495.631708	712.7999878
1496.151148	716.4000244
1496.670534	713.0
1497.189865	715.2000122
1497.709141	711.5999756
1498.228362	718.5999756
1498.747529	712.5999756
1499.266641	714.5999756
1499.785698	721.5999756
1500.3047	716.4000244
1500.823648	717.4000244
1501.34254	711.2000122
1501.861379	716.5999756
1502.380162	716.2000122
1502.89889	715.0
1503.417564	717.2000122
1503.936183	715.7999878
1504.454748	713.0
1504.973257	717.7999878
1505.491712	713.0
1506.010112	714.7999878
1506.528458	714.4000244
1507.046748	714.7999878
1507.564984	712.7999878
1508.083166	716.7999878
1508.601292	717.2000122
1509.119364	716.7999878
1509.637381	714.7999878
1510.155344	716.2000122
1510.673252	722.0
1511.191105	714.2000122
1511.708903	716.0
1512.226647	718.5999756
1512.744336	714.7999878
1513.261971	716.4000244
1513.77955	717.0
1514.297076	716.5999756
1514.814546	713.7999878
1515.331962	711.4000244
1515.849323	714.4000244
1516.366629	713.4000244
1516.883881	715.2000122
1517.401078	716.2000122
1517.918221	714.4000244
1518.435309	717.7999878
1518.952342	719.5999756
1519.469321	714.0
1519.986245	715.4000244
1520.503114	716.0
1521.019929	718.0
1521.536689	714.7999878
1522.053395	715.5999756
1522.570046	718.7999878
1523.086642	715.4000244
1523.603184	718.0
1524.119671	718.4000244
1524.636103	714.5999756
1525.152481	714.4000244
1525.668805	713.0
1526.185073	714.7999878
1526.701288	711.7999878
1527.217447	715.7999878
1527.733552	716.4000244
1528.249603	715.4000244
1528.765599	718.0
1529.28154	714.4000244
1529.797427	715.5999756
1530.313259	718.2000122
1530.829037	718.0
1531.34476	713.4000244
1531.860429	716.0
1532.376043	719.4000244
1532.891602	717.7999878
1533.407107	714.2000122
1533.922558	714.2000122
1534.437954	717.7999878
1534.953295	715.0
1535.468582	712.7999878
1535.983815	713.5999756
1536.498993	715.0
1537.014116	715.2000122
1537.529185	715.5999756
1538.044199	715.5999756
1538.559159	717.2000122
1539.074064	716.0
1539.588915	718.7999878
1540.103712	715.5999756
1540.618454	714.7999878
1541.133141	716.5999756
1541.647774	711.5999756
1542.162353	717.5999756
1542.676877	719.0
1543.191346	714.7999878
1543.705761	712.7999878
1544.220122	714.2000122
1544.734428	713.5999756
1545.24868	716.5999756
1545.762877	717.7999878
1546.27702	719.0
1546.791109	715.5999756
1547.305143	717.4000244
1547.819122	718.2000122
1548.333047	715.2000122
1548.846918	709.7999878
1549.360734	711.4000244
1549.874496	720.5999756
1550.388204	714.4000244
1550.901857	718.5999756
1551.415455	714.0
1551.929	715.7999878
1552.442489	717.7999878
1552.955925	716.5999756
1553.469306	718.0
1553.982632	716.2000122
1554.495905	714.7999878
1555.009123	717.7999878
1555.522286	714.7999878
1556.035395	716.7999878
1556.54845	710.5999756
1557.06145	716.0
1557.574396	722.2000122
1558.087288	711.4000244
1558.600125	715.0
1559.112908	717.5999756
1559.625637	713.0
1560.138311	716.0
1560.650931	715.2000122
1561.163497	716.4000244
1561.676008	717.0
1562.188465	716.5999756
1562.700867	714.5999756
1563.213216	715.7999878
1563.725509	713.0
1564.237749	713.5999756
1564.749934	719.0
1565.262065	713.5999756
1565.774142	716.4000244
1566.286164	717.0
1566.798132	715.7999878
1567.310046	719.2000122
1567.821906	715.0
1568.333711	716.2000122
1568.845462	715.4000244
1569.357158	716.0
1569.868801	715.2000122
1570.380389	719.0
1570.891922	717.7999878
1571.403402	712.2000122
1571.914827	718.4000244
1572.426198	716.7999878
1572.937515	713.7999878
1573.448777	714.2000122
1573.959985	714.2000122
1574.471139	715.5999756
1574.982239	713.2000122
1575.493285	716.7999878
1576.004276	718.7999878
1576.515213	716.5999756
1577.026096	713.4000244
1577.536924	717.0
1578.047698	716.2000122
1578.558419	714.4000244
1579.069084	713.0
1579.579696	714.4000244
1580.090254	712.4000244
1580.600757	716.7999878
1581.111206	721.0
1581.621601	712.7999878
1582.131941	720.0
1582.642228	712.5999756
1583.15246	717.2000122
1583.662638	720.2000122
1584.172762	715.5999756
1584.682832	712.2000122
1585.192847	715.2000122
1585.702809	714.2000122
1586.212716	717.4000244
1586.722569	716.7999878
1587.232368	712.4000244
1587.742113	717.0
1588.251803	718.4000244
1588.76144	716.4000244
1589.271022	714.7999878
1589.78055	715.4000244
1590.290024	713.0
1590.799444	713.7999878
1591.30881	716.4000244
1591.818121	715.2000122
1592.327379	715.5999756
