1042.414189	688.4000244
1042.980685	687.4000244
1043.547124	686.4000244
1044.113505	686.5999756
1044.679828	688.5999756
1045.246093	684.7999878
1045.8123	685.5999756
1046.378449	684.5999756
1046.94454	685.7999878
1047.510573	684.5999756
1048.076548	682.2000122
1048.642465	686.7999878
1049.208325	684.5999756
1049.774126	679.0
1050.339869	679.5999756
1050.905555	683.5999756
1051.471183	682.4000244
1052.036752	678.0
1052.602264	683.2000122
1053.167718	685.7999878
1053.733114	680.5999756
1054.298452	682.5999756
1054.863733	678.4000244
1055.428955	677.4000244
1055.994119	679.7999878
1056.559226	676.4000244
1057.124275	678.7999878
1057.689266	683.4000244
1058.254199	679.4000244
1058.819074	679.5999756
1059.383891	677.0
1059.94865	678.7999878
1060.513352	676.0
1061.077996	675.2000122
1061.642582	679.2000122
1062.20711	678.7999878
1062.77158	678.7999878
1063.335992	677.7999878
1063.900347	674.5999756
1064.464643	675.5999756
1065.028882	673.5999756
1065.593063	678.7999878
1066.157187	676.0
1066.721252	678.2000122
1067.28526	678.4000244
1067.84921	678.0
1068.413102	675.2000122
1068.976936	675.7999878
1069.540713	676.0
1070.104431	684.2000122
1070.668092	678.0
1071.231696	677.4000244
1071.795241	676.7999878
1072.358729	678.7999878
1072.922159	678.4000244
1073.485531	678.2000122
1074.048845	677.0
1074.612102	678.5999756
1075.175301	675.7999878
1075.738442	680.2000122
1076.301525	677.2000122
1076.864551	678.4000244
1077.427519	677.2000122
1077.990429	677.0
1078.553281	679.5999756
1079.116076	678.5999756
1079.678813	676.7999878
1080.241492	679.4000244
1080.804114	679.4000244
1081.366678	677.0
1081.929184	679.0
1082.491633	679.0
1083.054024	676.4000244
1083.616357	679.0
1084.178632	676.0
1084.74085	677.5999756
1085.30301	679.0
1085.865113	680.0
1086.427158	681.4000244
1086.989145	679.2000122
1087.551074	680.0
1088.112946	679.7999878
1089.236517	686.0
1089.798216	678.4000244
1090.359857	684.2000122
1090.92144	682.4000244
1091.482966	681.7999878
1092.044435	678.7999878
1092.605845	680.2000122
1093.167199	682.2000122
1093.728494	681.0
1094.289732	681.2000122
1094.850912	681.4000244
1095.412035	690.7999878
1095.9731	679.7999878
1096.534107	679.4000244
1097.095057	681.4000244
1097.65595	677.0
1098.216784	678.0
1098.777561	677.2000122
1099.338281	679.7999878
1099.898943	679.4000244
1100.459547	676.7999878
1101.020094	678.7999878
1101.580584	676.4000244
1102.141015	676.7999878
1102.701389	675.5999756
1103.261706	674.2000122
1103.821965	675.7999878
1104.382167	677.4000244
1104.942311	673.5999756
1105.502397	675.5999756
1106.062426	675.0
1106.622398	678.2000122
1107.182312	675.2000122
1107.742168	672.5999756
1108.301967	674.4000244
1108.861708	675.7999878
1109.421392	677.0
1109.981019	674.5999756
1110.540587	677.4000244
1111.100099	673.5999756
1111.659553	674.2000122
1112.218949	676.2000122
1112.778288	675.7999878
1113.33757	676.0
1113.896794	671.7999878
1114.45596	675.0
1115.015069	675.5999756
1115.574121	677.7999878
1116.133115	674.7999878
1116.692052	674.4000244
1117.250931	674.2000122
1117.809753	674.4000244
1118.368517	676.7999878
1118.927224	674.5999756
1119.485873	671.7999878
1120.044465	674.2000122
1120.603	672.7999878
1121.161477	673.0
1121.719897	677.4000244
1122.278259	677.4000244
1122.836564	675.7999878
1123.394812	672.0
1123.953002	672.4000244
1124.511135	675.0
1125.06921	674.0
1125.627228	673.5999756
1126.185189	678.2000122
1126.743092	675.4000244
1127.300938	675.2000122
1127.858726	675.5999756
1128.416457	676.4000244
1128.974131	671.7999878
1129.531748	675.2000122
1130.089307	677.4000244
1130.646808	677.4000244
1131.204252	673.7999878
1131.761639	673.7999878
1132.318969	673.5999756
1132.876241	674.4000244
1133.433456	677.5999756
1133.990614	675.7999878
1134.547714	677.5999756
1135.104757	676.5999756
1135.661743	673.5999756
1136.218671	672.4000244
1136.775542	673.0
1137.332356	675.4000244
1137.889112	673.2000122
1138.445811	673.7999878
1139.002453	673.0
1139.559037	674.2000122
1140.115565	676.0
1140.672035	674.0
1141.228447	675.4000244
1141.784803	676.5999756
1142.341101	673.4000244
1142.897342	676.7999878
1143.453525	673.5999756
1144.009651	676.2000122
1144.565721	679.0
1145.121732	673.7999878
1145.677687	677.4000244
1146.233584	673.2000122
1146.789424	673.4000244
1147.345207	675.2000122
1147.900933	675.4000244
1148.456601	675.5999756
1149.012212	675.0
1149.567766	676.4000244
1150.123263	675.4000244
1150.678702	676.5999756
1151.234085	675.0
1151.78941	674.5999756
1152.344678	677.4000244
1152.899888	672.5999756
1153.455042	676.0
1154.010138	674.7999878
1154.565177	673.7999878
1155.120159	675.0
1155.675084	675.5999756
1156.229951	673.7999878
1156.784762	676.2000122
1157.339515	677.5999756
1157.894211	673.5999756
1158.44885	674.5999756
1159.003432	675.2000122
1159.557956	676.0
1160.112424	676.7999878
1160.666834	674.4000244
1161.221187	676.2000122
1161.775483	674.7999878
1162.329722	675.4000244
1162.883904	678.2000122
1163.438029	675.7999878
1163.992096	675.7999878
1164.546107	675.4000244
1165.10006	673.4000244
1165.653956	676.2000122
1166.207795	675.0
1166.761577	674.7999878
1167.315302	675.0
1167.86897	676.5999756
1168.422581	675.7999878
1168.976134	675.4000244
1169.529631	674.5999756
1170.08307	673.7999878
1170.636453	674.5999756
1171.189778	671.2000122
1171.743046	676.5999756
1172.296257	675.4000244
1172.849412	672.5999756
1173.402509	674.2000122
1173.955549	674.5999756
1174.508532	674.4000244
1175.061458	672.5999756
1175.614327	673.7999878
1176.167138	677.0
1176.719893	676.0
1177.272591	674.0
1177.825232	676.5999756
1178.377816	677.7999878
1178.930342	676.7999878
1179.482812	675.0
1180.035225	677.2000122
1180.587581	675.0
1181.139879	673.7999878
1181.692121	672.0
1182.244306	674.0
1182.796434	673.4000244
1183.348504	674.5999756
1183.900518	670.4000244
1184.452475	678.5999756
1185.004375	675.2000122
1185.556218	676.2000122
1186.108004	673.2000122
1186.659733	673.4000244
1187.211405	676.0
1187.76302	674.5999756
1188.314578	675.5999756
1188.866079	677.4000244
1189.417523	674.0
1189.96891	678.0
1190.520241	674.0
1191.071514	675.4000244
1191.622731	673.4000244
1192.17389	675.4000244
1192.724993	674.0
1193.276039	688.0
1193.827027	673.4000244
1194.377959	675.0
1194.928834	674.7999878
1195.479653	674.5999756
1196.030414	673.4000244
1196.581118	675.2000122
1197.131766	673.4000244
1197.682356	675.5999756
1198.23289	676.4000244
1198.783367	676.7999878
1199.333786	675.0
1199.88415	675.7999878
1200.434456	674.4000244
1200.984705	675.2000122
1201.534898	674.7999878
1202.085033	673.4000244
1202.635112	677.0
1203.185134	674.0
1203.735099	679.4000244
1204.285007	674.7999878
1204.834859	674.2000122
1205.384653	673.7999878
1205.934391	673.2000122
1206.484072	676.0
1207.033696	676.4000244
1207.583263	671.7999878
1208.132774	672.5999756
1208.682228	676.4000244
1209.231624	676.2000122
1209.780965	676.2000122
1210.330248	678.4000244
1210.879474	676.5999756
1211.428644	675.4000244
1211.977757	674.4000244
1212.526813	676.2000122
1213.075813	678.5999756
1213.624755	675.2000122
1214.173641	675.5999756
1214.72247	674.7999878
1215.271242	673.2000122
1215.819958	676.0
1216.368617	673.0
1216.917219	675.2000122
1217.465764	676.0
1218.014253	674.2000122
1218.562685	673.7999878
1219.11106	672.4000244
1219.659378	676.0
1220.20764	674.0
1220.755845	676.7999878
1221.303993	675.5999756
1221.852085	674.7999878
1222.400119	675.7999878
1222.948097	675.0
1223.496019	676.4000244
1224.043883	677.7999878
1224.591691	676.0
1225.139443	671.7999878
1225.687137	679.4000244
1226.234775	676.0
1226.782357	677.4000244
1227.329881	675.7999878
1227.877349	672.2000122
1228.42476	674.7999878
1228.972115	676.4000244
1229.519413	675.5999756
1230.066654	675.5999756
1230.613839	677.0
1231.160967	678.0
1231.708038	678.0
1232.255053	675.7999878
1232.802011	674.5999756
1233.348912	680.0
1233.895757	676.4000244
1234.442545	678.5999756
1234.989277	678.0
1235.535951	673.5999756
1236.08257	673.0
1236.629131	676.7999878
1237.175636	678.4000244
1237.722085	677.7999878
1238.268477	678.4000244
1238.814812	678.4000244
1239.361091	677.7999878
1239.907313	677.2000122
1240.453478	676.2000122
1240.999587	682.5999756
1241.54564	674.5999756
1242.091636	674.2000122
1242.637575	680.7999878
1243.183457	675.5999756
1243.729284	674.5999756
1244.275053	679.2000122
1244.820766	676.0
1245.366423	678.2000122
1245.912022	676.7999878
1246.457566	676.7999878
1247.003053	678.0
1247.548483	677.5999756
1248.093857	677.7999878
1248.639174	679.0
1249.184435	680.0
1249.729639	680.7999878
1250.274787	680.7999878
1250.819878	682.0
1251.364912	679.5999756
1251.909891	677.4000244
1252.454812	678.5999756
1252.999677	681.7999878
1253.544486	680.0
1254.089238	677.5999756
1254.633934	678.7999878
1255.178573	681.5999756
1255.723156	678.2000122
1256.267682	680.4000244
1256.812152	680.7999878
1257.356565	677.5999756
1257.900922	679.2000122
1258.445223	682.7999878
1258.989467	682.7999878
1259.533654	683.4000244
1260.077785	699.2000122
1260.62186	685.7999878
1261.165878	684.7999878
1261.70984	689.5999756
1262.253745	692.4000244
1262.797594	698.2000122
1263.341386	699.4000244
1263.885123	705.4000244
1264.428802	700.5999756
1264.972425	698.7999878
1265.515992	695.4000244
1266.059503	687.5999756
1266.602957	686.5999756
1267.146354	685.2000122
1267.689696	687.0
1268.23298	686.2000122
1268.776209	680.0
1269.319381	683.0
1269.862497	681.4000244
1270.405556	682.7999878
1270.948559	684.5999756
1271.491506	680.4000244
1272.034396	681.2000122
1272.57723	682.5999756
1273.120007	682.7999878
1273.662728	686.5999756
1274.205393	686.0
1274.748002	683.2000122
1275.290554	684.7999878
1275.83305	682.4000244
1276.375489	686.2000122
1276.917872	684.0
1277.460199	686.7999878
1278.00247	685.7999878
1278.544684	687.2000122
1279.086842	689.4000244
1279.628943	691.2000122
1280.170989	692.2000122
1280.712978	702.5999756
1281.25491	714.4000244
1281.796787	740.7999878
1282.338607	795.7999878
1282.880371	884.4000244
1283.422078	1023.0
1283.963729	1099.199951
1284.505324	1035.400024
1285.046863	905.7999878
1285.588345	803.5999756
1286.129772	744.5999756
1286.671142	715.4000244
1287.212455	699.4000244
1287.753713	695.2000122
1288.294914	698.0
1288.836059	692.7999878
1289.377147	689.4000244
1289.91818	687.7999878
1290.459156	687.7999878
1291.000076	687.4000244
1291.54094	683.2000122
1292.081747	684.5999756
1292.622499	683.4000244
1293.163194	682.0
1293.703833	682.4000244
1294.244415	685.5999756
1294.784942	684.0
1295.325412	677.4000244
1295.865826	682.2000122
1296.406184	682.4000244
1296.946486	682.2000122
1297.486731	678.7999878
1298.026921	682.7999878
1298.567054	679.0
1299.107131	681.7999878
1299.647152	678.7999878
1300.187116	683.0
1300.727025	677.5999756
1301.266877	679.5999756
1301.806673	681.4000244
1302.346413	678.5999756
1302.886097	677.4000244
1303.425725	680.5999756
1303.965297	681.2000122
1304.504812	678.4000244
1305.044272	682.2000122
1305.583675	677.7999878
1306.123022	679.4000244
1306.662313	682.5999756
1307.201548	679.4000244
1307.740727	680.5999756
1308.279849	680.7999878
1308.818916	678.7999878
1309.357926	678.4000244
1309.896881	677.2000122
1310.435779	677.5999756
1310.974621	678.4000244
1311.513407	677.4000244
1312.052137	677.4000244
1312.590811	677.7999878
1313.129429	679.5999756
1313.667991	682.5999756
1314.206497	679.2000122
1314.744946	677.4000244
1315.28334	677.0
1315.821678	676.5999756
1316.359959	677.5999756
1316.898184	679.4000244
1317.436354	680.2000122
1317.974467	676.4000244
1318.512525	676.0
1319.050526	678.0
1319.588471	677.7999878
1320.12636	675.5999756
1320.664194	679.4000244
1321.201971	678.2000122
1321.739692	675.7999878
1322.277357	677.5999756
1322.814967	679.2000122
1323.35252	677.4000244
1323.890017	686.5999756
1324.427458	679.0
1324.964843	684.0
1325.502173	678.5999756
1326.039446	679.4000244
1326.576663	678.5999756
1327.113824	675.7999878
1327.65093	676.5999756
1328.187979	679.5999756
1328.724972	679.2000122
1329.26191	677.7999878
1329.798791	679.0
1330.335617	679.5999756
1330.872386	677.7999878
1331.4091	678.2000122
1331.945758	678.7999878
1332.48236	678.4000244
1333.018905	679.5999756
1333.555395	676.5999756
1334.091829	679.4000244
1334.628207	677.7999878
1335.164529	677.7999878
1335.700796	678.5999756
1336.237006	677.0
1336.77316	678.7999878
1337.309259	680.0
1337.845301	676.4000244
1338.381288	680.2000122
1338.917219	676.5999756
1339.453094	681.2000122
1339.988913	677.5999756
1340.524676	680.2000122
1341.060383	678.7999878
1341.596034	677.7999878
1342.13163	677.2000122
1342.66717	679.4000244
1343.202653	677.0
1343.738081	679.4000244
1344.273453	677.0
1344.80877	677.7999878
1345.34403	678.2000122
1345.879235	681.2000122
1346.414383	680.0
1346.949476	680.2000122
1347.484513	678.7999878
1348.019494	674.4000244
1348.55442	678.2000122
1349.089289	677.7999878
1349.624103	674.7999878
1350.158861	680.0
1350.693563	681.5999756
1351.228209	677.2000122
1351.7628	679.7999878
1352.297334	679.7999878
1352.831813	676.0
1353.366236	680.2000122
1353.900604	675.2000122
1354.434915	676.7999878
1354.969171	679.4000244
1355.503371	678.5999756
1356.037515	679.5999756
1356.571604	676.5999756
1357.105636	678.5999756
1357.639613	678.0
1358.173535	677.5999756
1358.7074	678.0
1359.24121	679.0
1359.774964	678.0
1360.308662	678.2000122
1360.842304	682.4000244
1361.375891	678.0
1361.909422	681.5999756
1362.442897	678.7999878
1362.976317	680.4000244
1363.50968	678.5999756
1364.042989	678.5999756
1364.576241	679.0
1365.109438	681.4000244
1365.642579	683.5999756
1366.175664	680.7999878
1366.708693	683.2000122
1367.241667	680.0
1367.774585	679.7999878
1368.307448	682.0
1368.840255	684.4000244
1369.373006	684.0
1369.905701	692.7999878
1370.438341	693.4000244
1370.970925	688.4000244
1371.503454	681.0
1372.035926	682.0
1372.568344	683.4000244
1373.100705	685.0
1373.633011	678.4000244
1374.165261	681.7999878
1374.697456	686.0
1375.229595	683.7999878
1375.761678	684.7999878
1376.293705	683.7999878
1376.825677	687.7999878
1377.357594	682.7999878
1377.889455	682.7999878
1378.42126	685.2000122
1378.953009	685.7999878
1379.484703	685.5999756
1380.016342	685.2000122
1380.547924	688.7999878
1381.079452	688.4000244
1381.610923	693.4000244
1382.142339	692.5999756
1382.673699	690.4000244
1383.205004	694.7999878
1383.736253	700.5999756
1384.267447	703.5999756
1384.798585	711.0
1385.329668	724.7999878
1385.860695	755.4000244
1386.391666	805.2000122
1386.922582	932.0
1387.453442	1217.199951
1387.984247	1529.400024
1388.514996	1460.400024
1389.04569	1074.400024
1389.576328	839.0
1390.10691	764.0
1390.637437	732.7999878
1391.167909	712.4000244
1391.698325	707.5999756
1392.228685	699.7999878
1392.75899	693.7999878
1393.28924	695.5999756
1393.819434	691.4000244
1394.349572	686.4000244
1394.879655	688.7999878
1395.409683	690.2000122
1395.939655	688.0
1396.469571	686.7999878
1396.999432	686.4000244
1397.529237	685.5999756
1398.058987	684.7999878
1398.588682	684.2000122
1399.118321	687.2000122
1399.647905	683.2000122
1400.177433	685.5999756
1400.706906	684.4000244
1401.236323	686.5999756
1401.765685	685.4000244
1402.294991	686.4000244
1402.824242	682.4000244
1403.353437	682.7999878
1403.882577	683.7999878
1404.411662	688.7999878
1404.940691	688.7999878
1405.469665	686.5999756
1405.998583	685.5999756
1406.527446	689.2000122
1407.056253	691.7999878
1407.585005	698.0
1408.113702	701.5999756
1408.642343	707.0
1409.170929	719.4000244
1409.69946	727.0
1410.227935	722.7999878
1410.756354	711.2000122
1411.284719	694.7999878
1411.813028	690.4000244
1412.341281	689.7999878
1412.869479	684.5999756
1413.397622	685.4000244
1413.92571	679.7999878
1414.453742	683.0
1414.981718	681.2000122
1415.50964	690.0
1416.037506	679.5999756
1416.565316	678.0
1417.093072	680.0
1417.620772	679.0
1418.148416	679.0
1418.676005	678.4000244
1419.203539	678.5999756
1419.731018	679.4000244
1420.258441	675.5999756
1420.785809	680.7999878
1421.313122	674.7999878
1421.840379	680.5999756
1422.367582	678.4000244
1422.894728	678.7999878
1423.42182	675.2000122
1423.948856	678.4000244
1424.475837	676.0
1425.002762	678.5999756
1425.529633	677.0
1426.056448	674.4000244
1426.583207	678.2000122
1427.109912	677.2000122
1427.636561	681.5999756
1428.163155	677.0
1428.689694	681.0
1429.216177	675.2000122
1429.742605	679.2000122
1430.268978	677.5999756
1430.795296	679.2000122
1431.321558	677.4000244
1431.847765	677.7999878
1432.373917	676.0
1432.900014	676.4000244
1433.426056	678.7999878
1433.952042	677.0
1434.477973	675.0
1435.003849	677.7999878
1435.529669	674.4000244
1436.055435	676.5999756
1436.581145	675.4000244
1437.1068	674.2000122
1437.632399	677.5999756
1438.157944	675.7999878
1438.683433	677.0
1439.208868	677.7999878
1439.734247	678.0
1440.25957	675.5999756
1440.784839	675.7999878
1441.310053	674.7999878
1441.835211	672.4000244
1442.360314	674.4000244
1442.885362	673.4000244
1443.410355	677.4000244
1443.935292	676.4000244
1444.460175	676.0
1444.985002	677.0
1445.509774	677.2000122
1446.034491	675.4000244
1446.559153	673.5999756
1447.08376	679.0
1447.608312	678.5999756
1448.132808	676.5999756
1448.65725	675.0
1449.181636	674.5999756
1449.705967	673.0
1450.230243	676.0
1450.754464	675.7999878
1451.27863	677.2000122
1451.802741	673.0
1452.326797	675.2000122
1452.850797	676.2000122
1453.374743	673.0
1453.898633	677.2000122
1454.422468	674.0
1454.946249	673.7999878
1455.469974	674.2000122
1455.993644	675.0
1456.517259	674.2000122
1457.040819	672.7999878
1457.564324	674.2000122
1458.087773	674.7999878
1458.611168	676.7999878
1459.134508	672.4000244
1459.657793	673.2000122
1460.181022	675.5999756
1460.704197	673.2000122
1461.227316	673.0
1461.750381	673.2000122
1462.27339	675.4000244
1462.796345	672.7999878
1463.319244	678.0
1463.842089	673.2000122
1464.364878	674.7999878
1464.887613	672.2000122
1465.410292	673.4000244
1465.932916	673.4000244
1466.455486	673.7999878
1466.978	674.5999756
1467.50046	674.7999878
1468.022864	676.5999756
1468.545214	673.2000122
1469.067508	675.5999756
1469.589748	674.0
1470.111932	676.0
1470.634062	676.4000244
1471.156136	675.5999756
1471.678156	671.7999878
1472.20012	675.5999756
1472.72203	673.2000122
1473.243885	673.0
1473.765685	673.5999756
1474.28743	675.5999756
1474.80912	675.5999756
1475.330755	674.2000122
1475.852335	675.0
1476.37386	674.0
1476.89533	673.5999756
1477.416745	674.2000122
1477.938106	674.5999756
1478.459411	671.2000122
1478.980662	674.5999756
1479.501857	670.4000244
1480.022998	673.7999878
1480.544084	673.4000244
1481.065115	675.2000122
1481.586091	671.7999878
1482.107012	676.2000122
1482.627878	674.0
1483.14869	675.7999878
1483.669446	673.2000122
1484.190148	673.2000122
1484.710794	673.0
1485.231386	675.2000122
1485.751923	673.0
1486.272406	674.2000122
1486.792833	672.7999878
1487.313205	672.4000244
1487.833523	672.2000122
1488.353786	673.4000244
1488.873994	673.7999878
1489.394147	672.2000122
1489.914245	674.5999756
1490.434288	675.0
1490.954277	672.5999756
1491.474211	673.0
1491.99409	674.5999756
1492.513914	671.5999756
1493.033683	673.5999756
1493.553398	676.0
1494.073057	674.2000122
1494.592662	672.7999878
1495.112212	673.2000122
1495.631708	672.0
1496.151148	672.2000122
1496.670534	674.5999756
1497.189865	671.7999878
1497.709141	674.4000244
1498.228362	674.5999756
1498.747529	675.4000244
1499.266641	673.7999878
1499.785698	680.2000122
1500.3047	674.0
1500.823648	672.7999878
1501.34254	672.2000122
1501.861379	675.2000122
1502.380162	675.7999878
1502.89889	671.0
1503.417564	672.7999878
1503.936183	677.0
1504.454748	673.0
1504.973257	672.5999756
1505.491712	673.4000244
1506.010112	673.2000122
1506.528458	673.2000122
1507.046748	673.2000122
1507.564984	671.4000244
1508.083166	673.2000122
1508.601292	673.4000244
1509.119364	673.7999878
1509.637381	673.0
1510.155344	675.2000122
1510.673252	675.7999878
1511.191105	671.5999756
1511.708903	672.4000244
1512.226647	675.4000244
1512.744336	671.2000122
1513.261971	672.7999878
1513.77955	670.2000122
1514.297076	674.2000122
1514.814546	673.7999878
1515.331962	674.5999756
1515.849323	674.7999878
1516.366629	673.0
1516.883881	675.7999878
1517.401078	674.7999878
1517.918221	673.7999878
1518.435309	674.2000122
1518.952342	672.4000244
1519.469321	671.5999756
1519.986245	675.0
1520.503114	673.7999878
1521.019929	673.4000244
1521.536689	676.4000244
1522.053395	673.4000244
1522.570046	672.2000122
1523.086642	678.0
1523.603184	672.2000122
1524.119671	673.4000244
1524.636103	673.7999878
1525.152481	673.0
1525.668805	672.5999756
1526.185073	672.4000244
1526.701288	670.2000122
1527.217447	675.4000244
1527.733552	672.5999756
1528.249603	672.7999878
1528.765599	672.5999756
1529.28154	671.7999878
1529.797427	674.0
1530.313259	672.5999756
1530.829037	675.0
1531.34476	672.2000122
1531.860429	673.5999756
1532.376043	672.5999756
1532.891602	670.4000244
1533.407107	672.2000122
1533.922558	672.5999756
1534.437954	674.5999756
1534.953295	671.0
1535.468582	671.4000244
1535.983815	672.5999756
1536.498993	671.4000244
1537.014116	673.5999756
1537.529185	673.2000122
1538.044199	673.2000122
1538.559159	670.7999878
1539.074064	674.0
1539.588915	674.4000244
1540.103712	674.0
1540.618454	671.5999756
1541.133141	672.4000244
1541.647774	671.0
1542.162353	672.4000244
1542.676877	674.2000122
1543.191346	671.5999756
1543.705761	669.5999756
1544.220122	674.7999878
1544.734428	673.7999878
1545.24868	673.5999756
1545.762877	673.7999878
1546.27702	674.4000244
1546.791109	674.0
1547.305143	670.5999756
1547.819122	673.2000122
1548.333047	675.5999756
1548.846918	671.5999756
1549.360734	674.2000122
1549.874496	671.7999878
1550.388204	671.7999878
1550.901857	673.5999756
1551.415455	674.7999878
1551.929	675.7999878
1552.442489	674.7999878
1552.955925	670.4000244
1553.469306	673.2000122
1553.982632	675.2000122
1554.495905	671.0
1555.009123	672.2000122
1555.522286	672.2000122
1556.035395	671.2000122
1556.54845	673.5999756
1557.06145	670.7999878
1557.574396	671.4000244
1558.087288	672.0
1558.600125	670.4000244
1559.112908	672.7999878
1559.625637	672.0
1560.138311	671.2000122
1560.650931	669.2000122
1561.163497	671.4000244
1561.676008	673.5999756
1562.188465	672.7999878
1562.700867	673.2000122
1563.213216	672.7999878
1563.725509	674.0
1564.237749	672.7999878
1564.749934	671.4000244
1565.262065	670.5999756
1565.774142	670.5999756
1566.286164	675.0
1566.798132	674.5999756
1567.310046	672.2000122
1567.821906	674.0
1568.333711	673.4000244
1568.845462	674.2000122
1569.357158	670.7999878
1569.868801	674.0
1570.380389	678.2000122
1570.891922	673.2000122
1571.403402	670.4000244
1571.914827	672.0
1572.426198	675.5999756
1572.937515	673.5999756
1573.448777	671.2000122
1573.959985	673.5999756
1574.471139	673.0
1574.982239	673.7999878
1575.493285	673.7999878
1576.004276	674.4000244
1576.515213	670.2000122
1577.026096	673.7999878
1577.536924	671.0
1578.047698	674.5999756
1578.558419	674.2000122
1579.069084	673.4000244
1579.579696	674.2000122
1580.090254	671.2000122
1580.600757	671.7999878
1581.111206	676.5999756
1581.621601	670.5999756
1582.131941	671.5999756
1582.642228	672.5999756
1583.15246	674.2000122
1583.662638	672.4000244
1584.172762	674.0
1584.682832	672.4000244
1585.192847	671.2000122
1585.702809	670.0
1586.212716	673.0
1586.722569	673.4000244
1587.232368	672.2000122
1587.742113	669.5999756
1588.251803	670.0
1588.76144	671.2000122
1589.271022	672.0
1589.78055	672.0
1590.290024	672.4000244
1590.799444	672.5999756
1591.30881	672.4000244
1591.818121	673.5999756
1592.327379	667.0
