1042.208489	689.5
1042.775002	685.25
1043.341458	683.75
1043.907855	691.0
1044.474195	688.0
1045.040476	685.5
1045.6067	684.0
1046.172866	682.0
1046.738974	690.0
1047.305024	685.5
1047.871015	682.25
1048.436949	683.25
1049.002825	687.75
1049.568644	684.0
1050.134404	685.25
1050.700106	683.25
1051.26575	682.5
1051.831337	679.0
1052.396865	681.5
1052.962336	683.75
1053.527749	682.75
1054.093103	677.0
1054.6584	685.0
1055.223639	678.75
1055.788821	679.25
1056.353944	679.5
1056.919009	678.5
1057.484017	678.25
1058.048967	679.0
1058.613858	679.75
1059.178692	680.25
1059.743468	683.0
1060.308187	681.25
1060.872847	680.75
1061.43745	679.25
1062.001994	683.0
1062.566481	677.0
1063.13091	677.0
1063.695281	678.75
1064.259595	678.5
1064.82385	680.75
1065.388048	682.75
1065.952188	681.25
1066.51627	679.0
1067.080295	680.5
1067.644261	679.0
1068.20817	680.0
1068.772021	676.5
1069.335814	679.75
1069.899549	688.75
1070.463227	676.0
1071.026847	679.25
1071.590409	678.25
1072.153913	682.75
1072.717359	681.5
1073.280748	676.25
1073.844079	678.25
1074.407352	680.0
1074.970568	679.0
1075.533726	677.75
1076.096826	682.0
1076.659868	685.25
1077.222853	683.75
1077.785779	686.25
1078.348648	684.75
1078.91146	683.25
1079.474214	681.5
1080.036909	686.25
1080.599548	685.5
1081.162128	688.75
1081.724651	688.0
1082.287116	688.25
1082.849524	689.0
1083.411873	692.25
1083.974165	692.5
1084.5364	696.25
1085.098577	691.5
1085.660696	703.5
1086.222757	703.75
1086.784761	713.0
1087.346707	717.5
1087.908595	713.0
1088.470426	710.0
1089.032199	704.0
1089.593914	704.0
1090.155572	708.0
1090.717172	707.5
1091.278715	703.5
1091.8402	705.5
1092.401627	704.75
1092.962997	703.25
1093.524309	705.75
1094.085563	707.75
1094.64676	706.5
1095.207899	715.25
1095.768981	702.5
1096.330005	701.0
1096.890971	708.5
1097.45188	700.0
1098.012732	694.25
1098.573525	698.25
1099.134261	695.0
1099.69494	694.0
1100.255561	696.25
1100.816124	697.75
1101.37663	691.0
1101.937078	694.75
1102.497469	689.75
1103.057802	692.0
1103.618078	685.75
1104.178296	683.75
1104.738456	683.5
1105.298559	682.25
1105.858605	683.75
1106.418593	681.25
1106.978523	682.0
1107.538396	682.25
1108.098212	679.25
1108.657969	681.75
1109.21767	684.25
1109.777313	683.0
1110.336898	678.0
1110.896426	677.25
1111.455896	676.25
1112.015309	685.5
1112.574665	680.5
1113.133963	677.75
1113.693203	677.25
1114.252386	678.75
1114.811512	679.0
1115.37058	681.0
1115.92959	680.75
1116.488544	677.5
1117.047439	681.75
1117.606278	678.5
1118.165058	678.25
1118.723782	677.75
1119.282448	677.0
1119.841056	677.5
1120.399607	677.5
1120.958101	678.25
1121.516537	677.75
1122.074916	679.5
1122.633237	676.75
1123.191501	679.25
1123.749708	679.25
1124.307857	679.75
1124.865949	674.5
1125.423984	675.75
1125.981961	675.75
1126.53988	677.75
1127.097742	677.75
1127.655547	681.75
1128.213295	676.25
1128.770985	679.5
1129.328618	680.0
1129.886193	678.75
1130.443711	681.0
1131.001172	677.75
1131.558575	678.25
1132.115921	674.75
1132.67321	673.5
1133.230441	679.25
1133.787615	675.75
1134.344732	676.0
1134.901792	675.5
1135.458794	674.75
1136.015738	675.5
1136.572626	676.75
1137.129456	675.25
1137.686229	678.25
1138.242944	675.25
1138.799602	676.25
1139.356203	678.75
1139.912747	675.25
1140.469233	672.0
1141.025662	676.5
1141.582034	680.25
1142.138348	674.25
1142.694606	673.25
1143.250806	678.25
1143.806948	675.5
1144.363034	675.5
1144.919062	677.75
1145.475033	674.0
1146.030946	680.5
1146.586803	674.75
1147.142602	675.75
1147.698344	672.5
1148.254029	673.5
1148.809656	675.25
1149.365227	677.75
1149.92074	677.25
1150.476195	675.5
1151.031594	679.5
1151.586936	676.0
1152.14222	677.0
1152.697447	676.0
1153.252617	678.25
1153.807729	676.25
1154.362785	676.0
1154.917783	673.5
1155.472724	675.25
1156.027608	677.75
1156.582435	677.75
1157.137204	679.75
1157.691917	677.25
1158.246572	680.5
1158.80117	678.75
1159.355711	677.25
1159.910195	677.75
1160.464621	675.25
1161.018991	679.25
1161.573303	678.5
1162.127558	683.5
1162.681756	674.0
1163.235897	675.5
1163.789981	679.0
1164.344008	677.25
1164.897978	676.5
1165.45189	676.25
1166.005745	676.75
1166.559544	675.0
1167.113285	675.0
1167.666969	674.0
1168.220596	681.5
1168.774166	677.5
1169.327679	676.0
1169.881135	673.25
1170.434533	673.5
1170.987875	675.0
1171.541159	678.5
1172.094387	673.25
1172.647557	673.75
1173.200671	674.25
1173.753727	673.0
1174.306726	676.25
1174.859668	676.25
1175.412554	676.25
1175.965382	675.5
1176.518153	677.75
1177.070867	678.5
1177.623524	674.0
1178.176124	678.5
1178.728667	675.25
1179.281153	674.25
1179.833582	677.75
1180.385954	673.0
1180.938269	674.75
1181.490527	675.25
1182.042728	674.75
1182.594872	676.75
1183.146959	675.25
1183.698989	673.5
1184.250962	675.5
1184.802878	674.75
1185.354737	675.5
1185.906539	677.75
1186.458285	674.75
1187.009973	673.75
1187.561604	674.0
1188.113178	673.5
1188.664696	673.75
1189.216156	676.5
1189.76756	678.75
1190.318906	676.75
1190.870196	675.0
1191.421429	676.5
1191.972604	676.0
1192.523723	676.5
1193.074785	696.25
1193.62579	675.75
1194.176738	677.75
1194.727629	675.0
1195.278464	673.75
1195.829241	677.5
1196.379962	679.75
1196.930625	676.0
1197.481232	675.5
1198.031782	672.75
1198.582275	674.5
1199.132711	674.25
1199.68309	677.5
1200.233413	675.25
1200.783678	675.0
1201.333887	676.0
1201.884039	678.75
1202.434134	675.0
1202.984172	675.25
1203.534153	674.5
1204.084077	676.5
1204.633945	680.0
1205.183756	675.75
1205.73351	676.0
1206.283207	676.75
1206.832847	677.0
1207.38243	677.25
1207.931957	675.75
1208.481427	674.25
1209.03084	675.5
1209.580196	675.25
1210.129496	674.75
1210.678738	677.25
1211.227924	677.5
1211.777053	678.75
1212.326126	678.0
1212.875141	675.5
1213.4241	678.25
1213.973002	675.75
1214.521847	678.5
1215.070636	677.5
1215.619367	676.75
1216.168042	680.75
1216.71666	675.25
1217.265222	677.75
1217.813726	675.75
1218.362174	676.0
1218.910566	676.25
1219.4589	673.75
1220.007178	679.75
1220.555399	675.25
1221.103563	676.5
1221.651671	678.25
1222.199722	675.5
1222.747716	676.5
1223.295653	673.75
1223.843534	675.0
1224.391358	677.0
1224.939126	676.0
1225.486836	679.25
1226.03449	679.5
1226.582088	678.5
1227.129628	677.25
1227.677112	681.5
1228.22454	676.75
1228.77191	676.0
1229.319224	676.75
1229.866482	678.0
1230.413682	676.5
1230.960826	680.75
1231.507914	680.25
1232.054945	677.25
1232.601919	680.75
1233.148836	677.5
1233.695697	675.75
1234.242501	680.5
1234.789249	676.75
1235.33594	678.5
1235.882574	674.0
1236.429152	679.0
1236.975673	677.75
1237.522138	679.75
1238.068545	674.5
1238.614897	675.75
1239.161191	677.75
1239.70743	678.25
1240.253611	682.25
1240.799736	677.0
1241.345805	679.75
1241.891816	683.0
1242.437772	676.25
1242.98367	678.75
1243.529512	680.5
1244.075298	679.25
1244.621027	683.0
1245.1667	679.0
1245.712315	677.75
1246.257875	676.5
1246.803378	680.75
1247.348824	681.25
1247.894214	682.25
1248.439547	679.25
1248.984824	682.25
1249.530044	680.0
1250.075208	679.0
1250.620315	677.5
1251.165365	683.25
1251.71036	680.0
1252.255297	679.25
1252.800178	679.25
1253.345003	682.25
1253.889771	680.5
1254.434483	682.0
1254.979138	679.75
1255.523737	679.5
1256.068279	679.25
1256.612765	679.0
1257.157194	680.75
1257.701567	682.5
1258.245884	681.75
1258.790143	687.75
1259.334347	683.5
1259.878494	688.5
1260.422585	683.0
1260.966619	683.5
1261.510596	688.75
1262.054518	693.25
1262.598383	691.25
1263.142191	698.0
1263.685943	704.5
1264.229639	711.0
1264.773278	715.5
1265.316861	714.75
1265.860387	703.75
1266.403857	693.75
1266.947271	688.0
1267.490628	684.75
1268.033929	687.75
1268.577173	682.0
1269.120361	683.5
1269.663493	681.0
1270.206568	681.5
1270.749587	684.5
1271.292549	685.5
1271.835456	686.75
1272.378305	683.25
1272.921099	682.25
1273.463836	680.75
1274.006517	686.0
1274.549141	684.5
1275.091709	683.0
1275.634221	685.25
1276.176676	684.75
1276.719075	680.75
1277.261418	684.25
1277.803704	689.0
1278.345935	690.0
1278.888108	682.75
1279.430226	693.0
1279.972287	691.75
1280.514292	691.75
1281.05624	700.5
1281.598133	710.0
1282.139969	729.0
1282.681748	770.5
1283.223472	850.0
1283.765139	975.5
1284.30675	1179.75
1284.848304	1265.75
1285.389803	1104.5
1285.931245	899.5
1286.472631	774.5
1287.01396	730.0
1287.555233	707.5
1288.09645	698.25
1288.637611	697.5
1289.178716	689.5
1289.719764	689.0
1290.260756	686.5
1290.801692	686.5
1291.342572	684.25
1291.883395	685.5
1292.424162	681.75
1292.964873	684.75
1293.505528	686.25
1294.046126	683.25
1294.586669	683.75
1295.127155	684.5
1295.667585	683.25
1296.207958	681.75
1296.748276	678.25
1297.288537	682.75
1297.828743	685.25
1298.368892	678.25
1298.908984	683.25
1299.449021	684.5
1299.989002	685.25
1300.528926	680.75
1301.068794	678.0
1301.608606	682.5
1302.148362	682.25
1302.688062	683.75
1303.227705	679.5
1303.767293	681.25
1304.306824	678.75
1304.846299	681.5
1305.385718	681.25
1305.925081	680.5
1306.464388	680.25
1307.003639	681.0
1307.542833	680.25
1308.081972	680.0
1308.621054	678.75
1309.16008	678.0
1309.699051	678.25
1310.237965	681.0
1310.776823	684.25
1311.315625	682.0
1311.85437	679.0
1312.39306	679.5
1312.931694	677.25
1313.470271	683.25
1314.008793	681.25
1314.547258	681.25
1315.085668	676.5
1315.624021	679.75
1316.162318	677.75
1316.70056	674.25
1317.238745	678.5
1317.776874	679.75
1318.314947	680.5
1318.852964	679.5
1319.390925	675.75
1319.92883	677.0
1320.466679	680.25
1321.004472	680.5
1321.542209	680.25
1322.07989	674.5
1322.617515	678.0
1323.155084	680.0
1323.692597	682.75
1324.230054	677.0
1324.767455	677.5
1325.3048	678.75
1325.842089	680.5
1326.379322	680.5
1326.916499	679.75
1327.45362	681.0
1327.990685	679.25
1328.527694	677.0
1329.064647	680.75
1329.601544	679.0
1330.138386	677.5
1330.675171	679.5
1331.2119	679.25
1331.748574	678.5
1332.285191	677.5
1332.821753	675.75
1333.358258	683.75
1333.894708	680.0
1334.431102	680.0
1334.967439	680.25
1335.503721	678.25
1336.039947	680.0
1336.576117	679.5
1337.112232	680.5
1337.64829	677.75
1338.184292	679.25
1338.720239	676.5
1339.256129	679.0
1339.791964	681.25
1340.327743	679.0
1340.863466	683.5
1341.399133	677.75
1341.934744	681.75
1342.470299	683.5
1343.005799	680.5
1343.541243	681.75
1344.07663	681.25
1344.611962	681.75
1345.147238	677.25
1345.682458	676.25
1346.217623	679.25
1346.752731	682.25
1347.287784	685.5
1347.822781	678.5
1348.357722	679.25
1348.892607	676.25
1349.427437	681.0
1349.96221	676.75
1350.496928	679.5
1351.03159	682.0
1351.566196	683.25
1352.100746	683.25
1352.635241	682.75
1353.16968	677.75
1353.704063	679.75
1354.23839	679.5
1354.772661	677.5
1355.306877	680.0
1355.841037	682.25
1356.375141	682.5
1356.909189	681.0
1357.443182	681.0
1357.977118	680.25
1358.510999	681.75
1359.044825	679.75
1359.578594	681.0
1360.112308	682.0
1360.645966	683.0
1361.179568	680.0
1361.713115	683.75
1362.246606	681.25
1362.780041	682.0
1363.31342	682.25
1363.846744	681.25
1364.380012	680.5
1364.913224	686.75
1365.446381	681.25
1365.979482	682.25
1366.512527	685.0
1367.045516	681.25
1367.57845	682.75
1368.111328	682.25
1368.644151	682.0
1369.176917	687.5
1369.709628	689.25
1370.242284	707.75
1370.774884	703.5
1371.307428	687.75
1371.839916	685.25
1372.372349	681.25
1372.904726	682.75
1373.437047	683.5
1373.969313	680.75
1374.501523	682.75
1375.033678	685.75
1375.565776	683.25
1376.09782	685.75
1376.629807	686.25
1377.161739	685.5
1377.693615	688.0
1378.225436	687.5
1378.757201	685.5
1379.288911	688.75
1379.820565	686.75
1380.352163	685.5
1380.883706	694.0
1381.415193	689.75
1381.946624	694.25
1382.478	694.25
1383.009321	702.0
1384.071795	704.5
1384.602948	710.0
1385.134046	717.25
1385.665089	729.75
1386.196076	753.5
1386.727007	817.75
1387.257883	955.25
1387.788703	1341.0
1388.319468	1886.0
1388.850177	1726.25
1389.38083	1130.75
1389.911429	849.5
1390.441971	760.0
1390.972458	729.75
1391.50289	716.5
1392.033266	708.5
1392.563586	697.0
1393.093851	697.0
1393.624061	700.0
1394.154214	692.75
1394.684313	693.5
1395.214356	688.5
1395.744343	687.5
1396.274275	688.5
1396.804152	683.75
1397.333973	689.0
1397.863738	690.5
1398.393448	687.5
1398.923103	686.75
1399.452702	686.25
1399.982246	691.25
1400.511734	684.75
1401.041167	684.75
1401.570544	683.75
1402.099866	684.75
1402.629132	685.0
1403.158343	685.5
1403.687498	684.0
1404.216598	684.5
1404.745643	685.0
1405.274632	688.25
1405.803566	688.0
1406.332444	687.5
1406.861267	690.25
1407.390035	695.75
1407.918747	703.5
1408.447404	706.75
1408.976005	726.5
1409.504551	741.5
1410.033041	752.0
1410.561476	743.75
1411.089856	714.0
1411.618181	701.0
1412.14645	691.0
1412.674663	687.0
1413.202821	687.0
1413.730924	683.75
1414.258972	686.5
1414.786964	683.75
1415.314901	695.75
1415.842782	680.75
1416.370608	681.25
1416.898379	683.5
1417.426094	680.25
1417.953754	682.5
1418.481359	682.75
1419.008908	679.25
1419.536402	684.75
1420.063841	681.5
1420.591225	679.75
1421.118553	678.75
1421.645826	678.5
1422.173043	681.75
1422.700205	679.75
1423.227312	682.75
1423.754364	681.25
1424.28136	681.0
1424.808301	681.25
1425.335187	683.5
1425.862017	685.25
1426.388792	679.75
1426.915512	682.5
1427.442177	679.0
1427.968786	683.0
1428.49534	679.25
1429.021839	683.5
1429.548282	677.5
1430.074671	677.75
1430.601004	676.75
1431.127281	682.75
1431.653504	680.5
1432.179671	676.25
1432.705783	680.0
1433.23184	678.75
1433.757842	679.75
1434.283788	678.5
1434.809679	675.0
1435.335515	682.25
1435.861296	675.5
1436.387022	677.25
1436.912692	680.75
1437.438307	677.0
1437.963867	674.75
1438.489372	678.0
1439.014821	678.0
1439.540216	677.75
1440.065555	677.5
1440.590839	676.0
1441.116068	676.5
1441.641241	676.0
1442.16636	682.75
1442.691423	678.25
1443.216431	680.0
1443.741384	674.25
1444.266282	673.75
1444.791125	675.75
1445.315912	677.25
1445.840645	674.5
1446.365322	679.75
1446.889944	677.5
1447.414511	679.25
1447.939023	677.0
1448.463479	676.0
1448.987881	675.5
1449.512228	673.75
1450.036519	676.75
1450.560755	673.0
1451.084936	675.5
1451.609062	678.75
1452.133133	678.5
1452.657149	676.25
1453.18111	672.0
1453.705016	676.0
1454.228866	673.75
1454.752662	677.25
1455.276402	675.0
1455.800088	673.0
1456.323718	675.5
1456.847293	674.25
1457.370813	677.75
1457.894278	676.75
1458.417689	676.75
1458.941044	674.75
1459.464344	673.25
1459.987588	675.25
1460.510778	673.5
1461.033913	677.75
1461.556993	675.25
1462.080018	675.75
1462.602987	675.75
1463.125902	673.25
1463.648762	675.0
1464.171567	675.25
1464.694316	679.5
1465.217011	673.75
1465.739651	675.5
1466.262235	676.5
1466.784765	677.25
1467.30724	673.75
1467.829659	675.25
1468.352024	675.25
1468.874334	675.5
1469.396589	674.25
1469.918788	676.25
1470.440933	676.25
1470.963023	678.75
1471.485058	675.5
1472.007038	676.75
1472.528963	672.5
1473.050833	675.5
1473.572648	676.25
1474.094408	679.0
1474.616113	675.25
1475.137763	676.5
1475.659358	672.75
1476.180899	675.75
1476.702384	677.0
1477.223815	674.25
1477.74519	674.25
1478.266511	674.5
1478.787777	675.75
1479.308988	676.75
1479.830144	675.5
1480.351245	676.75
1480.872291	677.0
1481.393282	673.75
1481.914218	678.75
1482.4351	670.75
1482.955926	675.75
1483.476698	676.25
1483.997415	675.75
1484.518077	674.75
1485.038684	675.75
1485.559236	676.5
1486.079734	673.75
1486.600176	676.25
1487.120564	675.5
1487.640896	671.75
1488.161174	675.25
1488.681398	676.0
1489.201566	678.5
1489.721679	674.25
1490.241738	678.25
1490.761742	675.75
1491.281691	669.25
1491.801585	677.0
1492.321424	672.5
1492.841208	674.0
1493.360938	675.0
1493.880613	676.75
1494.400233	676.75
1494.919798	672.0
1495.439309	673.25
1495.958764	673.75
1496.478165	677.25
1496.997511	672.75
1497.516803	673.5
1498.036039	675.5
1498.555221	675.5
1499.074348	671.75
1499.59342	682.75
1500.112438	674.0
1500.6314	674.25
1501.150308	673.75
1501.669161	673.0
1502.18796	676.5
1502.706704	674.75
1503.225393	674.5
1503.744027	674.0
1504.262606	672.5
1504.781131	674.5
1505.299601	675.0
1505.818016	673.0
1506.336377	673.25
1506.854683	675.5
1507.372934	674.5
1507.89113	675.0
1508.409272	673.75
1508.927359	675.0
1509.445391	675.75
1509.963369	674.5
1510.481292	683.5
1510.99916	672.75
1511.516974	675.5
1512.034733	672.0
1512.552437	676.75
1513.070086	672.5
1513.587681	674.75
1514.105221	676.25
1514.622707	674.25
1515.140138	673.5
1515.657514	671.25
1516.174836	673.25
1516.692102	674.5
1517.209315	676.0
1517.726472	671.5
1518.243575	676.5
1518.760624	672.5
1519.277617	672.25
1519.794557	669.75
1520.311441	671.5
1520.828271	674.75
1521.345046	674.25
1521.861767	672.5
1522.378433	676.0
1522.895044	678.25
1523.411601	673.0
1523.928103	671.75
1524.444551	673.5
1524.960944	674.5
1525.477282	672.25
1525.993566	674.0
1526.509795	675.75
1527.02597	675.75
1527.54209	676.25
1528.058156	676.0
1528.574167	673.75
1529.090123	671.25
1529.606025	677.0
1530.121872	673.25
1530.637665	672.5
1531.153403	677.0
1531.669087	675.0
1532.184716	673.75
1532.700291	674.25
1533.215811	673.5
1533.731276	681.5
1534.246687	676.75
1534.762044	672.0
1535.277346	673.0
1535.792593	672.5
1536.307786	673.25
1536.822924	671.25
1537.338008	673.5
1537.853038	673.0
1538.368013	672.0
1538.882933	668.75
1539.397799	673.5
1539.91261	677.25
1540.427367	677.5
1540.94207	675.5
1541.456718	672.5
1541.971311	674.0
1542.48585	672.0
1543.000335	673.0
1543.514765	674.0
1544.029141	671.0
1544.543462	673.25
1545.057729	678.0
1545.571941	672.75
1546.086099	672.0
1546.600202	672.75
1547.114251	676.75
1547.628246	671.75
1548.142186	673.0
1548.656072	676.25
1549.169903	673.75
1549.68368	676.5
1550.197402	675.0
1550.71107	674.0
1551.224684	673.0
1551.738243	676.25
1552.251748	676.75
1552.765198	669.5
1553.278594	672.25
1553.791936	676.25
1554.305223	670.25
1554.818456	675.75
1555.331634	670.75
1555.844758	672.5
1556.357828	674.0
1556.870843	672.5
1557.383804	676.25
1557.896711	673.25
1558.409563	673.5
1558.922361	674.0
1559.435105	674.0
1559.947794	673.5
1560.460429	671.5
1560.973009	679.0
1561.485535	671.75
1561.998007	674.25
1562.510425	675.75
1563.022788	676.75
1563.535097	673.0
1564.047351	675.0
1564.559551	675.25
1565.071697	672.0
1565.583789	676.25
1566.095826	673.0
1566.607809	675.0
1567.119738	674.5
1567.631612	676.25
1568.143432	673.5
1568.655198	671.75
1569.16691	673.75
1569.678567	675.5
1570.19017	676.5
1570.701719	672.75
1571.213213	675.75
1571.724653	678.5
1572.236039	675.75
1572.747371	675.5
1573.258648	675.75
1573.769871	676.5
1574.28104	675.25
1574.792155	674.25
1575.303215	673.0
1575.814221	669.75
1576.325173	672.25
1576.836071	670.75
1577.346914	671.25
1577.857703	677.75
1578.368438	673.0
1578.879119	673.75
1579.389746	675.0
1579.900318	673.5
1580.410836	674.25
1580.9213	677.0
1581.43171	669.5
1581.942065	671.0
1582.452366	674.5
1582.962614	670.75
1583.472807	674.0
1583.982945	675.25
1584.49303	673.5
1585.00306	674.0
1585.513037	671.25
1586.022959	677.0
1586.532827	673.0
1587.04264	673.25
1587.5524	669.75
1588.062105	671.75
1588.571757	677.75
1589.081354	672.25
1589.590897	672.25
1590.100386	671.25
1590.60982	673.0
1591.119201	673.0
1591.628527	677.0
1592.1378	674.5
