1042.208489	678.0
1042.775002	677.0
1043.341458	677.5
1043.907855	679.0
1044.474195	673.25
1045.040476	676.75
1045.6067	679.25
1046.172866	676.5
1046.738974	675.25
1047.305024	671.5
1047.871015	672.0
1048.436949	673.0
1049.002825	673.75
1049.568644	674.25
1050.134404	673.0
1050.700106	671.75
1051.26575	673.5
1051.831337	672.25
1052.396865	673.75
1052.962336	673.25
1053.527749	669.25
1054.093103	671.5
1054.6584	670.75
1055.223639	670.75
1055.788821	670.25
1056.353944	670.75
1056.919009	671.0
1057.484017	669.75
1058.048967	667.75
1058.613858	669.5
1059.178692	671.0
1059.743468	671.5
1060.308187	670.5
1060.872847	669.5
1061.43745	670.5
1062.001994	670.5
1062.566481	667.75
1063.13091	668.0
1063.695281	669.75
1064.259595	667.5
1064.82385	670.25
1065.388048	671.5
1065.952188	669.0
1066.51627	669.75
1067.080295	668.75
1067.644261	667.0
1068.20817	667.0
1068.772021	666.5
1069.335814	668.0
1069.899549	679.0
1070.463227	668.5
1071.026847	667.75
1071.590409	670.5
1072.153913	666.0
1072.717359	669.5
1073.280748	668.75
1073.844079	670.75
1074.407352	668.25
1074.970568	666.5
1075.533726	670.5
1076.096826	668.25
1076.659868	670.25
1077.222853	670.25
1077.785779	668.0
1078.348648	667.0
1078.91146	667.5
1079.474214	667.75
1080.036909	668.25
1080.599548	664.0
1081.162128	667.5
1081.724651	667.5
1082.287116	667.0
1082.849524	669.5
1083.411873	669.25
1083.974165	669.0
1084.5364	666.5
1085.098577	670.0
1085.660696	669.25
1086.222757	666.25
1086.784761	669.0
1087.346707	668.0
1087.908595	668.25
1088.470426	669.5
1089.032199	666.75
1089.593914	667.75
1090.155572	668.75
1090.717172	670.0
1091.278715	668.75
1091.8402	667.0
1092.401627	671.75
1092.962997	669.0
1093.524309	669.0
1094.085563	671.25
1094.64676	667.75
1095.207899	683.0
1095.768981	668.75
1096.330005	668.25
1096.890971	675.75
1097.45188	669.75
1098.012732	669.25
1098.573525	668.75
1099.134261	667.75
1099.69494	668.0
1100.255561	669.25
1100.816124	669.75
1101.37663	667.5
1101.937078	665.25
1102.497469	670.25
1103.057802	667.5
1103.618078	667.25
1104.178296	666.25
1104.738456	666.75
1105.298559	667.5
1105.858605	665.5
1106.418593	666.75
1106.978523	668.0
1107.538396	668.25
1108.098212	668.75
1108.657969	666.25
1109.21767	669.0
1109.777313	670.0
1110.336898	664.75
1110.896426	665.75
1111.455896	669.25
1112.015309	666.0
1112.574665	665.25
1113.133963	665.5
1113.693203	668.75
1114.252386	669.25
1114.811512	669.0
1115.37058	667.5
1115.92959	666.75
1116.488544	666.75
1117.047439	667.0
1117.606278	664.75
1118.165058	667.75
1118.723782	666.75
1119.282448	669.5
1119.841056	664.0
1120.399607	666.0
1120.958101	664.0
1121.516537	669.5
1122.074916	667.25
1122.633237	667.25
1123.191501	665.0
1123.749708	665.5
1124.307857	668.75
1124.865949	664.0
1125.423984	666.5
1125.981961	670.0
1126.53988	663.25
1127.097742	666.5
1127.655547	668.5
1128.213295	668.75
1128.770985	665.0
1129.328618	665.0
1129.886193	666.5
1130.443711	665.25
1131.001172	668.75
1131.558575	666.5
1132.115921	666.25
1132.67321	665.5
1133.230441	668.0
1133.787615	668.25
1134.344732	667.5
1134.901792	669.0
1135.458794	665.5
1136.015738	667.75
1136.572626	666.0
1137.129456	667.0
1137.686229	664.25
1138.242944	668.75
1138.799602	669.25
1139.356203	665.75
1139.912747	666.25
1140.469233	666.75
1141.025662	667.75
1141.582034	667.0
1142.138348	668.25
1142.694606	668.25
1143.250806	668.5
1143.806948	668.0
1144.363034	666.25
1144.919062	666.0
1145.475033	669.0
1146.030946	664.5
1146.586803	668.0
1147.142602	669.5
1147.698344	667.75
1148.254029	667.75
1148.809656	668.75
1149.365227	667.75
1149.92074	665.0
1150.476195	668.0
1151.031594	669.25
1151.586936	666.25
1152.14222	663.25
1152.697447	668.75
1153.252617	665.75
1153.807729	665.25
1154.362785	669.25
1154.917783	667.0
1155.472724	667.25
1156.027608	666.75
1156.582435	665.5
1157.137204	667.0
1157.691917	665.25
1158.246572	666.75
1158.80117	667.5
1159.355711	666.75
1159.910195	667.25
1160.464621	666.75
1161.018991	668.0
1161.573303	667.0
1162.127558	665.5
1162.681756	662.75
1163.235897	670.25
1163.789981	664.0
1164.344008	666.75
1164.897978	668.25
1165.45189	665.75
1166.005745	668.0
1166.559544	666.25
1167.113285	666.5
1167.666969	668.25
1168.220596	665.75
1168.774166	668.25
1169.327679	666.75
1169.881135	665.75
1170.434533	670.25
1170.987875	668.0
1171.541159	665.25
1172.094387	664.0
1172.647557	665.75
1173.200671	667.5
1173.753727	666.75
1174.306726	669.0
1174.859668	666.5
1175.412554	664.75
1175.965382	664.75
1176.518153	667.0
1177.070867	666.5
1177.623524	664.25
1178.176124	668.75
1178.728667	665.75
1179.281153	665.75
1179.833582	665.5
1180.385954	666.5
1180.938269	666.75
1181.490527	666.75
1182.042728	667.5
1182.594872	666.25
1183.146959	665.75
1183.698989	664.25
1184.250962	667.25
1184.802878	669.5
1185.354737	665.5
1185.906539	667.0
1186.458285	667.75
1187.009973	666.0
1187.561604	666.25
1188.113178	666.0
1188.664696	665.75
1189.216156	667.5
1189.76756	667.25
1190.318906	666.75
1190.870196	668.0
1191.421429	667.0
1191.972604	666.5
1192.523723	669.0
1193.074785	685.0
1193.62579	664.75
1194.176738	667.5
1194.727629	667.25
1195.278464	668.5
1195.829241	668.75
1196.379962	667.5
1196.930625	664.5
1197.481232	667.5
1198.031782	666.25
1198.582275	667.5
1199.132711	667.5
1199.68309	667.5
1200.233413	666.5
1200.783678	667.25
1201.333887	667.25
1201.884039	667.0
1202.434134	666.75
1202.984172	667.5
1203.534153	666.25
1204.084077	665.75
1204.633945	664.75
1205.183756	667.25
1205.73351	670.25
1206.283207	669.25
1206.832847	667.75
1207.38243	666.0
1207.931957	667.5
1208.481427	667.5
1209.03084	666.5
1209.580196	665.25
1210.129496	669.0
1210.678738	667.75
1211.227924	667.25
1211.777053	669.75
1212.326126	667.75
1212.875141	670.75
1213.4241	668.75
1213.973002	664.25
1214.521847	670.75
1215.070636	669.25
1215.619367	667.25
1216.168042	667.0
1216.71666	666.0
1217.265222	666.25
1217.813726	670.5
1218.362174	665.75
1218.910566	671.0
1219.4589	671.25
1220.007178	670.0
1220.555399	670.0
1221.103563	670.0
1221.651671	670.5
1222.199722	667.75
1222.747716	667.5
1223.295653	669.0
1223.843534	667.25
1224.391358	670.25
1224.939126	670.0
1225.486836	668.5
1226.03449	673.25
1226.582088	667.75
1227.129628	669.75
1227.677112	666.5
1228.22454	668.5
1228.77191	672.5
1229.319224	667.75
1229.866482	668.75
1230.413682	669.75
1230.960826	669.25
1231.507914	670.75
1232.054945	670.5
1232.601919	671.25
1233.148836	669.0
1233.695697	671.25
1234.242501	669.0
1234.789249	669.75
1235.33594	670.25
1235.882574	670.25
1236.429152	669.25
1236.975673	669.0
1237.522138	672.0
1238.068545	670.75
1238.614897	666.5
1239.161191	672.5
1239.70743	671.5
1240.253611	669.5
1240.799736	671.0
1241.345805	667.75
1241.891816	669.25
1242.437772	671.5
1242.98367	673.5
1243.529512	672.0
1244.075298	669.75
1244.621027	668.75
1245.1667	670.75
1245.712315	669.5
1246.257875	674.5
1246.803378	670.0
1247.348824	677.0
1247.894214	675.0
1248.439547	671.25
1248.984824	672.25
1249.530044	674.75
1250.075208	676.25
1250.620315	673.25
1251.165365	672.25
1251.71036	676.5
1252.255297	672.25
1252.800178	673.5
1253.345003	673.0
1253.889771	676.0
1254.434483	669.25
1254.979138	673.0
1255.523737	673.75
1256.068279	674.5
1256.612765	671.5
1257.157194	673.25
1257.701567	674.75
1258.245884	677.75
1258.790143	683.5
1259.334347	676.5
1259.878494	681.0
1260.422585	677.5
1260.966619	680.5
1261.510596	686.0
1262.054518	687.5
1262.598383	692.0
1263.142191	696.0
1263.685943	713.5
1264.229639	714.0
1264.773278	716.5
1265.316861	718.25
1265.860387	700.75
1266.403857	686.75
1266.947271	682.5
1267.490628	681.75
1268.033929	683.5
1268.577173	682.5
1269.120361	675.25
1269.663493	683.5
1270.206568	677.0
1270.749587	678.25
1271.292549	682.0
1271.835456	679.5
1272.378305	679.0
1272.921099	674.5
1273.463836	680.0
1274.006517	677.5
1274.549141	679.75
1275.091709	679.5
1275.634221	680.75
1276.176676	681.75
1276.719075	678.5
1277.261418	684.25
1277.803704	683.0
1278.345935	686.25
1278.888108	683.0
1279.430226	688.0
1279.972287	696.0
1280.514292	692.75
1281.05624	701.25
1281.598133	719.75
1282.139969	751.5
1282.681748	821.5
1283.223472	949.5
1283.765139	1166.5
1284.30675	1381.25
1284.848304	1422.75
1285.389803	1165.25
1285.931245	907.25
1286.472631	786.25
1287.01396	730.0
1287.555233	711.0
1288.09645	700.5
1288.637611	695.75
1289.178716	692.0
1289.719764	688.5
1290.260756	684.75
1290.801692	685.0
1291.342572	683.25
1291.883395	682.75
1292.424162	677.25
1292.964873	680.5
1293.505528	677.25
1294.046126	680.0
1294.586669	677.75
1295.127155	678.25
1295.667585	679.25
1296.207958	673.75
1296.748276	676.5
1297.288537	676.0
1297.828743	677.75
1298.368892	676.25
1298.908984	677.25
1299.449021	673.75
1299.989002	678.0
1300.528926	673.0
1301.068794	675.0
1301.608606	672.0
1302.148362	673.25
1302.688062	678.0
1303.227705	674.25
1303.767293	677.0
1304.306824	676.25
1304.846299	672.75
1305.385718	675.25
1305.925081	676.25
1306.464388	673.25
1307.003639	674.5
1307.542833	675.75
1308.081972	675.5
1308.621054	673.75
1309.16008	671.25
1309.699051	672.75
1310.237965	666.25
1310.776823	670.5
1311.315625	672.5
1311.85437	673.0
1312.39306	674.0
1312.931694	672.25
1313.470271	672.5
1314.008793	673.75
1314.547258	672.5
1315.085668	675.0
1315.624021	673.25
1316.162318	677.25
1316.70056	672.25
1317.238745	673.0
1317.776874	672.0
1318.314947	671.75
1318.852964	672.75
1319.390925	677.0
1319.92883	674.5
1320.466679	672.5
1321.004472	671.0
1321.542209	674.25
1322.07989	673.25
1322.617515	672.5
1323.155084	671.25
1323.692597	679.0
1324.230054	671.0
1324.767455	674.0
1325.3048	672.25
1325.842089	672.75
1326.379322	669.75
1326.916499	674.75
1327.45362	668.25
1327.990685	671.5
1328.527694	673.25
1329.064647	672.25
1329.601544	668.75
1330.138386	671.0
1330.675171	670.75
1331.2119	670.75
1331.748574	672.5
1332.285191	671.5
1332.821753	673.75
1333.358258	673.75
1333.894708	673.25
1334.431102	671.75
1334.967439	672.75
1335.503721	672.75
1336.039947	672.75
1336.576117	670.75
1337.112232	671.0
1337.64829	669.25
1338.184292	668.5
1338.720239	670.5
1339.256129	674.5
1339.791964	671.75
1340.327743	669.75
1340.863466	670.25
1341.399133	671.5
1341.934744	671.25
1342.470299	671.5
1343.005799	672.75
1343.541243	675.0
1344.07663	673.25
1344.611962	669.5
1345.147238	671.75
1345.682458	670.25
1346.217623	675.0
1346.752731	673.25
1347.287784	674.5
1347.822781	675.25
1348.357722	674.25
1348.892607	669.75
1349.427437	672.5
1349.96221	673.75
1350.496928	671.0
1351.03159	673.75
1351.566196	670.5
1352.100746	670.25
1352.635241	674.25
1353.16968	674.0
1353.704063	672.75
1354.23839	671.5
1354.772661	671.0
1355.306877	673.75
1355.841037	674.25
1356.375141	672.75
1356.909189	671.5
1357.443182	672.0
1357.977118	673.25
1358.510999	673.5
1359.044825	674.5
1359.578594	674.0
1360.112308	670.0
1360.645966	671.25
1361.179568	676.0
1361.713115	673.25
1362.246606	674.0
1362.780041	678.25
1363.31342	676.75
1363.846744	676.5
1364.380012	674.5
1364.913224	675.75
1365.446381	673.75
1365.979482	678.25
1366.512527	677.0
1367.045516	677.75
1367.57845	674.25
1368.111328	679.75
1368.644151	678.5
1369.176917	678.75
1369.709628	686.75
1370.242284	703.75
1370.774884	701.75
1371.307428	682.5
1371.839916	675.25
1372.372349	678.0
1372.904726	676.75
1373.437047	679.75
1373.969313	676.75
1374.501523	675.0
1375.033678	677.75
1375.565776	679.0
1376.09782	680.25
1376.629807	680.25
1377.161739	678.25
1377.693615	681.25
1378.225436	680.5
1378.757201	681.25
1379.288911	680.75
1379.820565	686.5
1380.352163	685.75
1380.883706	687.0
1381.415193	686.25
1381.946624	686.0
1382.478	693.0
1383.009321	697.25
1383.540585	700.25
1384.071795	702.0
1384.602948	710.5
1385.134046	724.75
1385.665089	749.25
1386.196076	792.5
1386.727007	887.25
1387.257883	1112.25
1387.788703	1677.0
1388.319468	2319.0
1388.850177	1981.0
1389.38083	1214.5
1389.911429	884.0
1390.441971	784.0
1390.972458	735.75
1391.50289	717.0
1392.033266	703.75
1392.563586	700.75
1393.093851	695.75
1393.624061	692.5
1394.154214	690.75
1394.684313	687.25
1395.214356	690.0
1395.744343	686.0
1396.274275	685.25
1396.804152	678.5
1397.333973	681.5
1397.863738	681.75
1398.393448	682.5
1398.923103	677.75
1399.452702	680.5
1399.982246	681.0
1400.511734	678.5
1401.041167	678.5
1401.570544	680.25
1402.099866	675.75
1402.629132	677.0
1403.158343	679.0
1403.687498	678.25
1404.216598	678.75
1404.745643	683.5
1405.274632	681.5
1405.803566	685.25
1406.332444	685.25
1406.861267	689.5
1407.390035	697.25
1407.918747	704.75
1408.447404	716.0
1408.976005	728.25
1409.504551	751.25
1410.033041	763.25
1410.561476	746.25
1411.089856	875.75
1411.618181	704.5
1412.14645	686.5
1412.674663	683.0
1413.202821	679.5
1413.730924	676.0
1414.258972	678.75
1414.786964	675.25
1415.314901	686.25
1415.842782	675.0
1416.370608	672.75
1416.898379	674.0
1417.426094	674.5
1417.953754	675.75
1418.481359	671.0
1419.008908	670.75
1419.536402	671.25
1420.063841	671.5
1420.591225	674.5
1421.118553	673.75
1421.645826	673.0
1422.173043	674.0
1422.700205	672.5
1423.227312	670.0
1423.754364	673.75
1424.28136	671.25
1424.808301	673.5
1425.335187	673.0
1425.862017	674.75
1426.388792	674.75
1426.915512	669.75
1427.442177	671.5
1427.968786	671.0
1428.49534	671.25
1429.021839	670.75
1429.548282	670.0
1430.074671	665.75
1430.601004	670.0
1431.127281	669.25
1431.653504	668.5
1432.179671	669.5
1432.705783	669.75
1433.23184	666.25
1433.757842	670.75
1434.283788	667.5
1434.809679	669.5
1435.335515	666.25
1435.861296	668.25
1436.387022	666.25
1436.912692	668.0
1437.438307	669.25
1437.963867	668.25
1438.489372	667.5
1439.014821	666.25
1439.540216	666.25
1440.065555	668.5
1440.590839	667.25
1441.116068	667.75
1441.641241	665.5
1442.16636	668.5
1442.691423	667.25
1443.216431	668.5
1443.741384	668.25
1444.266282	668.5
1444.791125	667.25
1445.315912	671.25
1445.840645	669.5
1446.365322	664.0
1446.889944	664.0
1447.414511	662.75
1447.939023	664.25
1448.463479	666.0
1448.987881	666.0
1449.512228	664.25
1450.036519	664.75
1450.560755	664.5
1451.084936	664.75
1451.609062	666.75
1452.133133	665.5
1452.657149	667.75
1453.18111	666.25
1453.705016	665.25
1454.228866	664.5
1454.752662	665.5
1455.276402	664.75
1455.800088	664.75
1456.323718	665.75
1456.847293	665.25
1457.370813	665.5
1457.894278	665.0
1458.417689	663.0
1458.941044	667.5
1459.464344	666.0
1459.987588	665.25
1460.510778	667.75
1461.033913	664.75
1461.556993	664.5
1462.080018	666.0
1462.602987	665.0
1463.125902	667.0
1463.648762	662.5
1464.171567	667.75
1464.694316	667.25
1465.217011	665.0
1465.739651	667.5
1466.262235	666.75
1466.784765	665.5
1467.30724	663.0
1467.829659	665.5
1468.352024	664.5
1468.874334	664.75
1469.396589	663.25
1469.918788	670.25
1470.440933	663.25
1470.963023	665.25
1471.485058	664.5
1472.007038	662.75
1472.528963	662.0
1473.050833	663.5
1473.572648	663.25
1474.094408	663.75
1474.616113	666.0
1475.137763	666.25
1475.659358	666.5
1476.180899	662.5
1476.702384	664.0
1477.223815	664.25
1477.74519	661.5
1478.266511	667.0
1478.787777	664.75
1479.308988	662.5
1479.830144	665.25
1480.351245	663.0
1480.872291	666.25
1481.393282	662.75
1481.914218	663.25
1482.4351	662.75
1482.955926	663.75
1483.476698	660.75
1483.997415	664.25
1484.518077	662.5
1485.038684	664.25
1485.559236	663.75
1486.079734	664.25
1486.600176	663.25
1487.120564	664.0
1487.640896	665.0
1488.161174	663.0
1488.681398	661.75
1489.201566	663.5
1489.721679	664.75
1490.241738	660.0
1490.761742	666.5
1491.281691	661.25
1491.801585	662.25
1492.321424	662.0
1492.841208	666.5
1493.360938	665.5
1493.880613	664.5
1494.400233	660.75
1494.919798	664.0
1495.439309	661.75
1495.958764	661.5
1496.478165	665.0
1496.997511	665.25
1497.516803	663.25
1498.036039	664.0
1498.555221	664.25
1499.074348	663.75
1499.59342	669.75
1500.112438	664.75
1500.6314	663.0
1501.150308	664.0
1501.669161	663.25
1502.18796	665.25
1502.706704	663.5
1503.225393	663.75
1503.744027	663.0
1504.262606	666.0
1504.781131	662.75
1505.299601	664.5
1505.818016	662.5
1506.336377	664.75
1506.854683	663.0
1507.372934	663.75
1507.89113	663.25
1508.409272	665.25
1508.927359	663.0
1509.445391	661.25
1509.963369	662.5
1510.481292	673.5
1510.99916	662.75
1511.516974	665.25
1512.034733	662.75
1512.552437	662.5
1513.070086	663.75
1513.587681	663.0
1514.105221	663.75
1514.622707	665.25
1515.140138	665.25
1515.657514	662.75
1516.174836	662.25
1516.692102	665.75
1517.209315	660.5
1517.726472	662.5
1518.243575	667.0
1518.760624	659.5
1519.277617	663.5
1519.794557	659.75
1520.311441	664.5
1520.828271	664.75
1521.345046	663.25
1521.861767	662.75
1522.378433	664.25
1522.895044	665.5
1523.411601	661.25
1523.928103	664.5
1524.444551	665.5
1524.960944	664.75
1525.477282	663.25
1525.993566	661.75
1526.509795	664.5
1527.02597	662.5
1527.54209	663.25
1528.058156	662.25
1528.574167	663.5
1529.090123	662.75
1529.606025	665.5
1530.121872	663.5
1530.637665	664.0
1531.153403	664.75
1531.669087	664.5
1532.184716	661.5
1532.700291	664.25
1533.215811	664.25
1533.731276	664.0
1534.246687	661.0
1534.762044	660.5
1535.277346	662.0
1535.792593	662.5
1536.307786	663.75
1536.822924	665.75
1537.338008	665.0
1537.853038	663.25
1538.368013	663.0
1538.882933	661.5
1539.397799	663.25
1539.91261	662.5
1540.427367	662.0
1540.94207	664.75
1541.456718	661.0
1541.971311	662.75
1542.48585	663.0
1543.000335	663.75
1543.514765	664.25
1544.029141	662.75
1544.543462	664.0
1545.057729	659.75
1545.571941	663.5
1546.086099	663.0
1546.600202	660.5
1547.114251	661.25
1547.628246	661.25
1548.142186	663.25
1548.656072	663.5
1549.169903	663.75
1549.68368	662.0
1550.197402	664.5
1551.738243	663.0
1552.251748	665.0
1552.765198	661.25
1553.278594	662.75
1553.791936	661.25
1554.305223	665.75
1554.818456	662.25
1555.331634	664.75
1555.844758	664.5
1556.357828	663.0
1556.870843	662.5
1557.383804	662.25
1557.896711	662.25
1558.409563	662.5
1558.922361	665.5
1559.435105	663.0
1559.947794	663.0
1560.460429	661.25
1560.973009	664.75
1561.485535	663.5
1561.998007	661.5
1562.510425	662.5
1563.022788	662.25
1563.535097	663.25
1564.047351	663.75
1564.559551	663.25
1565.071697	664.75
1565.583789	664.25
1566.095826	663.25
1566.607809	661.5
1567.119738	664.5
1567.631612	664.25
1568.143432	662.5
1568.655198	664.75
1569.16691	666.0
1569.678567	661.25
1570.19017	663.0
1570.701719	664.75
1571.213213	659.0
1571.724653	660.5
1572.236039	663.75
1572.747371	662.75
1573.258648	663.25
1573.769871	663.75
1574.28104	664.0
1574.792155	662.75
1575.303215	662.0
1575.814221	662.75
1576.325173	662.25
1576.836071	661.75
1577.346914	662.0
1577.857703	660.75
1578.368438	665.0
1578.879119	663.5
1579.389746	665.25
1579.900318	662.75
1580.410836	661.75
1580.9213	660.25
1581.43171	663.0
1581.942065	666.0
1582.452366	665.25
1582.962614	662.75
1583.472807	663.25
1583.982945	661.25
1584.49303	664.0
1585.00306	663.75
1585.513037	661.0
1586.022959	663.0
1586.532827	660.5
1587.04264	660.75
1587.5524	664.25
1588.062105	661.25
1588.571757	662.5
1589.081354	664.5
1589.590897	661.0
1590.100386	664.0
1590.60982	662.5
1591.119201	659.0
1591.628527	663.5
1592.1378	661.5
