1042.208489	751.5
1042.775002	751.75
1043.341458	747.25
1043.907855	748.0
1044.474195	746.25
1045.040476	744.5
1045.6067	742.5
1046.172866	748.0
1046.738974	744.75
1047.305024	739.75
1047.871015	743.5
1048.436949	743.0
1049.002825	741.25
1049.568644	742.75
1050.134404	738.25
1050.700106	732.25
1051.26575	735.75
1051.831337	745.75
1052.396865	729.25
1052.962336	736.0
1053.527749	733.0
1054.093103	737.5
1054.6584	737.5
1055.223639	735.25
1055.788821	734.25
1056.353944	731.5
1056.919009	736.0
1057.484017	734.25
1058.048967	728.5
1058.613858	733.5
1059.178692	731.75
1059.743468	731.0
1060.308187	734.5
1060.872847	735.0
1061.43745	731.75
1062.001994	728.75
1062.566481	733.5
1063.13091	732.75
1063.695281	736.25
1064.259595	727.5
1064.82385	730.75
1065.388048	724.0
1065.952188	736.25
1066.51627	733.25
1067.080295	731.25
1067.644261	736.25
1068.20817	733.25
1068.772021	731.5
1069.335814	733.0
1069.899549	737.75
1070.463227	727.25
1071.026847	728.75
1071.590409	728.5
1072.153913	736.5
1072.717359	732.25
1073.280748	733.75
1073.844079	731.5
1074.407352	730.75
1074.970568	732.5
1075.533726	731.0
1076.096826	731.25
1076.659868	734.5
1077.222853	729.25
1077.785779	726.75
1078.348648	730.5
1078.91146	724.5
1079.474214	730.0
1080.036909	736.25
1080.599548	730.25
1081.162128	732.5
1081.724651	730.5
1082.287116	733.25
1082.849524	735.25
1083.411873	728.25
1083.974165	734.0
1084.5364	731.5
1085.098577	732.75
1085.660696	729.0
1086.222757	731.25
1086.784761	728.25
1087.346707	732.0
1087.908595	731.25
1088.470426	724.0
1089.032199	727.25
1089.593914	729.5
1090.155572	723.0
1090.717172	734.25
1091.278715	740.25
1091.8402	732.25
1092.401627	728.25
1092.962997	734.25
1093.524309	735.25
1094.085563	733.0
1094.64676	727.5
1095.768981	731.25
1096.330005	730.75
1096.890971	740.0
1097.45188	732.0
1098.012732	732.75
1098.573525	729.25
1099.134261	737.25
1099.69494	726.25
1100.255561	733.25
1100.816124	727.25
1101.37663	727.5
1101.937078	728.75
1102.497469	732.5
1103.057802	729.5
1103.618078	732.25
1104.178296	726.75
1104.738456	729.0
1105.298559	729.0
1105.858605	730.5
1106.418593	730.25
1106.978523	730.75
1107.538396	726.5
1108.098212	732.0
1108.657969	731.25
1109.21767	733.25
1109.777313	735.25
1110.336898	731.0
1110.896426	729.25
1111.455896	730.25
1112.015309	725.25
1112.574665	735.25
1113.133963	727.75
1113.693203	731.0
1114.252386	731.0
1114.811512	731.0
1115.37058	731.0
1115.92959	736.5
1116.488544	731.75
1117.047439	729.5
1117.606278	733.25
1118.165058	731.5
1118.723782	729.0
1119.282448	733.25
1119.841056	732.25
1120.399607	730.0
1120.958101	728.75
1121.516537	728.75
1122.074916	730.75
1122.633237	729.25
1123.191501	728.75
1123.749708	730.5
1124.307857	734.5
1124.865949	732.25
1125.423984	731.5
1125.981961	730.0
1126.53988	732.5
1127.097742	731.5
1127.655547	728.5
1128.213295	736.5
1128.770985	728.25
1129.328618	732.25
1129.886193	730.0
1130.443711	734.75
1131.001172	731.0
1131.558575	734.25
1132.115921	730.5
1132.67321	732.0
1133.230441	730.75
1133.787615	735.0
1134.344732	727.5
1134.901792	728.75
1135.458794	733.25
1136.015738	728.75
1136.572626	732.25
1137.129456	736.5
1137.686229	729.5
1138.242944	729.0
1138.799602	734.0
1139.356203	732.0
1139.912747	731.25
1140.469233	729.5
1141.025662	733.0
1141.582034	731.5
1142.138348	733.75
1142.694606	732.75
1143.250806	732.75
1143.806948	731.5
1144.363034	727.5
1144.919062	732.25
1145.475033	738.5
1146.030946	737.0
1146.586803	733.0
1147.142602	736.0
1147.698344	729.75
1148.254029	731.0
1148.809656	734.25
1149.365227	734.25
1149.92074	734.25
1150.476195	736.0
1151.031594	731.5
1151.586936	736.0
1152.14222	731.5
1152.697447	734.0
1153.252617	738.25
1153.807729	730.0
1154.362785	740.25
1154.917783	733.0
1155.472724	733.25
1156.027608	735.75
1156.582435	735.0
1157.137204	729.75
1157.691917	737.25
1158.246572	731.5
1158.80117	735.25
1159.355711	735.75
1159.910195	736.75
1160.464621	735.75
1161.018991	732.0
1161.573303	731.5
1162.127558	735.75
1162.681756	731.0
1163.235897	733.5
1163.789981	735.75
1164.344008	731.25
1164.897978	736.25
1165.45189	731.75
1166.005745	736.75
1166.559544	739.25
1167.113285	740.25
1167.666969	731.0
1168.220596	728.5
1168.774166	731.5
1169.327679	731.5
1169.881135	730.5
1170.434533	736.0
1170.987875	733.0
1171.541159	736.0
1172.094387	736.75
1172.647557	736.5
1173.200671	736.25
1173.753727	732.25
1174.306726	734.25
1174.859668	736.75
1175.412554	736.0
1175.965382	737.75
1176.518153	738.0
1177.070867	738.0
1177.623524	731.75
1178.176124	737.25
1178.728667	732.0
1179.281153	737.0
1179.833582	727.75
1180.385954	733.0
1180.938269	731.75
1181.490527	731.25
1182.042728	733.25
1182.594872	732.0
1183.146959	732.75
1183.698989	733.75
1184.250962	730.0
1184.802878	739.5
1185.354737	738.25
1185.906539	732.25
1186.458285	728.25
1187.009973	736.25
1187.561604	732.0
1188.113178	735.0
1188.664696	735.0
1189.216156	733.75
1189.76756	731.25
1190.318906	742.75
1190.870196	738.25
1191.421429	738.0
1191.972604	731.25
1192.523723	735.5
1193.074785	759.5
1193.62579	739.0
1194.176738	731.0
1194.727629	731.5
1195.278464	737.0
1195.829241	733.75
1196.379962	735.25
1196.930625	736.75
1197.481232	741.0
1198.031782	734.0
1198.582275	732.75
1199.132711	732.0
1199.68309	738.25
1200.233413	729.0
1200.783678	735.0
1201.333887	731.5
1201.884039	730.25
1202.434134	737.75
1202.984172	731.0
1203.534153	733.0
1204.084077	732.75
1204.633945	737.0
1205.183756	734.75
1205.73351	736.75
1206.283207	737.0
1206.832847	729.5
1207.38243	730.5
1207.931957	733.5
1208.481427	735.5
1209.03084	733.25
1209.580196	738.25
1210.129496	732.0
1210.678738	736.0
1211.227924	735.75
1211.777053	736.5
1212.326126	735.25
1212.875141	738.5
1213.4241	737.5
1213.973002	737.75
1214.521847	737.5
1215.070636	731.0
1215.619367	734.0
1216.168042	735.0
1216.71666	733.0
1217.265222	736.25
1217.813726	735.5
1218.362174	735.5
1218.910566	733.25
1219.4589	734.75
1220.007178	742.25
1220.555399	735.75
1221.103563	740.75
1221.651671	743.5
1222.199722	729.25
1222.747716	734.25
1223.295653	733.0
1223.843534	733.75
1224.391358	733.0
1224.939126	736.25
1225.486836	736.0
1226.03449	733.25
1226.582088	738.0
1227.129628	735.75
1227.677112	734.75
1228.22454	734.0
1228.77191	741.0
1229.319224	736.0
1229.866482	737.0
1230.413682	734.0
1230.960826	736.25
1231.507914	737.5
1232.054945	739.5
1232.601919	732.25
1233.148836	740.0
1233.695697	736.5
1234.242501	733.75
1234.789249	736.75
1235.33594	733.75
1235.882574	737.75
1236.429152	737.75
1236.975673	734.5
1237.522138	736.25
1238.068545	735.75
1238.614897	734.5
1239.161191	740.5
1239.70743	734.5
1240.253611	732.75
1240.799736	737.0
1241.345805	739.75
1241.891816	735.5
1242.437772	736.0
1242.98367	740.0
1243.529512	738.75
1244.075298	736.5
1244.621027	735.5
1245.1667	736.0
1245.712315	740.5
1246.257875	739.5
1246.803378	735.5
1247.348824	742.25
1247.894214	741.0
1248.439547	740.75
1248.984824	741.75
1249.530044	740.0
1250.075208	738.25
1250.620315	736.5
1251.165365	734.75
1251.71036	737.25
1252.255297	734.0
1252.800178	738.75
1253.345003	741.0
1253.889771	739.0
1254.434483	741.5
1254.979138	731.0
1255.523737	738.75
1256.068279	745.0
1256.612765	739.0
1257.157194	738.0
1257.701567	742.75
1258.245884	742.0
1258.790143	740.75
1259.334347	746.75
1259.878494	743.5
1260.422585	736.75
1260.966619	744.0
1261.510596	742.0
1262.054518	742.0
1262.598383	755.75
1263.142191	747.75
1263.685943	752.75
1264.229639	755.25
1264.773278	752.75
1265.316861	747.25
1265.860387	740.5
1266.403857	744.75
1266.947271	744.0
1267.490628	745.5
1268.033929	736.0
1268.577173	740.25
1269.120361	738.0
1269.663493	739.0
1270.206568	740.0
1270.749587	742.75
1271.292549	741.75
1271.835456	743.5
1272.378305	743.75
1272.921099	744.25
1273.463836	744.5
1274.006517	739.5
1274.549141	737.75
1275.091709	745.5
1275.634221	750.5
1276.176676	743.75
1276.719075	740.25
1277.261418	743.25
1277.803704	746.25
1278.345935	737.5
1278.888108	740.0
1279.430226	750.5
1279.972287	752.0
1280.514292	753.0
1281.05624	753.25
1281.598133	765.5
1282.139969	780.25
1282.681748	805.0
1283.223472	859.5
1283.765139	913.75
1284.30675	921.5
1284.848304	867.0
1285.389803	813.75
1285.931245	774.75
1286.472631	761.0
1287.01396	756.0
1287.555233	750.75
1288.09645	743.75
1288.637611	744.75
1289.178716	742.5
1289.719764	747.25
1290.260756	745.0
1290.801692	750.0
1291.342572	747.0
1291.883395	743.75
1292.424162	741.0
1292.964873	749.25
1293.505528	748.75
1294.046126	743.25
1294.586669	744.25
1295.127155	741.5
1295.667585	745.5
1296.207958	742.25
1296.748276	742.5
1297.288537	744.75
1297.828743	745.75
1298.368892	747.0
1298.908984	747.25
1299.449021	746.0
1299.989002	747.75
1300.528926	741.75
1301.068794	748.75
1301.608606	741.75
1302.148362	745.25
1302.688062	745.0
1303.227705	739.75
1303.767293	743.75
1304.306824	749.25
1304.846299	745.75
1305.385718	740.0
1305.925081	747.75
1306.464388	749.25
1307.003639	746.25
1307.542833	741.75
1308.081972	743.0
1308.621054	742.25
1309.16008	742.5
1309.699051	741.25
1310.237965	738.0
1310.776823	742.5
1311.315625	743.75
1311.85437	737.25
1312.39306	747.5
1312.931694	740.0
1313.470271	737.5
1314.008793	737.75
1314.547258	743.0
1315.085668	739.75
1315.624021	737.5
1316.162318	740.25
1316.70056	742.0
1317.238745	746.25
1317.776874	731.5
1318.314947	740.0
1318.852964	741.25
1319.390925	744.0
1319.92883	740.25
1320.466679	744.5
1321.004472	742.25
1321.542209	746.0
1322.07989	740.5
1322.617515	742.75
1323.155084	737.0
1323.692597	744.25
1324.230054	743.5
1324.767455	748.75
1325.3048	743.0
1325.842089	741.0
1326.379322	741.25
1326.916499	741.75
1327.45362	739.25
1327.990685	743.5
1328.527694	740.5
1329.064647	735.5
1329.601544	741.75
1330.138386	742.5
1330.675171	736.25
1331.2119	744.5
1331.748574	739.0
1332.285191	740.25
1332.821753	746.25
1333.358258	742.0
1333.894708	744.0
1334.431102	743.75
1334.967439	741.5
1335.503721	737.75
1336.039947	732.5
1336.576117	739.75
1337.112232	734.75
1337.64829	738.0
1338.184292	743.5
1338.720239	739.25
1339.256129	737.75
1339.791964	740.25
1340.327743	739.25
1340.863466	739.0
1341.399133	733.5
1341.934744	740.0
1342.470299	739.5
1343.005799	743.5
1343.541243	739.0
1344.07663	741.5
1344.611962	742.5
1345.147238	743.75
1345.682458	741.25
1346.217623	743.75
1346.752731	739.75
1347.287784	738.0
1347.822781	743.0
1348.357722	737.75
1348.892607	746.5
1349.427437	743.5
1349.96221	738.25
1350.496928	740.25
1351.03159	745.25
1351.566196	743.0
1352.100746	744.0
1352.635241	744.5
1353.16968	737.0
1353.704063	745.0
1354.23839	746.0
1354.772661	741.5
1355.306877	740.25
1355.841037	744.0
1356.375141	740.5
1356.909189	735.75
1357.443182	746.5
1357.977118	742.75
1358.510999	746.0
1359.044825	738.5
1359.578594	737.0
1360.112308	743.75
1360.645966	743.0
1361.179568	739.0
1361.713115	742.25
1362.246606	742.25
1362.780041	742.75
1363.31342	746.0
1363.846744	745.25
1364.380012	736.75
1364.913224	743.0
1365.446381	745.5
1365.979482	740.0
1366.512527	747.75
1367.045516	741.5
1367.57845	741.25
1368.111328	743.0
1368.644151	739.0
1369.176917	745.25
1369.709628	747.0
1370.242284	753.0
1370.774884	746.5
1371.307428	748.25
1371.839916	742.25
1372.372349	742.0
1372.904726	746.25
1373.437047	745.25
1373.969313	744.75
1374.501523	744.75
1375.033678	749.5
1375.565776	737.5
1376.09782	749.0
1376.629807	741.5
1377.161739	741.5
1377.693615	740.75
1378.225436	741.25
1378.757201	743.75
1379.288911	738.75
1379.820565	747.75
1380.352163	746.0
1380.883706	741.75
1381.415193	755.0
1381.946624	748.75
1382.478	747.5
1383.009321	747.0
1383.540585	752.0
1384.071795	751.5
1384.602948	758.25
1385.134046	761.75
1385.665089	763.75
1386.196076	784.25
1386.727007	824.5
1387.257883	899.75
1387.788703	1076.5
1388.319468	1116.25
1388.850177	956.75
1389.38083	833.0
1389.911429	785.25
1390.441971	765.75
1390.972458	755.75
1391.50289	750.0
1392.033266	745.0
1392.563586	745.5
1393.093851	749.0
1393.624061	750.0
1394.154214	744.5
1394.684313	743.25
1395.214356	749.0
1395.744343	745.5
1396.274275	746.75
1396.804152	748.0
1397.333973	748.75
1397.863738	747.75
1398.393448	745.75
1398.923103	747.25
1399.452702	742.0
1399.982246	745.5
1400.511734	740.5
1401.041167	748.0
1401.570544	743.5
1402.099866	748.5
1402.629132	745.0
1403.158343	741.75
1403.687498	743.5
1404.216598	742.0
1404.745643	746.5
1405.274632	750.5
1405.803566	746.75
1406.332444	742.5
1406.861267	748.75
1407.390035	748.25
1407.918747	753.25
1408.447404	754.25
1408.976005	758.75
1409.504551	761.75
1410.033041	755.5
1410.561476	755.5
1411.089856	752.25
1411.618181	751.25
1412.14645	747.25
1412.674663	747.5
1413.202821	744.0
1413.730924	746.0
1414.258972	745.75
1414.786964	750.25
1415.314901	755.5
1415.842782	742.0
1416.370608	743.0
1416.898379	743.75
1417.426094	739.5
1417.953754	740.0
1418.481359	743.5
1419.008908	743.25
1419.536402	740.0
1420.063841	741.75
1420.591225	743.0
1421.118553	743.25
1421.645826	746.75
1422.173043	744.25
1422.700205	748.0
1423.227312	740.75
1423.754364	747.0
1424.28136	746.25
1424.808301	747.0
1425.335187	738.0
1425.862017	740.75
1426.388792	739.5
1426.915512	738.75
1427.442177	736.25
1427.968786	744.5
1428.49534	740.0
1429.021839	742.0
1429.548282	741.5
1430.074671	737.0
1430.601004	735.75
1431.127281	738.25
1431.653504	746.25
1432.179671	737.5
1432.705783	737.75
1433.23184	742.5
1433.757842	744.0
1434.283788	742.25
1434.809679	738.5
1435.335515	745.5
1435.861296	746.25
1436.387022	745.25
1436.912692	742.75
1437.438307	741.75
1437.963867	744.0
1438.489372	743.5
1439.014821	741.25
1439.540216	740.75
1440.065555	742.75
1440.590839	742.25
1441.116068	737.25
1441.641241	736.25
1442.16636	739.75
1442.691423	741.75
1443.216431	741.0
1443.741384	735.25
1444.266282	739.25
1444.791125	739.5
1445.315912	749.25
1445.840645	743.25
1446.365322	739.0
1446.889944	741.5
1447.414511	745.75
1447.939023	744.25
1448.463479	739.0
1448.987881	747.5
1449.512228	739.75
1450.036519	741.25
1450.560755	744.0
1451.084936	742.0
1451.609062	736.5
1452.133133	745.75
1452.657149	745.25
1453.18111	740.25
1453.705016	735.5
1454.228866	743.25
1454.752662	741.75
1455.276402	739.75
1455.800088	746.0
1456.323718	739.5
1456.847293	738.0
1457.370813	741.5
1457.894278	743.0
1458.417689	744.5
1458.941044	742.5
1459.464344	739.0
1459.987588	742.25
1460.510778	747.0
1461.033913	734.75
1461.556993	741.25
1462.080018	734.5
1462.602987	742.0
1463.125902	737.5
1463.648762	739.75
1464.171567	741.75
1464.694316	733.25
1465.217011	740.0
1465.739651	745.0
1466.262235	737.25
1466.784765	741.75
1467.30724	740.0
1467.829659	741.5
1468.352024	739.0
1468.874334	738.25
1469.396589	741.25
1469.918788	742.5
1470.440933	740.25
1470.963023	738.0
1471.485058	739.5
1472.007038	738.0
1472.528963	741.5
1473.050833	737.5
1473.572648	737.75
1474.094408	739.75
1474.616113	744.25
1475.137763	737.25
1475.659358	737.25
1476.180899	741.0
1476.702384	741.0
1477.223815	735.25
1477.74519	740.25
1478.266511	742.25
1478.787777	739.5
1479.308988	736.25
1479.830144	736.0
1480.351245	737.0
1480.872291	731.25
1481.393282	739.5
1481.914218	743.5
1482.4351	736.75
1482.955926	737.5
1483.476698	732.25
1483.997415	739.0
1484.518077	739.0
1485.038684	743.0
1485.559236	738.5
1486.079734	737.25
1486.600176	743.75
1487.120564	742.75
1487.640896	741.75
1488.161174	736.5
1488.681398	740.0
1489.201566	737.5
1489.721679	737.75
1490.241738	735.75
1490.761742	735.25
1491.281691	734.25
1491.801585	737.75
1492.321424	738.75
1492.841208	739.5
1493.360938	737.25
1493.880613	742.75
1494.400233	740.75
1494.919798	739.0
1495.439309	740.0
1495.958764	745.0
1496.478165	736.5
1496.997511	738.5
1497.516803	738.0
1498.036039	734.5
1498.555221	733.75
1499.074348	738.25
1499.59342	748.75
1500.112438	733.0
1500.6314	733.75
1501.150308	736.5
1501.669161	740.75
1502.18796	740.0
1502.706704	736.5
1503.225393	734.5
1503.744027	736.5
1504.262606	738.5
1504.781131	736.25
1505.299601	736.25
1505.818016	735.5
1506.336377	735.5
1506.854683	744.5
1507.372934	736.5
1507.89113	736.5
1508.409272	737.75
1508.927359	734.0
1509.445391	738.5
1509.963369	737.0
1510.481292	748.25
1510.99916	736.5
1511.516974	733.25
1512.034733	738.75
1512.552437	736.75
1513.070086	736.25
1513.587681	733.25
1514.105221	736.75
1514.622707	733.5
1515.140138	739.5
1515.657514	738.75
1516.174836	736.5
1516.692102	737.25
1517.209315	732.25
1517.726472	734.25
1518.243575	737.25
1518.760624	733.75
1519.277617	734.25
1519.794557	735.75
1520.311441	738.25
1520.828271	736.5
1521.345046	736.25
1521.861767	737.25
1522.378433	731.5
1522.895044	730.5
1523.411601	734.5
1523.928103	738.0
1524.444551	739.25
1524.960944	737.25
1525.477282	734.75
1525.993566	740.0
1526.509795	731.25
1527.02597	731.5
1527.54209	738.75
1528.058156	733.75
1528.574167	736.0
1529.090123	731.75
1529.606025	733.25
1530.121872	734.75
1530.637665	741.25
1531.153403	739.5
1531.669087	732.5
1532.184716	731.75
1532.700291	736.25
1533.215811	741.5
1533.731276	734.0
1534.246687	739.5
1534.762044	738.75
1535.277346	738.5
1535.792593	736.5
1536.307786	741.25
1536.822924	734.75
1537.338008	741.0
1537.853038	745.5
1538.368013	736.75
1538.882933	734.25
1539.397799	734.0
1539.91261	736.0
1540.427367	732.25
1540.94207	738.0
1541.456718	735.25
1541.971311	737.25
1542.48585	734.5
1543.000335	736.25
1543.514765	738.75
1544.029141	727.0
1544.543462	739.25
1545.057729	741.25
1545.571941	735.5
1546.086099	734.75
1546.600202	737.0
1547.114251	742.5
1547.628246	739.5
1548.142186	739.0
1548.656072	734.25
1549.169903	729.5
1549.68368	740.25
1550.197402	737.75
1550.71107	742.25
1551.224684	737.75
1551.738243	737.5
1552.251748	737.25
1552.765198	736.0
1553.278594	732.25
1553.791936	737.25
1554.305223	735.25
1554.818456	730.75
1555.331634	737.5
1555.844758	737.25
1556.357828	738.0
1556.870843	736.25
1557.383804	737.0
1557.896711	736.5
1558.409563	741.5
1558.922361	736.25
1559.435105	734.25
1559.947794	736.5
1560.460429	733.5
1560.973009	734.5
1561.485535	737.5
1561.998007	736.5
1562.510425	740.0
1563.022788	738.25
1563.535097	739.75
1564.047351	737.5
1564.559551	742.0
1565.071697	737.0
1565.583789	737.75
1566.095826	741.0
1566.607809	736.5
1567.119738	743.0
1567.631612	748.75
1568.143432	741.5
1568.655198	738.25
1569.16691	741.0
1569.678567	738.0
1570.19017	738.25
1570.701719	736.75
1571.213213	736.75
1571.724653	736.5
1572.236039	738.5
1572.747371	739.5
1573.258648	742.5
1573.769871	739.0
1574.28104	743.0
1574.792155	733.25
1575.303215	743.25
1575.814221	739.0
1576.325173	741.75
1576.836071	743.75
1577.346914	741.25
1577.857703	737.0
1578.368438	746.0
1578.879119	743.5
1579.389746	740.0
1579.900318	742.25
1580.410836	738.5
1580.9213	737.25
1581.43171	743.5
1581.942065	741.0
1582.452366	736.25
1582.962614	736.5
1583.472807	744.25
1583.982945	740.0
1584.49303	743.75
1585.00306	739.75
1585.513037	737.0
1586.022959	737.25
1586.532827	736.75
1587.04264	736.75
1587.5524	742.75
1588.062105	741.0
1588.571757	740.25
1589.081354	736.25
1589.590897	740.75
1590.100386	740.0
1590.60982	738.0
1591.119201	729.25
1591.628527	738.25
1592.1378	735.25
