-316.6723941	664.0
-311.5109955	663.0
-306.3524099	660.0
-301.1966354	663.0
-296.0436702	660.0
-290.8935123	662.0
-285.7461598	658.0
-280.6016108	658.0
-275.4598635	660.0
-270.3209159	658.0
-265.1847661	662.0
-260.0514122	655.0
-254.9208523	659.0
-249.7930845	657.0
-244.6681069	654.0
-239.5459176	661.0
-234.4265147	658.0
-229.3098962	661.0
-224.1960603	662.0
-219.085005	655.0
-213.9767285	660.0
-208.8712287	658.0
-203.7685039	661.0
-198.668552	659.0
-193.5713712	657.0
-188.4769595	656.0
-183.3853151	658.0
-178.2964359	655.0
-173.2103202	652.0
-168.1269659	659.0
-163.0463711	658.0
-157.968534	660.0
-152.8934526	659.0
-147.8211249	658.0
-142.7515491	660.0
-137.6847231	659.0
-132.6206452	658.0
-127.5593134	658.0
-122.5007256	658.0
-117.4448801	662.0
-112.3917749	656.0
-107.341408	657.0
-102.2937775	661.0
-97.24888152	656.0
-92.20671808	655.0
-87.16728526	660.0
-82.13058113	655.0
-77.09660375	661.0
-72.06535119	660.0
-67.03682152	661.0
-62.01101279	656.0
-56.98792308	659.0
-51.96755045	656.0
-46.94989295	651.0
-41.93494866	659.0
-36.92271564	656.0
-31.91319194	655.0
-26.90637563	654.0
-21.90226477	655.0
-16.90085743	659.0
-11.90215165	661.0
-6.906145501	762.0
8.065694562	782.0
13.05092159	665.0
18.0334587	658.0
23.01330783	661.0
27.99047091	659.0
32.9649499	662.0
37.93674674	655.0
42.90586336	660.0
47.87230171	660.0
52.83606375	661.0
57.7971514	706.0
62.75556661	1005.0
77.61479709	1504.0
82.56254201	1353.0
87.50762421	1217.0
92.45004565	1135.0
97.38980827	1079.0
102.326914	1026.0
107.2613648	981.0
112.1931626	929.0
117.1223094	889.0
122.0488071	883.0
126.9726577	891.0
131.893863	854.0
136.8124251	856.0
141.7283459	858.0
146.6416273	857.0
151.5522712	852.0
156.4602798	844.0
161.3656548	840.0
166.2683982	837.0
171.1685119	828.0
176.065998	819.0
180.9608584	827.0
185.8530949	814.0
190.7427096	824.0
195.6297044	825.0
200.5140812	821.0
205.395842	829.0
210.2749887	832.0
215.1515233	814.0
220.0254477	815.0
224.8967639	839.0
229.7654738	826.0
234.6315793	818.0
239.4950825	814.0
244.3559852	810.0
249.2142893	806.0
254.0699969	810.0
258.9231099	807.0
263.7736301	793.0
268.6215596	804.0
273.4669004	807.0
278.3096542	819.0
283.1498232	834.0
287.9874091	859.0
292.8224141	892.0
297.6548399	923.0
302.4846886	930.0
307.3119621	920.0
312.1366623	943.0
316.9587911	935.0
321.7783506	896.0
326.5953426	849.0
331.4097691	840.0
336.2216321	841.0
341.0309333	826.0
345.8376749	803.0
350.6418587	804.0
355.4434867	805.0
360.2425608	811.0
365.039083	794.0
369.8330551	797.0
374.6244791	782.0
379.413357	784.0
384.1996907	791.0
388.983482	788.0
393.7647331	794.0
398.5434457	814.0
403.3196218	824.0
408.0932633	836.0
412.8643723	850.0
417.6329505	867.0
422.399	876.0
427.1625226	849.0
431.9235204	807.0
436.6819951	791.0
441.4379488	796.0
446.1913834	787.0
450.9423008	773.0
455.6907029	783.0
460.4365917	784.0
465.179969	789.0
469.9208369	789.0
474.6591971	782.0
479.3950517	778.0
484.1284026	791.0
488.8592517	782.0
493.5876009	793.0
498.3134521	788.0
503.0368073	801.0
507.7576683	775.0
512.4760371	786.0
517.1919157	789.0
521.9053058	799.0
526.6162095	811.0
531.3246287	832.0
540.7340209	836.0
545.4349979	824.0
550.133498	797.0
554.8295231	806.0
559.5230752	823.0
564.214156	825.0
578.2725907	855.0
582.953806	863.0
587.6325597	853.0
592.3088537	884.0
596.9826898	899.0
601.65407	904.0
606.3229962	892.0
610.9894703	848.0
615.6534942	838.0
620.3150698	819.0
624.974199	813.0
629.6308836	812.0
634.2851257	812.0
638.936927	844.0
643.5862895	846.0
648.2332151	847.0
652.8777056	898.0
657.519763	901.0
662.1593892	929.0
666.7965859	941.0
671.4313553	951.0
676.063699	938.0
680.6936191	915.0
685.3211173	910.0
689.9461956	842.0
694.5688559	845.0
699.1891001	826.0
703.8069299	828.0
708.4223474	810.0
713.0353544	797.0
717.6459528	784.0
722.2541444	787.0
726.8599311	772.0
731.4633149	796.0
736.0642976	779.0
740.662881	781.0
745.259067	772.0
749.8528576	773.0
754.4442546	781.0
759.0332598	775.0
763.6198751	772.0
768.2041024	775.0
772.7859436	792.0
777.3654005	800.0
781.942475	787.0
786.5171689	818.0
791.0894842	830.0
795.6594226	859.0
800.2269861	909.0
804.7921765	1015.0
809.3549957	1243.0
813.9154455	1717.0
827.5825971	1849.0
841.2284911	1484.0
845.7724071	1797.0
850.3139686	2049.0
854.8531774	2039.0
859.3900353	1656.0
863.9245442	1281.0
868.4567059	1069.0
872.9865223	962.0
877.5139952	913.0
882.0391264	879.0
886.5619179	835.0
891.0823713	814.0
895.6004886	804.0
900.1162717	807.0
904.6297222	808.0
909.1408421	827.0
913.6496333	863.0
918.1560974	850.0
922.6602364	827.0
927.1620521	809.0
931.6615463	801.0
936.1587209	803.0
940.6535776	851.0
945.1461183	870.0
949.6363448	906.0
954.1242589	911.0
963.0931573	875.0
967.5741453	864.0
972.0528281	841.0
976.5292076	805.0
981.0032857	808.0
985.4750641	798.0
989.9445447	773.0
994.4117292	786.0
998.8766194	768.0
1003.339217	780.0
1007.799524	770.0
1012.257543	758.0
1016.713274	770.0
1021.16672	760.0
1025.617883	751.0
1030.066764	760.0
1034.513366	761.0
1038.957689	769.0
1043.399736	760.0
1047.839508	773.0
1052.277008	754.0
1056.712237	768.0
1061.145197	763.0
1065.57589	762.0
1070.004317	771.0
1074.430481	797.0
1078.854382	819.0
1083.276024	845.0
1087.695407	894.0
1092.112533	909.0
1096.527405	873.0
1100.940023	822.0
1105.350391	777.0
1109.758509	758.0
1114.164379	764.0
1118.568003	739.0
1122.969383	742.0
1127.368521	760.0
1131.765418	751.0
1136.160076	747.0
1140.552497	744.0
1144.942682	736.0
1149.330634	751.0
1153.716354	750.0
1158.099845	745.0
1162.481106	759.0
1166.860142	749.0
1171.236952	750.0
1175.611539	749.0
1179.983905	753.0
1184.354052	749.0
1188.72198	746.0
1193.087693	762.0
1197.451191	749.0
1201.812477	755.0
1206.171552	757.0
1210.528417	758.0
1214.883076	751.0
1219.235529	743.0
1223.585777	746.0
1227.933824	758.0
1232.27967	751.0
1236.623318	756.0
1240.964769	755.0
1245.304024	762.0
1249.641086	754.0
1253.975956	763.0
1258.308636	759.0
1262.639128	779.0
1266.967433	775.0
1271.293553	767.0
1275.61749	785.0
1279.939245	889.0
1284.258821	967.0
1288.576219	823.0
1292.89144	762.0
1297.204487	762.0
1301.51536	748.0
1305.824063	767.0
1310.130596	768.0
1314.434961	755.0
1318.737161	757.0
1323.037195	764.0
1327.335067	752.0
1331.630779	756.0
1335.92433	764.0
1340.215725	751.0
1344.504963	760.0
1348.792047	763.0
1353.076978	757.0
1357.359759	748.0
1361.64039	759.0
1365.918874	757.0
1370.195212	766.0
1374.469406	759.0
1378.741458	795.0
1383.011369	940.0
1387.279141	1133.0
1391.544775	877.0
1400.069638	782.0
1404.32887	775.0
1408.585972	792.0
1412.840944	764.0
1417.093789	761.0
1421.344508	766.0
1425.593103	752.0
1429.839576	752.0
1434.083928	746.0
1438.326161	746.0
1442.566276	741.0
1446.804276	743.0
1451.040161	740.0
1455.273934	750.0
1459.505596	753.0
1463.735149	741.0
1467.962595	738.0
1472.187935	737.0
1476.41117	742.0
1480.632303	744.0
1484.851334	730.0
1489.068267	736.0
1493.283101	745.0
1497.49584	746.0
1501.706484	740.0
1505.915036	748.0
1510.121496	748.0
1514.325866	736.0
1518.528149	740.0
1522.728346	756.0
1531.122486	748.0
1535.316433	727.0
1539.508301	739.0
1543.69809	740.0
1547.885803	732.0
1552.071441	721.0
1556.255005	738.0
1560.436498	734.0
1564.61592	743.0
1568.793274	739.0
1572.968561	736.0
1577.141783	740.0
1581.312941	738.0
1585.482037	738.0
1589.649072	736.0
1593.814048	739.0
1597.976967	731.0
1602.137831	736.0
1606.29664	740.0
1610.453396	731.0
1614.608102	730.0
1618.760758	736.0
1622.911367	723.0
1627.059929	740.0
1631.206446	737.0
1635.350921	730.0
1639.493354	734.0
1643.633747	728.0
1647.772102	732.0
1651.90842	738.0
1656.042702	741.0
1660.174952	739.0
1664.305169	726.0
1668.433355	733.0
1672.559513	722.0
1676.683643	735.0
1680.805748	732.0
1684.925828	727.0
1689.043886	727.0
1693.159923	736.0
1697.27394	730.0
1701.385938	725.0
1705.495921	737.0
1709.603888	730.0
1713.709843	730.0
1717.813785	710.0
1721.915717	731.0
1726.01564	739.0
1730.113557	731.0
1734.209467	724.0
1738.303373	731.0
1742.395277	743.0
1746.48518	732.0
1750.573083	734.0
1754.658988	738.0
1758.742897	723.0
1762.824811	729.0
1766.904731	728.0
1770.98266	731.0
1775.058598	740.0
1779.132547	742.0
1783.204509	735.0
1787.274485	727.0
1791.342477	721.0
1795.408486	735.0
1799.472514	718.0
1803.534562	730.0
1807.594632	730.0
1811.652725	736.0
1815.708843	732.0
1819.762987	727.0
1823.815159	718.0
1827.86536	728.0
1831.913592	729.0
1835.959856	722.0
1840.004154	726.0
1844.046487	720.0
1848.086857	734.0
1852.125265	722.0
1856.161713	724.0
1860.196202	718.0
1864.228734	718.0
1868.25931	720.0
1872.287932	730.0
1876.3146	732.0
1880.339318	721.0
1884.362085	719.0
1888.382904	727.0
1892.401776	721.0
1896.418703	728.0
1900.433685	721.0
1904.446725	726.0
1908.457824	731.0
1912.466983	726.0
1916.474204	725.0
1920.479489	721.0
1924.482838	719.0
1928.484253	720.0
1932.483736	727.0
1936.481288	733.0
1940.476911	714.0
1944.470606	727.0
1948.462374	721.0
1952.452217	733.0
1956.440136	721.0
1960.426134	723.0
1964.41021	719.0
1968.392367	727.0
1972.372607	727.0
1976.350929	719.0
1980.327337	720.0
1984.301832	719.0
1988.274414	724.0
1992.245085	734.0
1996.213848	715.0
2000.180702	720.0
2004.14565	729.0
2008.108693	712.0
2012.069832	719.0
2016.029069	724.0
2019.986406	727.0
2023.941843	726.0
2027.895382	720.0
2031.847025	720.0
2035.796772	718.0
2039.744626	714.0
2043.690588	725.0
2047.634659	713.0
2051.57684	730.0
2055.517134	723.0
2059.45554	718.0
2063.392062	724.0
2067.326699	730.0
2071.259454	720.0
2075.190328	716.0
2079.119323	723.0
2083.046439	720.0
2086.971678	723.0
2090.895041	723.0
2094.816531	721.0
2098.736148	715.0
2102.653893	726.0
2106.569769	720.0
2110.483776	728.0
2114.395915	723.0
2118.306189	708.0
2122.214599	713.0
2126.121145	710.0
2130.025829	719.0
2133.928654	724.0
2137.829619	718.0
2141.728726	720.0
2145.625978	715.0
2149.521374	715.0
2153.414917	717.0
2157.306608	713.0
2161.196448	725.0
2165.084439	721.0
2168.970581	722.0
2172.854877	732.0
2176.737327	719.0
2180.617933	722.0
2184.496697	721.0
2188.373619	726.0
2192.248701	720.0
2196.121944	724.0
2199.993351	717.0
2203.862921	716.0
2207.730656	722.0
2211.596558	719.0
2215.460629	715.0
2219.322868	715.0
2223.183279	718.0
2227.041861	723.0
2230.898616	716.0
2234.753547	711.0
2238.606653	714.0
2242.457937	720.0
2246.307399	710.0
2250.155041	723.0
2254.000864	709.0
2257.84487	707.0
2261.68706	711.0
2265.527435	709.0
2269.365997	723.0
2273.202747	713.0
2277.037685	716.0
2280.870814	715.0
2284.702135	718.0
2288.531649	712.0
2292.359358	706.0
2296.185261	715.0
2300.009362	712.0
2303.831662	710.0
2307.65216	718.0
2311.47086	720.0
2315.287761	710.0
2319.102867	715.0
2322.916176	715.0
2326.727692	725.0
2330.537415	712.0
2334.345347	717.0
2338.151489	718.0
2341.955841	706.0
2345.758406	723.0
2349.559185	717.0
2353.358179	713.0
2357.155389	721.0
2360.950816	719.0
2364.744462	718.0
2368.536329	705.0
2372.326416	718.0
2376.114727	709.0
2379.901261	709.0
2383.68602	718.0
2387.469005	712.0
2391.250218	723.0
2395.029661	715.0
2398.807333	716.0
2402.583236	724.0
2406.357373	720.0
2410.129743	717.0
2413.900348	711.0
2417.66919	712.0
2421.436269	729.0
2425.201587	727.0
2428.965146	720.0
2432.726946	717.0
2436.486988	723.0
2440.245274	720.0
2444.001806	709.0
2447.756583	716.0
2451.509609	719.0
2455.260883	711.0
2459.010407	715.0
2462.758182	710.0
2466.50421	713.0
2470.248491	711.0
2473.991028	714.0
2477.731821	713.0
2481.470871	716.0
2485.208179	708.0
2488.943748	710.0
2492.677577	713.0
2496.409669	715.0
2500.140024	719.0
2503.868644	705.0
2507.59553	714.0
2511.320683	711.0
2515.044104	707.0
2518.765795	714.0
2522.485757	708.0
2526.20399	722.0
2529.920497	715.0
2533.635277	710.0
2537.348334	716.0
2541.059667	716.0
2544.769278	703.0
2548.477168	709.0
2552.183339	713.0
2555.887791	701.0
2559.590525	715.0
2563.291544	720.0
2566.990847	713.0
2570.688437	709.0
2574.384315	714.0
2578.078481	709.0
2581.770936	721.0
2585.461683	719.0
2589.150722	709.0
2592.838054	704.0
2596.52368	711.0
2600.207603	706.0
2603.889822	705.0
2607.570339	705.0
2611.249155	711.0
2614.926272	717.0
2618.60169	703.0
2622.275411	707.0
2625.947436	713.0
2629.617766	714.0
2633.286402	711.0
2636.953345	708.0
2640.618597	713.0
2644.282158	706.0
2647.94403	726.0
2651.604214	705.0
2655.262711	711.0
2658.919523	715.0
2662.57465	704.0
2666.228093	722.0
2669.879854	710.0
2673.529934	716.0
2677.178334	710.0
2680.825054	707.0
2684.470098	711.0
2688.113464	712.0
2691.755155	705.0
2695.395172	709.0
2699.033515	702.0
2702.670187	709.0
2706.305187	710.0
2709.938518	711.0
2713.57018	708.0
2717.200174	710.0
2720.828502	699.0
2724.455165	717.0
2728.080163	708.0
2731.703499	708.0
2735.325172	715.0
2738.945185	708.0
2742.563538	704.0
2746.180232	711.0
2749.795269	707.0
2753.408649	706.0
2757.020374	720.0
2760.630445	706.0
2764.238863	713.0
2767.845629	708.0
2771.450744	709.0
2775.054209	709.0
2778.656026	710.0
2782.256195	711.0
2785.854718	707.0
2789.451595	713.0
2793.046828	708.0
2796.640418	716.0
2800.232366	709.0
2803.822673	701.0
2807.411341	707.0
2810.998369	708.0
2814.58376	707.0
2818.167514	705.0
2821.749632	708.0
2825.330116	710.0
2828.908967	707.0
2832.486186	707.0
2836.061773	713.0
2839.63573	705.0
2843.208059	704.0
2846.778759	710.0
2850.347832	699.0
2853.91528	699.0
2857.481103	706.0
2861.045302	701.0
2864.607879	703.0
2868.168834	708.0
2871.728168	704.0
2875.285884	707.0
2878.841981	717.0
2882.39646	706.0
2885.949324	711.0
2889.500572	706.0
2893.050207	712.0
2896.598228	707.0
2900.144637	704.0
2903.689435	717.0
2907.232624	711.0
2910.774204	706.0
2914.314176	710.0
2917.852541	711.0
2921.389301	702.0
2924.924456	712.0
2928.458007	714.0
2931.989956	706.0
2935.520304	715.0
2939.049051	708.0
2942.576198	696.0
2946.101748	702.0
2949.6257	707.0
2953.148056	709.0
2956.668816	701.0
2960.187983	715.0
2963.705556	708.0
2967.221537	702.0
2970.735927	704.0
2974.248727	711.0
2977.759937	709.0
2981.26956	708.0
2984.777596	703.0
2988.284046	714.0
2991.788911	706.0
2995.292192	707.0
2998.79389	713.0
3002.294006	707.0
3005.792542	703.0
3009.289497	709.0
3012.784874	699.0
3016.278673	711.0
3019.770895	701.0
3023.261541	713.0
3026.750613	698.0
3030.238111	705.0
3033.724036	716.0
3037.208389	705.0
3040.691172	706.0
3044.172385	700.0
3047.652029	694.0
3051.130105	701.0
3054.606615	704.0
3058.081559	704.0
3061.554938	714.0
3065.026753	707.0
3068.497006	703.0
3071.965697	705.0
3075.432828	709.0
3078.898398	701.0
3082.36241	717.0
3085.824864	703.0
3089.285761	709.0
3092.745103	697.0
3096.202889	707.0
3099.659122	706.0
3103.113802	705.0
3106.566931	710.0
3110.018508	709.0
3113.468536	704.0
3116.917014	712.0
3120.363945	704.0
3123.809329	706.0
3127.253166	712.0
3130.695459	704.0
3134.136208	701.0
3137.575414	715.0
3141.013078	707.0
3144.4492	710.0
3147.883783	699.0
3151.316826	700.0
3154.748332	700.0
3158.1783	699.0
3161.606731	710.0
3165.033628	702.0
3168.45899	711.0
3171.882819	702.0
3175.305115	712.0
3178.72588	714.0
3182.145115	702.0
3185.56282	713.0
3188.978996	704.0
3192.393645	702.0
3195.806767	712.0
3199.218364	711.0
3202.628436	711.0
3206.036984	704.0
3209.444009	705.0
3212.849512	697.0
3216.253495	707.0
3219.655957	709.0
3223.056901	705.0
3226.456326	704.0
3229.854234	700.0
3233.250626	702.0
3236.645503	695.0
3240.038865	706.0
3243.430714	704.0
3246.821051	702.0
3250.209876	716.0
3253.59719	707.0
3256.982995	709.0
3260.367292	712.0
3263.75008	706.0
3267.131362	705.0
3270.511137	702.0
3273.889408	714.0
3277.266175	707.0
3280.641439	707.0
3284.0152	704.0
3287.38746	710.0
3290.75822	708.0
3294.127481	707.0
3297.495243	716.0
3300.861508	709.0
3304.226276	707.0
3307.589548	712.0
3310.951325	704.0
3314.311609	707.0
3317.6704	701.0
3321.027698	707.0
3324.383506	707.0
3327.737823	715.0
3331.090652	700.0
3334.441991	704.0
3337.791844	705.0
3341.14021	702.0
3344.48709	709.0
3347.832485	704.0
3351.176397	702.0
3354.518826	708.0
3357.859772	707.0
3361.199238	711.0
3364.537224	710.0
3367.87373	708.0
3371.208758	713.0
3374.542308	715.0
3377.874382	706.0
3381.204981	698.0
3384.534104	707.0
3387.861754	705.0
3391.18793	714.0
3394.512635	719.0
3397.835868	713.0
3401.157631	709.0
3404.477925	715.0
3407.796751	699.0
3411.114108	721.0
3414.429999	706.0
3417.744424	695.0
3421.057385	710.0
3424.368881	704.0
3427.678914	706.0
3430.987485	714.0
3434.294594	701.0
3437.600244	710.0
3440.904433	705.0
3444.207164	702.0
3447.508437	713.0
3450.808253	713.0
3454.106612	707.0
3457.403517	707.0
3460.698968	708.0
3463.992965	707.0
3467.285509	703.0
3470.576602	707.0
3473.866244	710.0
3477.154436	704.0
3480.441179	701.0
3483.726474	709.0
3487.010321	711.0
3490.292723	698.0
3493.573678	703.0
3496.853189	705.0
3500.131256	712.0
3503.407881	701.0
3506.683063	713.0
3509.956804	705.0
3513.229104	699.0
3516.499965	704.0
3519.769388	702.0
3523.037373	703.0
3526.303921	713.0
3529.569033	711.0
3532.83271	697.0
3536.094952	713.0
3539.355761	698.0
3542.615138	707.0
3545.873083	704.0
3549.129597	700.0
3552.384681	708.0
3555.638336	707.0
3558.890562	697.0
3562.141361	706.0
3565.390734	704.0
3568.638681	701.0
3571.885203	713.0
3575.130301	701.0
3578.373976	701.0
3581.616229	700.0
3584.85706	696.0
3588.096471	693.0
3591.334462	705.0
3594.571034	700.0
3597.806187	703.0
3601.039924	702.0
3604.272245	710.0
3607.503149	698.0
3610.73264	699.0
3613.960716	704.0
3617.187379	707.0
3620.412631	699.0
3623.636471	701.0
3626.8589	702.0
3630.07992	706.0
3633.299531	701.0
3636.517735	711.0
3639.734531	703.0
3642.949921	693.0
3646.163905	699.0
3649.376485	702.0
3652.587661	697.0
3655.797434	703.0
3659.005806	698.0
3662.212776	699.0
3665.418345	699.0
3668.622515	694.0
3671.825287	701.0
3675.02666	709.0
3678.226636	702.0
3681.425216	704.0
3684.622401	696.0
3687.818191	700.0
3691.012587	698.0
3694.205591	696.0
3697.397202	703.0
3700.587422	699.0
3703.776252	694.0
3706.963692	699.0
3710.149743	700.0
3713.334406	695.0
3716.517682	689.0
3719.699572	695.0
3722.880077	698.0
3726.059196	701.0
3729.236932	695.0
3732.413285	696.0
3735.588255	699.0
3738.761845	696.0
3741.934053	693.0
3745.104882	697.0
3748.274332	698.0
3751.442404	687.0
3754.609098	695.0
3757.774416	692.0
3760.938359	701.0
3764.100927	701.0
3767.26212	693.0
3770.42194	698.0
3773.580388	688.0
3776.737465	687.0
3779.89317	691.0
3783.047506	695.0
3786.200473	699.0
3789.352071	699.0
3792.502301	700.0
3795.651165	704.0
3798.798663	695.0
3801.944796	690.0
3805.089565	690.0
