-3.166723941E+02	-2.857208252E-01
-3.115109955E+02	-9.131774902E-01
-3.063524099E+02	 1.659576416E+00
-3.011966354E+02	-1.791625977E+00
-2.960436702E+02	 2.259414673E+00
-2.908935123E+02	 1.808273315E+00
-2.857461598E+02	-1.139633179E+00
-2.806016108E+02	-3.334503174E-01
-2.754598635E+02	 2.226898193E+00
-2.703209159E+02	 2.791473389E+00
-2.651847661E+02	 8.490295410E-01
-2.600514122E+02	-1.092498779E+00
-2.549208523E+02	 2.970428467E+00
-2.497930845E+02	 2.863311768E-01
-2.446681069E+02	-8.958892822E-01
-2.395459176E+02	-1.073364258E+00
-2.344265147E+02	-4.975280762E-01
-2.293098962E+02	 2.574111938E+00
-2.241960603E+02	 8.466339111E-01
-2.190850050E+02	-6.291961670E-01
-2.139767285E+02	-1.031646729E-01
-2.088712287E+02	-8.317108154E-01
-2.037685039E+02	 5.443206787E+00
-1.986685520E+02	-1.778427124E+00
-1.935713712E+02	 1.250534058E+00
-1.884769595E+02	 1.532150269E+00
-1.833853151E+02	-9.371337891E-01
-1.782964359E+02	 1.594177246E+00
-1.732103202E+02	 1.629043579E+00
-1.681269659E+02	 9.174652100E-01
-1.630463711E+02	-1.790512085E+00
-1.579685340E+02	 1.255096436E+00
-1.528934526E+02	 1.554367065E+00
-1.478211249E+02	-1.443176270E-01
-1.427515491E+02	 4.090423584E-01
-1.376847231E+02	 2.466140747E+00
-1.326206452E+02	-1.511840820E+00
-1.275593134E+02	 1.042175293E-02
-1.225007256E+02	-2.158050537E-01
-1.174448801E+02	 3.112487793E-01
-1.123917749E+02	 5.640106201E-01
-1.073414080E+02	-2.687362671E+00
-1.022937775E+02	 2.313125610E+00
-9.724888152E+01	 3.216552734E-02
-9.220671808E+01	 2.499099731E+00
-8.716728526E+01	-1.782257080E+00
-8.213058113E+01	 3.187728882E+00
-7.709660375E+01	-1.588653564E+00
-7.206535119E+01	-8.994140625E-01
-6.703682152E+01	 1.517868042E+00
-6.201101279E+01	 2.688674927E+00
-5.698792308E+01	-1.141296387E+00
-5.196755045E+01	-4.903106689E-01
-4.694989295E+01	-3.088912964E+00
-4.193494866E+01	 2.923065186E+00
-3.692271564E+01	-2.017288208E+00
-3.191319194E+01	-1.905395508E+00
-2.690637563E+01	-1.517761230E+00
-2.190226477E+01	-3.979339600E+00
-1.690085743E+01	-2.098358154E+00
-1.190215165E+01	-5.901809692E+00
-6.906145501E+00	 9.844818115E+00
-1.912837044E+00	 1.833814697E+02
 3.077775663E+00	 2.012012634E+02
 8.065694562E+00	 2.279916382E+01
 1.305092159E+01	-6.330245972E+00
 1.803345870E+01	-7.691665649E+00
 2.301330783E+01	-7.783660889E+00
 2.799047091E+01	-1.010826111E+01
 3.296494990E+01	-7.667083740E+00
 3.793674674E+01	-1.021153259E+01
 4.290586336E+01	-1.084614563E+01
 4.787230171E+01	-1.769230652E+01
 5.283606375E+01	-2.705767822E+01
 5.779715140E+01	-3.138461304E+01
 6.275556661E+01	-2.523077393E+01
 6.771131134E+01	 1.361538696E+01
 7.266438751E+01	 3.065383911E+01
 7.761479709E+01	 2.644230652E+01
 8.256254201E+01	 2.163357544E+01
 8.750762421E+01	 1.727619934E+01
 9.245004565E+01	 1.721405029E+01
 9.738980827E+01	 1.972552490E+01
 1.023269140E+02	 1.089559937E+01
 1.072613648E+02	 2.045526123E+01
 1.121931626E+02	 2.460160828E+01
 1.171223094E+02	 2.430996704E+01
 1.220488071E+02	 2.631607056E+01
 1.269726577E+02	 3.336056519E+01
 1.318938630E+02	 2.818699646E+01
 1.368124251E+02	 3.279063416E+01
 1.417283459E+02	 5.116781616E+01
 1.466416273E+02	 5.431575012E+01
 1.515522712E+02	 5.198213196E+01
 1.564602798E+02	 6.091517639E+01
 1.613656548E+02	 4.686329651E+01
 1.662683982E+02	 4.207522583E+01
 1.711685119E+02	 3.429988098E+01
 1.760659980E+02	 3.753630066E+01
 1.809608584E+02	 3.653366089E+01
 1.858530949E+02	 3.029129028E+01
 1.907427096E+02	 2.905851746E+01
 1.956297044E+02	 3.483483887E+01
 2.005140812E+02	 3.661973572E+01
 2.053958420E+02	 5.141275024E+01
 2.102749887E+02	 5.471351624E+01
 2.151515233E+02	 6.327166748E+01
 2.200254477E+02	 5.533689880E+01
 2.248967639E+02	 3.740885925E+01
 2.297654738E+02	 4.648733521E+01
 2.346315793E+02	 4.657206726E+01
 2.394950825E+02	 4.616284180E+01
 2.443559852E+02	 4.450941467E+01
 2.492142893E+02	 3.311164856E+01
 2.540699969E+02	 2.921934509E+01
 2.589231099E+02	 2.233230591E+01
 2.637736301E+02	 2.345042419E+01
 2.686215596E+02	 2.707357788E+01
 2.734669004E+02	 3.520161438E+01
 2.783096542E+02	 4.483439636E+01
 2.831498232E+02	 6.122181702E+01
 2.879874091E+02	 1.136130066E+02
 2.928224141E+02	 1.920083618E+02
 2.976548399E+02	 2.419081116E+02
 3.024846886E+02	 2.460621185E+02
 3.073119621E+02	 2.214703674E+02
 3.121366623E+02	 2.153827667E+02
 3.169587911E+02	 1.722992249E+02
 3.217783506E+02	 1.289696808E+02
 3.265953426E+02	 9.814410400E+01
 3.314097691E+02	 6.957240295E+01
 3.362216321E+02	 5.875456238E+01
 3.410309333E+02	 4.444047546E+01
 3.458376749E+02	 2.913015747E+01
 3.506418587E+02	 2.582354736E+01
 3.554434867E+02	 1.502059937E+01
 3.602425608E+02	 1.247125244E+01
 3.650390830E+02	 1.092552185E+01
 3.698330551E+02	 8.383346558E+00
 3.746244791E+02	 4.594726563E+00
 3.794133570E+02	 4.309600830E+00
 3.841996907E+02	 6.527984619E+00
 3.889834820E+02	 6.249816895E+00
 3.937647331E+02	 2.547511292E+01
 3.985434457E+02	 5.120382690E+01
 4.033196218E+02	 1.034360046E+02
 4.080932633E+02	 1.476715851E+02
 4.128643723E+02	 1.596605377E+02
 4.176329505E+02	 1.746529083E+02
 4.223990000E+02	 1.781486664E+02
 4.271625226E+02	 1.231478119E+02
 4.319235204E+02	 6.265034485E+01
 4.366819951E+02	 3.015629578E+01
 4.414379488E+02	 4.165618896E+00
 4.461913834E+02	-1.821685791E+00
 4.509423008E+02	-6.305557251E+00
 4.556907029E+02	-6.535995483E+00
 4.604365917E+02	-2.013015747E+00
 4.651799690E+02	 5.513397217E+00
 4.699208369E+02	 3.043289185E+00
 4.746591971E+02	 3.560745239E+00
 4.793950517E+02	 4.988235474E+00
 4.841284026E+02	 1.040771484E+00
 4.888592517E+02	-6.525573730E-01
 4.935876009E+02	-3.340759277E+00
 4.983134521E+02	 1.731765747E+00
 5.030368073E+02	 2.063964844E+00
 5.077576683E+02	 9.049682617E-01
 5.124760371E+02	 7.754135132E+00
 5.171919157E+02	 7.860870361E+00
 5.219053058E+02	 1.247471619E+01
 5.266162095E+02	 2.209098816E+01
 5.313246287E+02	 4.796244812E+01
 5.360305652E+02	 7.234002686E+01
 5.407340209E+02	 5.997354126E+01
 5.454349979E+02	 3.511270142E+01
 5.501334980E+02	 2.125732422E+01
 5.548295231E+02	 2.240722656E+01
 5.595230752E+02	 2.956222534E+01
 5.642141560E+02	 5.847219849E+01
 5.689027676E+02	 8.463699341E+01
 5.735889119E+02	 1.145565033E+02
 5.782725907E+02	 1.424806061E+02
 5.829538060E+02	 1.719091949E+02
 5.876325597E+02	 2.083422089E+02
 5.923088537E+02	 2.815295410E+02
 5.969826898E+02	 3.294711609E+02
 6.016540700E+02	 3.386669312E+02
 6.063229962E+02	 2.506168823E+02
 6.109894703E+02	 1.900708771E+02
 6.156534942E+02	 1.120289001E+02
 6.203150698E+02	 7.574090576E+01
 6.249741990E+02	 4.470684814E+01
 6.296308836E+02	 2.092672729E+01
 6.342851257E+02	 1.590048218E+01
 6.389369270E+02	 2.878128052E+00
 6.435862895E+02	 1.609573364E+00
 6.482332151E+02	 7.094848633E+00
 6.528777056E+02	 1.333938599E+00
 6.575197630E+02	-5.923187256E+00
 6.621593892E+02	-1.067649841E+01
 6.667965859E+02	-6.760864258E-01
 6.714313553E+02	-6.762512207E+00
 6.760636990E+02	 3.148956299E-01
 6.806936191E+02	-6.294708252E-01
 6.853211173E+02	 2.576904297E+00
 6.899461956E+02	 4.455535889E+00
 6.945688559E+02	-7.965087891E-02
 6.991891001E+02	-2.385375977E+00
 7.038069299E+02	 5.249328613E-01
 7.084223474E+02	 2.837905884E+00
 7.130353544E+02	-3.133651733E+00
 7.176459528E+02	 7.885894775E-01
 7.222541444E+02	-1.551666260E-01
 7.268599311E+02	 1.000015259E+00
 7.314633149E+02	 5.471908569E+00
 7.360642976E+02	 5.493270874E+00
 7.406628810E+02	 1.655348206E+01
 7.452590670E+02	 2.089549255E+01
 7.498528576E+02	 3.501425171E+01
 7.544442546E+02	 3.940605164E+01
 7.590332598E+02	 5.781797791E+01
 7.636198751E+02	 6.099780273E+01
 7.682041024E+02	 6.419366455E+01
 7.727859436E+02	 8.215409851E+01
 7.773654005E+02	 1.016277924E+02
 7.819424750E+02	 1.151137238E+02
 7.865171689E+02	 1.433609924E+02
 7.910894842E+02	 1.871187897E+02
 7.956594226E+02	 2.618864441E+02
 8.002269861E+02	 3.831633911E+02
 8.047921765E+02	 6.251990967E+02
 8.093549957E+02	 1.178242920E+03
 8.139154455E+02	 2.350544678E+03
 8.184735277E+02	 3.838354004E+03
 8.230292443E+02	 3.876170410E+03
 8.275825971E+02	 2.638493652E+03
 8.321335879E+02	 1.829073364E+03
 8.366822186E+02	 1.559409424E+03
 8.412284911E+02	 1.801001709E+03
 8.457724071E+02	 2.529099609E+03
 8.503139686E+02	 3.358953369E+03
 8.548531774E+02	 3.211812500E+03
 8.593900353E+02	 2.211677002E+03
 8.639245442E+02	 1.328296509E+03
 8.684567059E+02	 7.659212646E+02
 8.729865223E+02	 4.890508118E+02
 8.775139952E+02	 3.324351196E+02
 8.820391264E+02	 2.398241119E+02
 8.865619179E+02	 1.702176514E+02
 8.910823713E+02	 1.176156769E+02
 8.956004886E+02	 1.015180206E+02
 9.001162717E+02	 8.617469788E+01
 9.046297222E+02	 9.008557129E+01
 9.091408421E+02	 1.240005493E+02
 9.136496333E+02	 1.696696167E+02
 9.181560974E+02	 1.678426666E+02
 9.226602364E+02	 1.197696686E+02
 9.271620521E+02	 8.195054626E+01
 9.316615463E+02	 8.813525391E+01
 9.361587209E+02	 1.198237610E+02
 9.406535776E+02	 1.715159912E+02
 9.451461183E+02	 2.502119293E+02
 9.496363448E+02	 3.306615601E+02
 9.541242589E+02	 3.913648071E+02
 9.586098625E+02	 3.645716248E+02
 9.630931573E+02	 3.107820129E+02
 9.675741453E+02	 2.422459564E+02
 9.720528281E+02	 1.839634399E+02
 9.765292076E+02	 1.381843719E+02
 9.810032857E+02	 1.106588440E+02
 9.854750641E+02	 8.013673401E+01
 9.899445447E+02	 6.736808777E+01
 9.944117292E+02	 6.785287476E+01
 9.988766194E+02	 4.134109497E+01
 1.003339217E+03	 3.608273315E+01
 1.007799524E+03	 3.457778931E+01
 1.012257543E+03	 3.057626343E+01
 1.016713274E+03	 3.157812500E+01
 1.021166720E+03	 2.558340454E+01
 1.025617883E+03	 2.634211731E+01
 1.030066764E+03	 2.635424805E+01
 1.034513366E+03	 2.261979675E+01
 1.038957689E+03	 1.763877869E+01
 1.043399736E+03	 1.691120911E+01
 1.047839508E+03	 1.318711853E+01
 1.052277008E+03	 4.466506958E+00
 1.056712237E+03	-5.950927734E-04
 1.061145197E+03	-2.214187622E+00
 1.065575890E+03	-9.242095947E-01
 1.070004317E+03	-3.380676270E+00
 1.074430481E+03	 6.666458130E+00
 1.078854382E+03	-2.532760620E+00
 1.083276024E+03	-2.301177979E-01
 1.087695407E+03	-4.678909302E+00
 1.092112533E+03	 2.866317749E+00
 1.096527405E+03	 7.415252686E+00
 1.100940023E+03	 1.967895508E+00
 1.105350391E+03	 2.509353638E+00
 1.109758509E+03	 1.548065186E+00
 1.114164379E+03	 8.403167725E-01
 1.118568003E+03	 1.886169434E+00
 1.122969383E+03	 6.856384277E-01
 1.127368521E+03	 2.238739014E+00
 1.131765418E+03	 6.295547485E+00
 1.136160076E+03	 8.606063843E+00
 1.140552497E+03	 2.920349121E+00
 1.144942682E+03	 8.488464355E+00
 1.149330634E+03	 6.185424805E+00
 1.153716354E+03	 1.013632202E+01
 1.158099845E+03	 3.466201782E+00
 1.162481106E+03	 7.800094604E+00
 1.166860142E+03	 4.138107300E+00
 1.171236952E+03	 8.230300903E+00
 1.175611539E+03	 1.382673645E+01
 1.179983905E+03	 9.275360107E-01
 1.184354052E+03	 2.032699585E+00
 1.188721980E+03	 1.939244080E+01
 1.193087693E+03	 1.200679016E+01
 1.197451191E+03	 6.375854492E+00
 1.201812477E+03	 1.324978638E+01
 1.206171552E+03	 7.878677368E+00
 1.210528417E+03	 1.901269531E+01
 1.214883076E+03	 1.540197754E+01
 1.219235529E+03	 8.796661377E+00
 1.223585777E+03	 1.194694519E+01
 1.227933824E+03	 8.103027344E+00
 1.232279670E+03	 1.476507568E+01
 1.236623318E+03	 2.183349609E+00
 1.240964769E+03	 5.608093262E+00
 1.245304024E+03	 6.789550781E+00
 1.249641086E+03	 5.228012085E+00
 1.253975956E+03	 1.017382813E+01
 1.258308636E+03	 6.377334595E+00
 1.262639128E+03	 8.895874023E-02
 1.266967433E+03	 2.309143066E+00
 1.271293553E+03	 8.788360596E+00
 1.275617490E+03	 1.275604248E+00
 1.279939245E+03	 5.771636963E+00
 1.284258821E+03	 7.778427124E+00
 1.288576219E+03	 4.046752930E+00
 1.292891440E+03	 5.325241089E+00
 1.297204487E+03	 7.365447998E+00
 1.301515360E+03	-2.579910278E+00
 1.305824063E+03	 4.490600586E+00
 1.310130596E+03	 1.328842163E+00
 1.314434961E+03	 7.686904907E+00
 1.318737161E+03	-4.986724854E-01
 1.323037195E+03	 1.335021973E+00
 1.327335067E+03	-3.089752197E-01
 1.331630779E+03	-2.766510010E+00
 1.335924330E+03	 2.291030884E+00
 1.340215725E+03	-7.409225464E+00
 1.344504963E+03	-3.406677246E-01
 1.348792047E+03	 3.748367310E+00
 1.353076978E+03	 1.703628540E+00
 1.357359759E+03	 6.679687500E-01
 1.361640390E+03	 2.881118774E+00
 1.365918874E+03	 3.512512207E+00
 1.370195212E+03	 1.107223511E+00
 1.374469406E+03	-6.293762207E+00
 1.378741458E+03	 4.059661865E+00
 1.383011369E+03	 1.417556763E+00
 1.387279141E+03	-2.199401855E-01
 1.391544775E+03	 6.450653076E-01
 1.395808274E+03	-1.488174438E+00
 1.400069638E+03	 5.373077393E+00
 1.404328870E+03	 1.739013672E+00
 1.408585972E+03	 2.108520508E+00
 1.412840944E+03	 4.231292725E+00
 1.417093789E+03	 4.358978271E+00
 1.421344508E+03	 9.917449951E-01
 1.425593103E+03	 2.129730225E+00
 1.429839576E+03	 5.230865479E-01
 1.434083928E+03	 6.421997070E+00
 1.438326161E+03	 1.826629639E+00
 1.442566276E+03	 6.237197876E+00
 1.446804276E+03	 6.653915405E+00
 1.451040161E+03	 7.327026367E+00
 1.455273934E+03	 6.256774902E+00
 1.459505596E+03	 2.693450928E+00
 1.463735149E+03	 5.387374878E+00
 1.467962595E+03	 3.389129639E-01
 1.472187935E+03	 7.984466553E-01
 1.476411170E+03	 2.664031982E-01
 1.480632303E+03	 5.493255615E+00
 1.484851334E+03	 5.229598999E+00
 1.489068267E+03	 2.726043701E+00
 1.493283101E+03	 9.832763672E-01
 1.497495840E+03	 4.730102539E+00
 1.501706484E+03	 1.737640381E+00
 1.505915036E+03	 1.006698608E+00
 1.510121496E+03	-1.711776733E+00
 1.514325866E+03	 8.332672119E-01
 1.518528149E+03	-1.132507324E-01
 1.522728346E+03	 5.202560425E+00
 1.526926457E+03	-7.142791748E-01
 1.531122486E+03	-1.111526489E+00
 1.535316433E+03	 4.763656616E+00
 1.539508301E+03	 5.063583374E+00
 1.543698090E+03	 1.864929199E+00
 1.547885803E+03	 2.904953003E+00
 1.552071441E+03	-2.790512085E+00
 1.556255005E+03	-7.763412476E+00
 1.560436498E+03	-7.203216553E-01
 1.564615920E+03	-6.698455811E-01
 1.568793274E+03	 8.184509277E-01
 1.572968561E+03	 8.167572021E-01
 1.577141783E+03	 4.823120117E+00
 1.581312941E+03	 1.586242676E+00
 1.585482037E+03	 6.361312866E+00
 1.589649072E+03	 2.899291992E+00
 1.593814048E+03	 7.701324463E+00
 1.597976967E+03	 9.518844604E+00
 1.602137831E+03	 1.334190369E+01
 1.606296640E+03	 3.664886475E+00
 1.610453396E+03	 3.255844116E+00
 1.614608102E+03	 3.617172241E+00
 1.618760758E+03	-3.498138428E+00
 1.622911367E+03	 6.640167236E-01
 1.627059929E+03	-7.890594482E+00
 1.631206446E+03	-1.902969360E+00
 1.635350921E+03	 5.313110352E-01
 1.639493354E+03	-1.514099121E+00
 1.643633747E+03	 3.620391846E+00
 1.647772102E+03	-7.710571289E-01
 1.651908420E+03	 1.824691772E+00
 1.656042702E+03	 5.409393311E+00
 1.660174952E+03	 2.511749268E-01
 1.664305169E+03	-1.140701294E+00
 1.668433355E+03	 4.974044800E+00
 1.672559513E+03	 4.705810547E-02
 1.676683643E+03	 2.889251709E+00
 1.680805748E+03	-5.313766479E+00
 1.684925828E+03	 3.491027832E+00
 1.689043886E+03	-4.810852051E+00
 1.693159923E+03	 2.645111084E+00
 1.697273940E+03	 1.609313965E+00
 1.701385938E+03	 3.322906494E-01
 1.705495921E+03	 4.564498901E+00
 1.709603888E+03	 2.306625366E+00
 1.713709843E+03	 9.059341431E+00
 1.717813785E+03	 6.573440552E+00
 1.721915717E+03	 1.309988403E+01
 1.726015640E+03	 1.163978577E+01
 1.730113557E+03	 7.694534302E+00
 1.734209467E+03	 8.764099121E+00
 1.738303373E+03	 4.600830078E+00
 1.742395277E+03	-1.291397095E+00
 1.746485180E+03	 9.341033936E+00
 1.750573083E+03	-3.996673584E+00
 1.754658988E+03	-4.046310425E+00
 1.758742897E+03	 4.569396973E-01
 1.762824811E+03	-1.768295288E+00
 1.766904731E+03	 3.123535156E+00
 1.770982660E+03	 5.308532715E-01
 1.775058598E+03	 1.206542969E+00
 1.779132547E+03	-2.633071899E+00
 1.783204509E+03	 1.281265259E+00
 1.787274485E+03	 9.769744873E-01
 1.791342477E+03	 1.151687622E+00
 1.795408486E+03	 6.594772339E+00
 1.799472514E+03	-5.339050293E-01
 1.803534562E+03	-3.402313232E+00
 1.807594632E+03	-1.502151489E+00
 1.811652725E+03	-3.345916748E+00
 1.815708843E+03	 5.327499390E+00
 1.819762987E+03	-1.489990234E+00
 1.823815159E+03	 4.463973999E+00
 1.827865360E+03	 4.517318726E+00
 1.831913592E+03	-4.990997314E-01
 1.835959856E+03	 7.438507080E-01
 1.840004154E+03	-1.861572266E-03
 1.844046487E+03	-3.235275269E+00
 1.848086857E+03	-3.458160400E+00
 1.852125265E+03	 1.333816528E+00
 1.856161713E+03	 2.140518188E+00
 1.860196202E+03	-2.055816650E+00
 1.864228734E+03	 2.217971802E+00
 1.868259310E+03	 4.986557007E+00
 1.872287932E+03	 7.014907837E+00
 1.876314600E+03	-1.208374023E+00
 1.880339318E+03	 1.331741333E+00
 1.884362085E+03	 1.369598389E+00
 1.888382904E+03	-3.335266113E-01
 1.892401776E+03	 2.728393555E+00
 1.896418703E+03	-5.193069458E+00
 1.900433685E+03	-6.594848633E-01
 1.904446725E+03	-4.926010132E+00
 1.908457824E+03	 2.065322876E+00
 1.912466983E+03	-1.449356079E+00
 1.916474204E+03	 4.523239136E+00
 1.920479489E+03	 1.260253906E+00
 1.924482838E+03	 3.164428711E+00
 1.928484253E+03	 1.818618774E+00
 1.932483736E+03	-1.521331787E+00
 1.936481288E+03	 2.892593384E+00
 1.940476911E+03	 3.056350708E+00
 1.944470606E+03	 5.726242065E+00
 1.948462374E+03	-1.347381592E+00
 1.952452217E+03	 2.333709717E+00
 1.956440136E+03	-2.229904175E+00
 1.960426134E+03	-3.037673950E+00
 1.964410210E+03	 2.911941528E+00
 1.968392367E+03	-4.021148682E-01
 1.972372607E+03	 3.791107178E+00
 1.976350929E+03	-1.008010864E+00
 1.980327337E+03	 4.200866699E+00
 1.984301832E+03	 1.652038574E+00
 1.988274414E+03	 8.388214111E-01
 1.992245085E+03	-3.467422485E+00
 1.996213848E+03	 3.234329224E+00
 2.000180702E+03	-8.160705566E-01
 2.004145650E+03	-1.619094849E+00
 2.008108693E+03	 2.080078125E+00
 2.012069832E+03	 7.878417969E-01
 2.016029069E+03	-3.995269775E+00
 2.019986406E+03	 3.962371826E+00
 2.023941843E+03	-8.290557861E-01
 2.027895382E+03	 5.637969971E+00
 2.031847025E+03	 1.020355225E-01
 2.035796772E+03	-6.753234863E-01
 2.039744626E+03	 8.064117432E-01
 2.043690588E+03	 3.520202637E-02
 2.047634659E+03	 7.724304199E-01
 2.051576840E+03	-1.980499268E+00
 2.055517134E+03	 3.027130127E+00
 2.059455540E+03	 6.275619507E+00
 2.063392062E+03	 3.285034180E+00
 2.067326699E+03	 1.806152344E+00
 2.071259454E+03	-6.600189209E-01
 2.075190328E+03	-5.123229980E+00
 2.079119323E+03	 1.674285889E+00
 2.083046439E+03	 3.737060547E+00
 2.086971678E+03	-1.190551758E+00
 2.090895041E+03	 1.896606445E+00
 2.094816531E+03	 5.243957520E+00
 2.098736148E+03	-1.177719116E+00
 2.102653893E+03	 3.400192261E+00
 2.106569769E+03	-5.248870850E-01
 2.110483776E+03	-3.692016602E+00
 2.114395915E+03	 6.412200928E-01
 2.118306189E+03	-3.514694214E+00
 2.122214599E+03	 1.848403931E+00
 2.126121145E+03	 3.686828613E+00
 2.130025829E+03	 5.269927979E-01
 2.133928654E+03	 2.976913452E+00
 2.137829619E+03	-1.362472534E+00
 2.141728726E+03	 1.050918579E+00
 2.145625978E+03	-7.792205811E-01
 2.149521374E+03	-3.852661133E+00
 2.153414917E+03	-4.218597412E-01
 2.157306608E+03	 2.473236084E+00
 2.161196448E+03	 5.624252319E+00
 2.165084439E+03	-4.989624023E-01
 2.168970581E+03	-1.170043945E-01
 2.172854877E+03	-2.479721069E+00
 2.176737327E+03	 6.630249023E-01
 2.180617933E+03	 7.811447144E+00
 2.184496697E+03	 9.613037109E-01
 2.188373619E+03	-2.886291504E+00
 2.192248701E+03	 3.257858276E+00
 2.196121944E+03	 4.075469971E-01
 2.199993351E+03	 6.295776367E-02
 2.203862921E+03	-2.569580078E-02
 2.207730656E+03	-2.608200073E+00
 2.211596558E+03	 4.937866211E+00
 2.215460629E+03	 1.988021851E+00
 2.219322868E+03	 1.669921875E+00
 2.223183279E+03	-6.411132813E-01
 2.227041861E+03	-1.447265625E+00
 2.230898616E+03	 5.494491577E+00
 2.234753547E+03	-2.318740845E+00
 2.238606653E+03	 4.625534058E+00
 2.242457937E+03	-4.239807129E-01
 2.246307399E+03	-4.725799561E-01
 2.250155041E+03	-5.140075684E-01
 2.254000864E+03	-1.073318481E+00
 2.257844870E+03	 2.624023438E+00
 2.261687060E+03	 5.797119141E-01
 2.265527435E+03	-3.210510254E+00
 2.269365997E+03	 3.736846924E+00
 2.273202747E+03	 1.927261353E+00
 2.277037685E+03	-2.624511719E-01
 2.280870814E+03	 4.050628662E+00
 2.284702135E+03	 2.405746460E+00
 2.288531649E+03	-1.301818848E+00
 2.292359358E+03	 1.490356445E+00
 2.296185261E+03	-1.713363647E+00
 2.300009362E+03	 3.370666504E-01
 2.303831662E+03	 2.641708374E+00
 2.307652160E+03	-3.549316406E+00
 2.311470860E+03	-3.235977173E+00
 2.315287761E+03	 7.079650879E+00
 2.319102867E+03	 2.648666382E+00
 2.322916176E+03	 2.722366333E+00
 2.326727692E+03	 4.800888062E+00
 2.330537415E+03	 3.631988525E+00
 2.334345347E+03	 2.667129517E+00
 2.338151489E+03	-1.044189453E+00
 2.341955841E+03	 1.748031616E+00
 2.345758406E+03	 1.043838501E+00
 2.349559185E+03	-3.656753540E+00
 2.353358179E+03	 3.896301270E+00
 2.357155389E+03	 3.453018188E+00
 2.360950816E+03	 7.634429932E-01
 2.364744462E+03	 1.577636719E+00
 2.368536329E+03	-8.572082520E-01
 2.372326416E+03	 1.451431274E+00
 2.376114727E+03	 3.761901855E+00
 2.379901261E+03	 1.076126099E+00
 2.383686020E+03	-4.105834961E+00
 2.387469005E+03	 1.214431763E+00
 2.391250218E+03	-9.674530029E-01
 2.395029661E+03	 1.104522705E+00
 2.398807333E+03	-3.197021484E-01
 2.402583236E+03	-2.995101929E+00
 2.406357373E+03	 5.333435059E+00
 2.410129743E+03	-2.104888916E+00
 2.413900348E+03	 2.210586548E+00
 2.417669190E+03	-7.200927734E-01
 2.421436269E+03	 3.353118896E+00
 2.425201587E+03	 6.430297852E+00
 2.428965146E+03	-2.238510132E+00
 2.432726946E+03	 2.093185425E+00
 2.436486988E+03	 2.677886963E+00
 2.440245274E+03	-7.332305908E-01
 2.444001806E+03	 1.105163574E+00
 2.447756583E+03	 1.945648193E+00
 2.451509609E+03	 1.786819458E+00
 2.455260883E+03	-3.677215576E-01
 2.459010407E+03	 2.460708618E+00
 2.462758182E+03	 4.793304443E+00
 2.466504210E+03	-8.697967529E-01
 2.470248491E+03	-5.278579712E+00
 2.473991028E+03	-3.687301636E+00
 2.477731821E+03	 3.405441284E+00
 2.481470871E+03	 6.752655029E+00
 2.485208179E+03	 1.104507446E+00
 2.488943748E+03	 2.211044312E+00
 2.492677577E+03	 2.809631348E+00
 2.496409669E+03	 1.662841797E+00
 2.500140024E+03	 2.520812988E+00
 2.503868644E+03	 8.836975098E-01
 2.507595530E+03	-3.248413086E+00
 2.511320683E+03	 8.746795654E-01
 2.515044104E+03	 1.503112793E+00
 2.518765795E+03	 1.636047363E+00
 2.522485757E+03	-2.231140137E+00
 2.526203990E+03	-2.166305542E+00
 2.529920497E+03	 3.402984619E+00
 2.533635277E+03	 4.948974609E+00
 2.537348334E+03	 2.749313354E+00
 2.541059667E+03	-2.737274170E+00
 2.544769278E+03	-1.220184326E+00
 2.548477168E+03	-4.494171143E-01
 2.552183339E+03	 3.250427246E-01
 2.555887791E+03	 1.032257080E-01
 2.559590525E+03	-1.114868164E+00
 2.563291544E+03	 4.670837402E+00
 2.566990847E+03	 3.460311890E+00
 2.570688437E+03	 3.753646851E+00
 2.574384315E+03	-1.449142456E+00
 2.578078481E+03	-6.484832764E-01
 2.581770936E+03	 7.154769897E+00
 2.585461683E+03	-5.379638672E-01
 2.589150722E+03	-4.766693115E-01
 2.592838054E+03	 1.338760376E+00
 2.596523680E+03	 4.051818848E-01
 2.600207603E+03	 9.521331787E-01
 2.603889822E+03	 2.777099609E-03
 2.607570339E+03	-1.443298340E+00
 2.611249155E+03	-1.381530762E-01
 2.614926272E+03	 2.170730591E+00
 2.618601690E+03	 2.732147217E+00
 2.622275411E+03	 7.966918945E-01
 2.625947436E+03	 1.115127563E+00
 2.629617766E+03	 1.874694824E-01
 2.633286402E+03	 1.263809204E+00
 2.636953345E+03	-4.057922363E-01
 2.640618597E+03	-1.071289063E+00
 2.644282158E+03	 3.267395020E+00
 2.647944030E+03	 6.097244263E+00
 2.651604214E+03	 9.311523438E-01
 2.655262711E+03	-7.308349609E-01
 2.658919523E+03	 1.857131958E+00
 2.662574650E+03	 6.941528320E-01
 2.666228093E+03	-1.214630127E+00
 2.669879854E+03	 3.379486084E+00
 2.673529934E+03	 4.702697754E+00
 2.677178334E+03	-1.259613037E+00
 2.680825054E+03	-3.720352173E+00
 2.684470098E+03	 8.226470947E-01
 2.688113464E+03	 3.694152832E-01
 2.691755155E+03	-1.835754395E+00
 2.695395172E+03	 4.575958252E-01
 2.699033515E+03	 2.752990723E+00
 2.702670187E+03	-2.223480225E+00
 2.706305187E+03	 5.553100586E+00
 2.709938518E+03	-2.170150757E+00
 2.713570180E+03	 3.359054565E+00
 2.717200174E+03	 1.627593994E+00
 2.720828502E+03	 8.949432373E-01
 2.724455165E+03	 1.658172607E-01
 2.728080163E+03	 1.902313232E-01
 2.731703499E+03	-1.034561157E+00
 2.735325172E+03	 1.243576050E+00
 2.738945185E+03	-1.224685669E+00
 2.742563538E+03	 4.310684204E+00
 2.746180232E+03	 4.849700928E+00
 2.749795269E+03	 4.142410278E+00
 2.753408649E+03	 5.688812256E+00
 2.757020374E+03	 2.738296509E+00
 2.760630445E+03	 2.284942627E+00
 2.764238863E+03	 5.811157227E-01
 2.767845629E+03	 7.131027222E+00
 2.771450744E+03	 3.434707642E+00
 2.775054209E+03	-2.757827759E+00
 2.778656026E+03	 2.303527832E+00
 2.782256195E+03	 3.687591553E-01
 2.785854718E+03	 1.187957764E+00
 2.789451595E+03	 5.111846924E-01
 2.793046828E+03	-9.115295410E-01
 2.796640418E+03	 4.199371338E-01
 2.800232366E+03	 4.448806763E+00
 2.803822673E+03	-2.707519531E-01
 2.807411341E+03	-4.899444580E-01
 2.810998369E+03	 4.920349121E-01
 2.814583760E+03	-2.284378052E+00
 2.818167514E+03	-1.807327271E+00
 2.821749632E+03	 1.423156738E+00
 2.825330116E+03	-8.429107666E-01
 2.828908967E+03	-1.855560303E+00
 2.832486186E+03	 4.135208130E+00
 2.836061773E+03	 1.629379272E+00
 2.839635730E+03	 1.626953125E+00
 2.843208059E+03	 8.875915527E+00
 2.846778759E+03	 1.376022339E+00
 2.850347832E+03	 2.379196167E+00
 2.853915280E+03	 2.631896973E+00
 2.857481103E+03	 8.880310059E-01
 2.861045302E+03	 2.647598267E+00
 2.864607879E+03	 2.160583496E+00
 2.868168834E+03	 2.677017212E+00
 2.871728168E+03	 1.969146729E-01
 2.875285884E+03	 3.218841553E+00
 2.878841981E+03	-2.006088257E+00
 2.882396460E+03	-5.019073486E-01
 2.885949324E+03	 1.505615234E+00
 2.889500572E+03	-7.370452881E-01
 2.893050207E+03	 3.024124146E+00
 2.896598228E+03	 7.523956299E-01
 2.900144637E+03	-7.670135498E-01
 2.903689435E+03	 1.682785034E+00
 2.907232624E+03	 3.626190186E+00
 2.910774204E+03	 3.220825195E-01
 2.914314176E+03	-3.982940674E+00
 2.917852541E+03	-5.337829590E-01
 2.921389301E+03	-3.685913086E-01
 2.924924456E+03	-3.449371338E+00
 2.928458007E+03	 2.220138550E+00
 2.931989956E+03	 2.142486572E+00
 2.935520304E+03	 5.068740845E+00
 2.939049051E+03	-1.144409180E-03
 2.942576198E+03	 3.932815552E+00
 2.946101748E+03	 3.370544434E+00
 2.949625700E+03	 5.811996460E+00
 2.953148056E+03	 6.257141113E+00
 2.956668816E+03	 4.455932617E+00
 2.960187983E+03	 1.040835571E+01
 2.963705556E+03	 6.864379883E+00
 2.967221537E+03	 1.257395935E+01
 2.970735927E+03	 2.787063599E+00
 2.974248727E+03	 6.753677368E+00
 2.977759937E+03	 3.973754883E+00
 2.981269560E+03	 1.947052002E+00
 2.984777596E+03	 3.172302246E+00
 2.988284046E+03	 4.650970459E+00
 2.991788911E+03	 1.330871582E-01
 2.995292192E+03	 5.368637085E+00
 2.998793890E+03	 1.075897217E-01
 3.002294006E+03	 3.349945068E+00
 3.005792542E+03	 2.595718384E+00
 3.009289497E+03	-3.155105591E+00
 3.012784874E+03	 4.347457886E+00
 3.016278673E+03	 2.353408813E+00
 3.019770895E+03	 3.627777100E-01
 3.023261541E+03	-3.744354248E-01
 3.026750613E+03	-6.108245850E+00
 3.030238111E+03	 1.911376953E+00
 3.033724036E+03	 5.426849365E+00
 3.037208389E+03	-1.055877686E+00
 3.040691172E+03	-1.535278320E+00
 3.044172385E+03	 6.738830566E+00
 3.047652029E+03	 2.516403198E+00
 3.051130105E+03	 1.797470093E+00
 3.054606615E+03	-1.679382324E-01
 3.058081559E+03	 2.120223999E+00
 3.061554938E+03	 6.661926270E+00
 3.065026753E+03	 8.456008911E+00
 3.068497006E+03	 9.253234863E+00
 3.071965697E+03	 1.130412292E+01
 3.075432828E+03	 1.360868835E+01
 3.078898398E+03	 1.041697693E+01
 3.082362410E+03	 9.229049683E+00
 3.085824864E+03	 1.179373169E+01
 3.089285761E+03	 7.361297607E+00
 3.092745103E+03	 6.827850342E-01
 3.096202889E+03	 6.258193970E+00
 3.099659122E+03	 1.337570190E+00
 3.103113802E+03	-1.578979492E+00
 3.106566931E+03	-1.491439819E+00
 3.110018508E+03	-1.399673462E+00
 3.113468536E+03	-1.303634644E+00
 3.116917014E+03	-9.614410400E-01
 3.120363945E+03	 1.885040283E+00
 3.123809329E+03	 3.985824585E+00
 3.127253166E+03	-1.435974121E+00
 3.130695459E+03	-2.357070923E+00
 3.134136208E+03	 4.724990845E+00
 3.137575414E+03	 6.127929688E-02
 3.141013078E+03	 2.901885986E+00
 3.144449200E+03	-2.531280518E-01
 3.147883783E+03	 1.346343994E+00
 3.151316826E+03	-5.331420898E-02
 3.154748332E+03	 1.508132935E+00
 3.158178300E+03	-1.765899658E-01
 3.161606731E+03	-8.614654541E-01
 3.165033628E+03	 3.457275391E+00
 3.168458990E+03	 1.279953003E+00
 3.171882819E+03	-1.643768311E+00
 3.175305115E+03	 1.934539795E+00
 3.178725880E+03	 4.766952515E+00
 3.182145115E+03	 2.103515625E+00
 3.185562820E+03	-2.305694580E+00
 3.188978996E+03	 3.538146973E+00
 3.192393645E+03	 2.632354736E+00
 3.195806767E+03	 4.719238281E-01
 3.199218364E+03	-1.434295654E+00
 3.202628436E+03	-3.361663818E-01
 3.206036984E+03	 5.163116455E-01
 3.209444009E+03	 6.232757568E-01
 3.212849512E+03	 1.227325439E+00
 3.216253495E+03	 1.820724487E+00
 3.219655957E+03	 1.594543457E-01
 3.223056901E+03	-1.787796021E+00
 3.226456326E+03	 2.630767822E-01
 3.229854234E+03	-1.457565308E+00
 3.233250626E+03	 5.682067871E-01
 3.236645503E+03	 2.573852539E+00
 3.240038865E+03	-1.166915894E+00
 3.243430714E+03	 5.612487793E-01
 3.246821051E+03	-1.207015991E+00
 3.250209876E+03	 1.778213501E+00
 3.253597190E+03	 2.266693115E+00
 3.256982995E+03	 4.714965820E-03
 3.260367292E+03	 1.746261597E+00
 3.263750080E+03	 7.413024902E-01
 3.267131362E+03	 9.859771729E-01
 3.270511137E+03	 2.233551025E+00
 3.273889408E+03	 1.234573364E+00
 3.277266175E+03	-2.510925293E+00
 3.280641439E+03	 1.247039795E+00
 3.284015200E+03	 2.758483887E+00
 3.287387460E+03	 2.339172363E-02
 3.290758220E+03	-4.581909180E-01
 3.294127481E+03	 3.563720703E+00
 3.297495243E+03	 2.339172363E+00
 3.300861508E+03	-1.381851196E+00
 3.304226276E+03	 1.400680542E+00
 3.307589548E+03	 9.368133545E-01
 3.310951325E+03	 4.737396240E-01
 3.314311609E+03	 1.513473511E+00
 3.317670400E+03	 5.568389893E-01
 3.321027698E+03	 1.853851318E+00
 3.324383506E+03	 2.654586792E+00
 3.327737823E+03	 7.090454102E-01
 3.331090652E+03	-2.372741699E-01
 3.334441991E+03	 4.033538818E+00
 3.337791844E+03	-3.192123413E+00
 3.341140210E+03	 3.585739136E+00
 3.344487090E+03	 4.617172241E+00
 3.347832485E+03	-2.598907471E+00
 3.351176397E+03	 2.937973022E+00
 3.354518826E+03	 2.478454590E+00
 3.357859772E+03	 4.022048950E+00
 3.361199238E+03	 2.566024780E+00
 3.364537224E+03	-6.363372803E-01
 3.367873730E+03	-1.335006714E+00
 3.371208758E+03	 2.220062256E+00
 3.374542308E+03	-4.971115112E+00
 3.377874382E+03	 3.589324951E+00
 3.381204981E+03	-6.020507813E-01
 3.384534104E+03	 6.691284180E-01
 3.387861754E+03	-1.842819214E+00
 3.391187930E+03	 4.648925781E+00
 3.394512635E+03	-2.355590820E+00
 3.397835868E+03	 2.360290527E+00
 3.401157631E+03	 3.284149170E-01
 3.404477925E+03	 3.300109863E+00
 3.407796751E+03	 1.275375366E+00
 3.411114108E+03	-3.495819092E+00
 3.414429999E+03	 2.736526489E+00
 3.417744424E+03	 2.223815918E-01
 3.421057385E+03	-5.382537842E-01
 3.424368881E+03	 3.454605103E+00
 3.427678914E+03	-3.549057007E+00
 3.430987485E+03	 1.448471069E+00
 3.434294594E+03	 6.179443359E+00
 3.437600244E+03	-1.336151123E+00
 3.440904433E+03	 2.151687622E+00
 3.444207164E+03	 3.642974854E+00
 3.447508437E+03	 1.376647949E-01
 3.450808253E+03	-1.114227295E+00
 3.454106612E+03	 3.872985840E-01
 3.457403517E+03	-1.107757568E+00
 3.460698968E+03	 2.146469116E+00
 3.463992965E+03	-1.346008301E+00
 3.467285509E+03	 4.914916992E+00
 3.470576602E+03	 2.679275513E+00
 3.473866244E+03	 4.457702637E-01
 3.477154436E+03	-1.037628174E+00
 3.480441179E+03	 4.728439331E+00
 3.483726474E+03	 2.247940063E+00
 3.487010321E+03	 1.520889282E+00
 3.490292723E+03	 2.297302246E+00
 3.493573678E+03	 3.271942139E-01
 3.496853189E+03	-2.639419556E+00
 3.500131256E+03	 3.397476196E+00
 3.503407881E+03	 6.879272461E-01
 3.506683063E+03	-5.180664063E-01
 3.509956804E+03	 2.279556274E+00
 3.513229104E+03	 8.079528809E-02
 3.516499965E+03	-1.142883301E-01
 3.519769388E+03	 2.194320679E+00
 3.523037373E+03	 2.566833496E-01
 3.526303921E+03	 3.147430420E-01
 3.529569033E+03	 6.178283691E-01
 3.532832710E+03	-7.540893555E-02
 3.536094952E+03	 4.235076904E+00
 3.539355761E+03	-1.450668335E+00
 3.542615138E+03	 3.649597168E-01
 3.545873083E+03	 2.183319092E+00
 3.549129597E+03	 1.505554199E+00
 3.552384681E+03	 2.831726074E+00
 3.555638336E+03	 1.411911011E+00
 3.558890562E+03	-3.003845215E+00
 3.562141361E+03	 8.345489502E-01
 3.565390734E+03	 5.427139282E+00
 3.568638681E+03	-2.475982666E+00
 3.571885203E+03	 2.625259399E+00
 3.575130301E+03	 4.809722900E-01
 3.578373976E+03	 1.591247559E+00
 3.581616229E+03	 4.206176758E+00
 3.584857060E+03	 8.258819580E-01
 3.588096471E+03	 1.946304321E+00
 3.591334462E+03	 3.301467896E+00
 3.594571034E+03	-8.386535645E-01
 3.597806187E+03	-2.260437012E-01
 3.601039924E+03	 4.383560181E+00
 3.604272245E+03	-3.502731323E+00
 3.607503149E+03	-3.841247559E-01
 3.610732640E+03	-4.261596680E+00
 3.613960716E+03	 2.115371704E+00
 3.617187379E+03	 2.424209595E+00
 3.620412631E+03	-1.658630371E-02
 3.623636471E+03	 1.046463013E+00
 3.626858900E+03	 8.109130859E-01
 3.630079920E+03	 7.290649414E-02
 3.633299531E+03	-1.674774170E+00
 3.636517735E+03	 4.831268311E+00
 3.639734531E+03	-2.162429810E+00
 3.642949921E+03	 1.331573486E+00
 3.646163905E+03	 1.829208374E+00
 3.649376485E+03	 3.304443359E-01
 3.652587661E+03	 1.585083008E+00
 3.655797434E+03	 3.083038330E+00
 3.659005806E+03	-1.665512085E+00
 3.662212776E+03	 5.839492798E+00
 3.665418345E+03	-1.152038574E+00
 3.668622515E+03	 1.109375000E+00
 3.671825287E+03	-4.141860962E+00
 3.675026660E+03	 5.359161377E+00
 3.678226636E+03	 6.135864258E-01
 3.681425216E+03	 8.714141846E-01
 3.684622401E+03	 3.826904297E-01
 3.687818191E+03	 6.147384644E+00
 3.691012587E+03	 1.654815674E-01
 3.694205591E+03	 3.687042236E+00
 3.697397202E+03	 6.462066650E+00
 3.700587422E+03	-1.009429932E+00
 3.703776252E+03	 2.256774902E-02
 3.706963692E+03	-2.691940308E+00
 3.710149743E+03	 3.847106934E+00
 3.713334406E+03	 3.389709473E+00
 3.716517682E+03	 1.858978271E-01
 3.719699572E+03	 2.235717773E+00
 3.722880077E+03	-1.210800171E+00
 3.726059196E+03	 4.096374512E+00
 3.729236932E+03	 2.407272339E+00
 3.732413285E+03	-2.528030396E+00
 3.735588255E+03	 4.045104980E-02
 3.738761845E+03	 4.112838745E+00
 3.741934053E+03	 4.189147949E+00
 3.745104882E+03	 1.266494751E+00
 3.748274332E+03	 2.597824097E+00
 3.751442404E+03	 4.332427979E-01
 3.754609098E+03	 1.522796631E+00
 3.757774416E+03	 1.165618896E-01
 3.760938359E+03	 9.607696533E-01
 3.764100927E+03	-4.409027100E-01
 3.767262120E+03	 1.588897705E-01
 3.770421940E+03	 3.512649536E+00
 3.773580388E+03	 4.369705200E+00
 3.776737465E+03	-3.270019531E+00
 3.779893170E+03	-1.550903320E-01
 3.783047506E+03	-1.285415649E+00
 3.786200473E+03	 4.589141846E+00
 3.789352071E+03	 1.214630127E+00
 3.792502301E+03	 1.843719482E+00
 3.795651165E+03	 7.250061035E-01
 3.798798663E+03	-3.360458374E+00
 3.801944796E+03	 1.803298950E+00
 3.805089565E+03	-5.428588867E+00
