-3.166723941E+02	-1.764666140E-01
-3.115109955E+02	-1.760425925E+00
-3.063524099E+02	 2.553465605E+00
-3.011966354E+02	-1.578909159E+00
-2.960436702E+02	 4.114002585E-01
-2.908935123E+02	 1.003616333E+00
-2.857461598E+02	-7.991324663E-01
-2.806016108E+02	 1.837808341E-01
-2.754598635E+02	 3.463600874E-01
-2.703209159E+02	 6.297212243E-01
-2.651847661E+02	 7.873858809E-01
-2.600514122E+02	 2.837590575E-01
-2.549208523E+02	 2.370246410E+00
-2.497930845E+02	 6.992865801E-01
-2.446681069E+02	 3.660850525E-01
-2.395459176E+02	 6.997315288E-01
-2.344265147E+02	-6.246667504E-01
-2.293098962E+02	 6.508365870E-01
-2.241960603E+02	-1.714427918E-01
-2.190850050E+02	-2.600877881E-01
-2.139767285E+02	 8.139178902E-02
-2.088712287E+02	-1.806087196E-01
-2.037685039E+02	 1.085499883E+00
-1.986685520E+02	 1.732548773E-01
-1.935713712E+02	 1.245951653E+00
-1.884769595E+02	-8.636609912E-01
-1.833853151E+02	 8.778207898E-01
-1.782964359E+02	-7.212148905E-01
-1.732103202E+02	 1.227146029E+00
-1.681269659E+02	 9.993800521E-01
-1.630463711E+02	 2.640942335E+00
-1.579685340E+02	-2.435799599E+00
-1.528934526E+02	-7.511508465E-01
-1.478211249E+02	-6.007445455E-01
-1.427515491E+02	 9.162536860E-01
-1.376847231E+02	-1.412037760E-01
-1.326206452E+02	-1.135195643E-01
-1.275593134E+02	 2.371596813E+00
-1.225007256E+02	-1.049240828E+00
-1.174448801E+02	 1.754648209E+00
-1.123917749E+02	 2.007442713E+00
-1.073414080E+02	 8.153814673E-01
-1.022937775E+02	-5.369060040E-01
-9.724888152E+01	-1.295749307E+00
-9.220671808E+01	 4.385976791E-01
-8.716728526E+01	-1.557169795E+00
-8.213058113E+01	 2.695101500E+00
-7.709660375E+01	-1.200899556E-01
-7.206535119E+01	-4.107066691E-01
-6.703682152E+01	 1.997495532E+00
-6.201101279E+01	 1.150474906E+00
-5.698792308E+01	-4.654844999E-01
-5.196755045E+01	 1.663327515E-01
-4.694989295E+01	-2.820546389E+00
-4.193494866E+01	-4.223734736E-01
-3.692271564E+01	-1.570686936E+00
-3.191319194E+01	-1.633532333E+01
-2.690637563E+01	-2.473778152E+01
-2.190226477E+01	-3.003966141E+01
-1.690085743E+01	-2.973668861E+01
-1.190215165E+01	-3.156269264E+01
-6.906145501E+00	-1.447784710E+01
-1.912837044E+00	 1.374145203E+02
 3.077775663E+00	 1.490708313E+02
 8.065694562E+00	-8.446870804E+00
 1.305092159E+01	-3.158774757E+01
 1.803345870E+01	-3.191932869E+01
 2.301330783E+01	-3.234421921E+01
 2.799047091E+01	-3.294409943E+01
 3.296494990E+01	-3.661050797E+01
 3.793674674E+01	-3.666801071E+01
 4.290586336E+01	-2.939289474E+01
 4.787230171E+01	-2.264839935E+01
 5.283606375E+01	-1.443569851E+01
 5.779715140E+01	 2.704080009E+01
 6.275556661E+01	 3.417369690E+02
 6.771131134E+01	 1.039192505E+03
 7.266438751E+01	 1.273152710E+03
 7.761479709E+01	 1.117640625E+03
 8.256254201E+01	 8.881763306E+02
 8.750762421E+01	 7.039306641E+02
 9.245004565E+01	 5.735325928E+02
 9.738980827E+01	 4.474506531E+02
 1.023269140E+02	 3.577386169E+02
 1.072613648E+02	 2.771672363E+02
 1.121931626E+02	 2.139284515E+02
 1.171223094E+02	 1.725818481E+02
 1.220488071E+02	 1.358114014E+02
 1.269726577E+02	 9.928446198E+01
 1.318938630E+02	 8.384255981E+01
 1.368124251E+02	 7.144538879E+01
 1.417283459E+02	 5.576230621E+01
 1.466416273E+02	 4.397720718E+01
 1.515522712E+02	 4.069360733E+01
 1.564602798E+02	 2.865927315E+01
 1.613656548E+02	 2.014229012E+01
 1.662683982E+02	 1.438111973E+01
 1.711685119E+02	 1.031250477E+01
 1.760659980E+02	 1.239193630E+01
 1.809608584E+02	 5.510573864E+00
 1.858530949E+02	 3.204166889E+00
 1.907427096E+02	 2.635900974E+00
 1.956297044E+02	 1.582734942E+00
 2.005140812E+02	-4.047624588E+00
 2.053958420E+02	-3.064971209E+00
 2.102749887E+02	 7.191299200E-01
 2.151515233E+02	-3.786060095E+00
 2.200254477E+02	-9.317713380E-01
 2.248967639E+02	-3.618224144E+00
 2.297654738E+02	-1.771990061E+00
 2.346315793E+02	-4.888138771E+00
 2.394950825E+02	-6.763303757E+00
 2.443559852E+02	-9.041280746E+00
 2.492142893E+02	-8.574670792E+00
 2.540699969E+02	-8.936079979E+00
 2.589231099E+02	-1.055869961E+01
 2.637736301E+02	-4.395741463E+00
 2.686215596E+02	-6.162659168E+00
 2.734669004E+02	-3.925128698E+00
 2.783096542E+02	-1.188293839E+01
 2.831498232E+02	-1.140586758E+01
 2.879874091E+02	-1.015051079E+01
 2.928224141E+02	-1.626545715E+01
 2.976548399E+02	-1.666849899E+01
 3.024846886E+02	-1.826666832E+01
 3.073119621E+02	-2.962129784E+01
 3.121366623E+02	-2.828894615E+01
 3.169587911E+02	-1.595220566E+01
 3.217783506E+02	-1.180812645E+01
 3.265953426E+02	-1.079162312E+01
 3.314097691E+02	-1.069274998E+01
 3.362216321E+02	-9.352081299E+00
 3.410309333E+02	-5.561113358E+00
 3.458376749E+02	-4.730103016E+00
 3.506418587E+02	-8.077517509E+00
 3.554434867E+02	-4.672299862E+00
 3.602425608E+02	-3.070776701E+00
 3.650390830E+02	-2.881182194E+00
 3.698330551E+02	-3.718263626E+00
 3.746244791E+02	-3.750190973E+00
 3.794133570E+02	-1.840765476E-01
 3.841996907E+02	-1.555081844E+00
 3.889834820E+02	-1.358482122E+00
 3.937647331E+02	-5.878358841E+00
 3.985434457E+02	-1.773081183E+00
 4.033196218E+02	 4.165582657E-01
 4.080932633E+02	-8.452621460E+00
 4.128643723E+02	 1.191725135E+00
 4.176329505E+02	 1.489028215E+00
 4.223990000E+02	 2.662458181E+00
 4.271625226E+02	-1.895964503E+00
 4.319235204E+02	-6.496489644E-01
 4.366819951E+02	-4.315834999E+00
 4.414379488E+02	-4.975921154E+00
 4.461913834E+02	-2.442103148E+00
 4.509423008E+02	 1.737244368E+00
 4.556907029E+02	-1.059675217E+00
 4.604365917E+02	-2.679936647E+00
 4.651799690E+02	-1.525260091E+00
 4.699208369E+02	 3.292015791E+00
 4.746591971E+02	-6.172672749E+00
 4.793950517E+02	-2.397255182E+00
 4.841284026E+02	 1.561728954E+00
 4.888592517E+02	-2.274724483E+00
 4.935876009E+02	-3.008176804E+00
 4.983134521E+02	-4.604845047E+00
 5.030368073E+02	-5.713648319E+00
 5.077576683E+02	-4.541701376E-01
 5.124760371E+02	-2.683598995E+00
 5.171919157E+02	-1.059719801E+00
 5.219053058E+02	-2.199964523E+00
 5.266162095E+02	-5.083235741E+00
 5.313246287E+02	-3.256927252E+00
 5.360305652E+02	-7.649835110E+00
 5.407340209E+02	-1.255506754E+00
 5.454349979E+02	-4.668737411E+00
 5.501334980E+02	 1.884740829E+00
 5.548295231E+02	-4.518695354E+00
 5.595230752E+02	-1.029988289E+00
 5.642141560E+02	-2.383877039E+00
 5.689027676E+02	-8.891713619E-01
 5.735889119E+02	-7.039282918E-01
 5.782725907E+02	-4.179715633E+00
 5.829538060E+02	-7.446043015E+00
 5.876325597E+02	-7.781837463E+00
 5.923088537E+02	-1.245403171E+00
 5.969826898E+02	 3.738307059E-01
 6.016540700E+02	-5.681477070E+00
 6.063229962E+02	-1.710430622E+00
 6.109894703E+02	-2.482423306E+00
 6.156534942E+02	 1.862353444E+00
 6.203150698E+02	-6.067207813E+00
 6.249741990E+02	-2.976738214E+00
 6.296308836E+02	-1.794762373E+00
 6.342851257E+02	-1.205217242E+00
 6.389369270E+02	-7.269068956E-01
 6.435862895E+02	-4.686987102E-01
 6.482332151E+02	 2.095125198E+00
 6.528777056E+02	 4.338374138E+00
 6.575197630E+02	 7.009648800E+00
 6.621593892E+02	 1.088244247E+01
 6.667965859E+02	 1.188680840E+01
 6.714313553E+02	 8.935306549E+00
 6.760636990E+02	 7.028550148E+00
 6.806936191E+02	 6.104743481E+00
 6.853211173E+02	 1.050647449E+01
 6.899461956E+02	 7.655278206E+00
 6.945688559E+02	 3.255368710E+00
 6.991891001E+02	 1.365265131E+00
 7.038069299E+02	 2.225833893E+00
 7.084223474E+02	 3.589858711E-01
 7.130353544E+02	 1.813732147E+00
 7.176459528E+02	-2.330718040E+00
 7.222541444E+02	-8.673135042E-01
 7.268599311E+02	-3.138535261E+00
 7.314633149E+02	 1.353879809E+00
 7.360642976E+02	-2.851301432E+00
 7.406628810E+02	-5.651066303E+00
 7.452590670E+02	-1.956008434E+00
 7.498528576E+02	-3.011011362E+00
 7.544442546E+02	-5.302875042E+00
 7.590332598E+02	-3.504133463E+00
 7.636198751E+02	-3.082330227E+00
 7.682041024E+02	-7.161702633E+00
 7.727859436E+02	-4.935376644E+00
 7.773654005E+02	-6.217376709E+00
 7.819424750E+02	-6.919456482E+00
 7.865171689E+02	-6.821848392E+00
 7.910894842E+02	-1.026908684E+01
 7.956594226E+02	-1.123787212E+01
 8.002269861E+02	-1.671363640E+01
 8.047921765E+02	-1.649718285E+01
 8.093549957E+02	-1.565505981E+01
 8.139154455E+02	-2.113643837E+01
 8.184735277E+02	-2.511362267E+01
 8.230292443E+02	-2.567620087E+01
 8.275825971E+02	-1.657607269E+01
 8.321335879E+02	-7.449971676E+00
 8.366822186E+02	-1.075991344E+01
 8.412284911E+02	-1.767175484E+01
 8.457724071E+02	-3.571591139E+00
 8.503139686E+02	-8.029431343E+00
 8.548531774E+02	 2.376334906E+00
 8.593900353E+02	 4.940311909E+00
 8.639245442E+02	-4.970915020E-01
 8.684567059E+02	-4.645101070E+00
 8.729865223E+02	-1.082735157E+01
 8.775139952E+02	-2.857789516E+00
 8.820391264E+02	-5.392555714E+00
 8.865619179E+02	-5.299301147E+00
 8.910823713E+02	-5.403217316E+00
 8.956004886E+02	-5.814169407E+00
 9.001162717E+02	-6.607748032E+00
 9.046297222E+02	-4.067755699E+00
 9.091408421E+02	-8.704640388E+00
 9.136496333E+02	-4.103161812E+00
 9.181560974E+02	-6.255339622E+00
 9.226602364E+02	-1.075755310E+01
 9.271620521E+02	-4.564785480E+00
 9.316615463E+02	-8.176937103E+00
 9.361587209E+02	-7.499509335E+00
 9.406535776E+02	-5.774531364E+00
 9.451461183E+02	-6.951797009E+00
 9.496363448E+02	-1.205948639E+01
 9.541242589E+02	-2.626688480E+00
 9.586098625E+02	-6.065630436E+00
 9.630931573E+02	-7.317553043E+00
 9.675741453E+02	 1.221820593E+00
 9.720528281E+02	-7.595818520E+00
 9.765292076E+02	-4.859843731E+00
 9.810032857E+02	-4.507420063E+00
 9.854750641E+02	-5.867242813E+00
 9.899445447E+02	-2.353627920E+00
 9.944117292E+02	-5.104045272E-01
 9.988766194E+02	 3.177019656E-01
 1.003339217E+03	-2.718010426E+00
 1.007799524E+03	-3.118291378E+00
 1.012257543E+03	-1.493501663E+00
 1.016713274E+03	-1.394535184E+00
 1.021166720E+03	-6.952695370E+00
 1.025617883E+03	-4.594788074E+00
 1.030066764E+03	 5.771275043E+00
 1.034513366E+03	 1.057117105E+00
 1.038957689E+03	 2.697863989E-02
 1.043399736E+03	 6.491406560E-01
 1.047839508E+03	-2.679139376E+00
 1.052277008E+03	-2.738954067E+00
 1.056712237E+03	-9.541052818E+00
 1.061145197E+03	-1.456329942E+00
 1.065575890E+03	-2.212755442E+00
 1.070004317E+03	-6.496116161E+00
 1.074430481E+03	-2.815473795E+00
 1.078854382E+03	-2.318761110E+00
 1.083276024E+03	-7.776082039E+00
 1.087695407E+03	-4.095673561E+00
 1.092112533E+03	-5.197984219E+00
 1.096527405E+03	-4.945363045E+00
 1.100940023E+03	-3.077874422E+00
 1.105350391E+03	-2.353016853E+00
 1.109758509E+03	-4.629180431E+00
 1.114164379E+03	-6.539939880E+00
 1.118568003E+03	-1.302106500E+00
 1.122969383E+03	-5.464458466E+00
 1.127368521E+03	-2.657880187E-01
 1.131765418E+03	-3.455518186E-01
 1.136160076E+03	-1.774612308E+00
 1.140552497E+03	-9.520294517E-02
 1.144942682E+03	-1.505729675E+00
 1.149330634E+03	-2.999519348E+00
 1.153716354E+03	 1.391274810E+00
 1.158099845E+03	-6.282040477E-01
 1.162481106E+03	 2.973753512E-01
 1.166860142E+03	 5.154364184E-02
 1.171236952E+03	-3.673690557E-01
 1.175611539E+03	 4.451782405E-01
 1.179983905E+03	-3.313905954E+00
 1.184354052E+03	-7.657276392E-01
 1.188721980E+03	-2.872921824E-01
 1.193087693E+03	 8.135876656E-01
 1.197451191E+03	-5.807733059E+00
 1.201812477E+03	-2.299764156E+00
 1.206171552E+03	 2.341332197E+00
 1.210528417E+03	-3.907956362E+00
 1.214883076E+03	-2.162407875E+00
 1.219235529E+03	 5.817186236E-01
 1.223585777E+03	-3.693256378E+00
 1.227933824E+03	-4.674979687E+00
 1.232279670E+03	-1.690590024E+00
 1.236623318E+03	-3.725233793E+00
 1.240964769E+03	-9.575436592E+00
 1.245304024E+03	-3.144167185E+00
 1.249641086E+03	-9.380454421E-01
 1.253975956E+03	-2.598172665E+00
 1.258308636E+03	 1.973780441E+01
 1.262639128E+03	 4.145301819E+01
 1.266967433E+03	 2.755267334E+01
 1.271293553E+03	 9.154909134E+00
 1.275617490E+03	 2.831046677E+01
 1.279939245E+03	 2.247399445E+02
 1.284258821E+03	 3.089908752E+02
 1.288576219E+03	 9.196282196E+01
 1.292891440E+03	 1.402322388E+01
 1.297204487E+03	-3.413116217E+00
 1.301515360E+03	-1.077345610E+00
 1.305824063E+03	 1.750615835E+00
 1.310130596E+03	-1.637531757E+00
 1.314434961E+03	 1.790961146E+00
 1.318737161E+03	-1.707313657E+00
 1.323037195E+03	 4.285037041E+00
 1.327335067E+03	 4.443580151E+00
 1.331630779E+03	 4.671768248E-01
 1.335924330E+03	 4.595700264E+00
 1.340215725E+03	-6.554033279E+00
 1.344504963E+03	-1.019106150E+00
 1.348792047E+03	 6.236536503E+00
 1.353076978E+03	-1.617042422E+00
 1.357359759E+03	 3.756277084E+00
 1.361640390E+03	-1.795180202E+00
 1.365918874E+03	 8.555322647E+00
 1.370195212E+03	 9.493261337E+00
 1.374469406E+03	 8.868036270E+00
 1.378741458E+03	 4.171320343E+01
 1.383011369E+03	 3.121738892E+02
 1.387279141E+03	 5.883250122E+02
 1.391544775E+03	 2.089383087E+02
 1.395808274E+03	 3.931650543E+01
 1.400069638E+03	 2.937308502E+01
 1.404328870E+03	 5.906824875E+01
 1.408585972E+03	 8.485969543E+01
 1.412840944E+03	 3.957046509E+01
 1.417093789E+03	 1.313217258E+01
 1.421344508E+03	 5.101746559E+00
 1.425593103E+03	 2.283284664E+00
 1.429839576E+03	 3.757258654E+00
 1.434083928E+03	 1.770804077E-01
 1.438326161E+03	-5.229097366E+00
 1.442566276E+03	 3.694641352E+00
 1.446804276E+03	 5.481872559E+00
 1.451040161E+03	-2.622211456E+00
 1.455273934E+03	 1.082695007E+00
 1.459505596E+03	-1.330579638E+00
 1.463735149E+03	 1.823081017E+00
 1.467962595E+03	-2.823491096E+00
 1.472187935E+03	 4.483503342E+00
 1.476411170E+03	-1.518772840E+00
 1.480632303E+03	 2.883764029E+00
 1.484851334E+03	-1.325500607E-01
 1.489068267E+03	 1.254824400E+00
 1.493283101E+03	-3.966984987E+00
 1.497495840E+03	 8.127259463E-02
 1.501706484E+03	 1.866988897E+00
 1.505915036E+03	-1.996583462E+00
 1.510121496E+03	 2.368695498E+00
 1.514325866E+03	 1.536823034E+00
 1.518528149E+03	-1.860479832E+00
 1.522728346E+03	 1.860279739E-01
 1.526926457E+03	 4.226747453E-01
 1.531122486E+03	-2.446812689E-01
 1.535316433E+03	-3.633478165E+00
 1.539508301E+03	-4.058848381E+00
 1.543698090E+03	 6.353900433E+00
 1.547885803E+03	 3.569101810E+00
 1.552071441E+03	 5.108588696E+00
 1.556255005E+03	-3.025728226E+00
 1.560436498E+03	-3.909320235E-01
 1.564615920E+03	 1.452839017E+00
 1.568793274E+03	-1.545492649E+00
 1.572968561E+03	 3.320232630E+00
 1.577141783E+03	 5.990689397E-01
 1.581312941E+03	 3.029169798E+00
 1.585482037E+03	-1.343918443E+00
 1.589649072E+03	-2.488181829E+00
 1.593814048E+03	 1.272151470E+00
 1.597976967E+03	 2.861819506E+00
 1.602137831E+03	-6.899939384E-03
 1.606296640E+03	-5.251275301E-01
 1.610453396E+03	-1.980663538E+00
 1.614608102E+03	 6.089588642E+00
 1.618760758E+03	 1.306595206E+00
 1.622911367E+03	 2.442069054E+00
 1.627059929E+03	-5.330437183E+00
 1.631206446E+03	 2.277958393E+00
 1.635350921E+03	 2.981050253E+00
 1.639493354E+03	 7.480630398E+00
 1.643633747E+03	-1.859793812E-01
 1.647772102E+03	 2.022868693E-01
 1.651908420E+03	-3.188223124E+00
 1.656042702E+03	-2.352323532E+00
 1.660174952E+03	 1.472279429E-01
 1.664305169E+03	 1.026552081E+00
 1.668433355E+03	 5.386485577E+00
 1.672559513E+03	 5.853307843E-01
 1.676683643E+03	-7.027391791E-01
 1.680805748E+03	-2.576976776E+00
 1.684925828E+03	-4.920968413E-01
 1.689043886E+03	-1.256989717E+00
 1.693159923E+03	 4.349293113E-01
 1.697273940E+03	-1.785398006E+00
 1.701385938E+03	 3.423550606E+00
 1.705495921E+03	 1.635637522E+00
 1.709603888E+03	 3.736466169E+00
 1.713709843E+03	-1.318972349E+00
 1.717813785E+03	 8.642985225E-01
 1.721915717E+03	-1.690148115E+00
 1.726015640E+03	 6.863366961E-01
 1.730113557E+03	 2.537553310E+00
 1.734209467E+03	-3.068689346E+00
 1.738303373E+03	 1.165448427E+00
 1.742395277E+03	-4.364963531E+00
 1.746485180E+03	 1.001400113E+00
 1.750573083E+03	 3.481185675E+00
 1.754658988E+03	-1.980211496E+00
 1.758742897E+03	-6.394559383E+00
 1.762824811E+03	-7.057940960E-01
 1.766904731E+03	 1.793717265E+00
 1.770982660E+03	-2.068195343E+00
 1.775058598E+03	 2.152498007E+00
 1.779132547E+03	 5.166170597E+00
 1.783204509E+03	 6.087535992E-03
 1.787274485E+03	 1.188524961E+00
 1.791342477E+03	-1.017001271E+00
 1.795408486E+03	 7.234245300E+00
 1.799472514E+03	 1.959650874E+00
 1.803534562E+03	 3.380410671E+00
 1.807594632E+03	 3.431408167E+00
 1.811652725E+03	 5.871394873E-01
 1.815708843E+03	 9.695377946E-01
 1.819762987E+03	-4.563017786E-01
 1.823815159E+03	-2.576331377E+00
 1.827865360E+03	 3.909576535E-01
 1.831913592E+03	-4.422515929E-01
 1.835959856E+03	 4.407926202E-01
 1.840004154E+03	 3.179544210E+00
 1.844046487E+03	 5.805963278E-01
 1.848086857E+03	 8.654269218E+00
 1.852125265E+03	-8.545043468E-01
 1.856161713E+03	-5.927545428E-01
 1.860196202E+03	 1.592066765E+00
 1.864228734E+03	 2.797773123E+00
 1.868259310E+03	-9.960182905E-01
 1.872287932E+03	 2.056453228E+00
 1.876314600E+03	 1.471939802E+00
 1.880339318E+03	 2.127200603E+00
 1.884362085E+03	 3.657195807E+00
 1.888382904E+03	 7.664403915E+00
 1.892401776E+03	 4.999330044E+00
 1.896418703E+03	 5.066753387E+00
 1.900433685E+03	 1.759185672E+00
 1.904446725E+03	-1.222647905E+00
 1.908457824E+03	 5.549143791E+00
 1.912466983E+03	 2.011248589E+00
 1.916474204E+03	 5.467100143E+00
 1.920479489E+03	 2.981828690E+00
 1.924482838E+03	 3.607330084E+00
 1.928484253E+03	 7.482940674E+00
 1.932483736E+03	 3.053070307E+00
 1.936481288E+03	-3.615783691E+00
 1.940476911E+03	 4.943568230E+00
 1.944470606E+03	 2.491952658E+00
 1.948462374E+03	 5.781805992E+00
 1.952452217E+03	-7.856016755E-01
 1.956440136E+03	 1.050226402E+01
 1.960426134E+03	 1.153022194E+01
 1.964410210E+03	 2.328305721E+00
 1.968392367E+03	 9.352235794E+00
 1.972372607E+03	 1.385939312E+01
 1.976350929E+03	 6.571275234E+00
 1.980327337E+03	 5.478974819E+00
 1.984301832E+03	 3.765352011E+00
 1.988274414E+03	 1.069859505E+01
 1.992245085E+03	 1.064919949E+01
 1.996213848E+03	 8.801795959E+00
 2.000180702E+03	 1.489729023E+01
 2.004145650E+03	 1.178150368E+01
 2.008108693E+03	 1.305220795E+01
 2.012069832E+03	 1.130267429E+01
 2.016029069E+03	 1.209012604E+01
 2.019986406E+03	 1.046553612E+01
 2.023941843E+03	 9.481360435E+00
 2.027895382E+03	 1.476711750E+01
 2.031847025E+03	 1.776967430E+01
 2.035796772E+03	 1.507647419E+01
 2.039744626E+03	 1.207472706E+01
 2.043690588E+03	 1.147867966E+01
 2.047634659E+03	 1.451920223E+01
 2.051576840E+03	 1.785464287E+01
 2.055517134E+03	 1.008307362E+01
 2.059455540E+03	 1.488222218E+01
 2.063392062E+03	 1.297061348E+01
 2.067326699E+03	 1.149933338E+01
 2.071259454E+03	 1.325644684E+01
 2.075190328E+03	 1.120168209E+01
 2.079119323E+03	 1.032428169E+01
 2.083046439E+03	 1.479354954E+01
 2.086971678E+03	 1.272219944E+01
 2.090895041E+03	 1.789447975E+01
 2.094816531E+03	 1.723361778E+01
 2.098736148E+03	 1.525070000E+01
 2.102653893E+03	 1.659593391E+01
 2.106569769E+03	 1.615167999E+01
 2.110483776E+03	 1.470485592E+01
 2.114395915E+03	 5.805584908E+00
 2.118306189E+03	 1.196624947E+01
 2.122214599E+03	 1.459601021E+01
 2.126121145E+03	 1.120961094E+01
 2.130025829E+03	 1.637732697E+01
 2.133928654E+03	 1.043212986E+01
 2.137829619E+03	 1.514682579E+01
 2.141728726E+03	 1.094760323E+01
 2.145625978E+03	 1.258029842E+01
 2.149521374E+03	 1.349432087E+01
 2.153414917E+03	 1.266634369E+01
 2.157306608E+03	 1.065331173E+01
 2.161196448E+03	 1.729782867E+01
 2.165084439E+03	 1.353888416E+01
 2.168970581E+03	 1.108794785E+01
 2.172854877E+03	 1.686659050E+01
 2.176737327E+03	 1.372663403E+01
 2.180617933E+03	 1.163148499E+01
 2.184496697E+03	 1.216456985E+01
 2.188373619E+03	 1.273676109E+01
 2.192248701E+03	 1.026980400E+01
 2.196121944E+03	 9.384996414E+00
 2.199993351E+03	 1.023698997E+01
 2.203862921E+03	 1.145865536E+01
 2.207730656E+03	 6.713186264E+00
 2.211596558E+03	 1.556146240E+01
 2.215460629E+03	 7.221884251E+00
 2.219322868E+03	 4.708601475E+00
 2.223183279E+03	 6.660330772E+00
 2.227041861E+03	 2.864014864E+00
 2.230898616E+03	 8.577782631E+00
 2.234753547E+03	 8.472310066E+00
 2.238606653E+03	 6.511969090E+00
 2.242457937E+03	 7.649898052E+00
 2.246307399E+03	 5.190479755E+00
 2.250155041E+03	 3.128301501E-01
 2.254000864E+03	 8.053697646E-02
 2.257844870E+03	 6.798693657E+00
 2.261687060E+03	 4.228147984E+00
 2.265527435E+03	 3.260385752E+00
 2.269365997E+03	 8.384236336E+00
 2.273202747E+03	 4.593124866E+00
 2.277037685E+03	 1.328376293E+00
 2.280870814E+03	 5.852909565E+00
 2.284702135E+03	 7.237740517E+00
 2.288531649E+03	 6.093237400E+00
 2.292359358E+03	 1.855292797E+00
 2.296185261E+03	 5.301132202E+00
 2.300009362E+03	 3.903553009E+00
 2.303831662E+03	 1.556459785E+00
 2.307652160E+03	 1.948370218E+00
 2.311470860E+03	 1.031806469E+00
 2.315287761E+03	 5.105445385E+00
 2.319102867E+03	 4.023585320E+00
 2.322916176E+03	 1.690917134E+00
 2.326727692E+03	 8.785452843E-01
 2.330537415E+03	 6.938494682E+00
 2.334345347E+03	-2.721895695E+00
 2.338151489E+03	 4.022446632E+00
 2.341955841E+03	 7.301702023E+00
 2.345758406E+03	-3.321110606E-01
 2.349559185E+03	 4.229061604E+00
 2.353358179E+03	 2.783522606E+00
 2.357155389E+03	 3.791208863E-01
 2.360950816E+03	 1.325259684E-03
 2.364744462E+03	 1.506704926E+00
 2.368536329E+03	-1.013047338E+00
 2.372326416E+03	 4.410729885E+00
 2.376114727E+03	 1.367613524E-01
 2.379901261E+03	 3.799088240E+00
 2.383686020E+03	-2.868669271E+00
 2.387469005E+03	 7.309213281E-01
 2.391250218E+03	-6.083981991E-01
 2.395029661E+03	 3.975384831E-01
 2.398807333E+03	 2.253538847E+00
 2.402583236E+03	-5.444951057E+00
 2.406357373E+03	 6.502663136E+00
 2.410129743E+03	-6.387804508E+00
 2.413900348E+03	 1.304902196E+00
 2.417669190E+03	-6.616917849E-01
 2.421436269E+03	 1.380041003E+00
 2.425201587E+03	 5.605349064E+00
 2.428965146E+03	 5.706857443E-01
 2.432726946E+03	 2.176136255E+00
 2.436486988E+03	 1.504176497E+00
 2.440245274E+03	-2.787040472E-01
 2.444001806E+03	 5.793471336E-01
 2.447756583E+03	 6.673518181E+00
 2.451509609E+03	 2.571086632E-03
 2.455260883E+03	-3.412268460E-01
 2.459010407E+03	 4.205897331E+00
 2.462758182E+03	-1.663630247E+00
 2.466504210E+03	-1.259920895E-01
 2.470248491E+03	 2.350482196E-01
 2.473991028E+03	-8.116345406E-01
 2.477731821E+03	 2.075949192E+00
 2.481470871E+03	 3.162744522E+00
 2.485208179E+03	 9.466484785E-01
 2.488943748E+03	-3.496225357E+00
 2.492677577E+03	-3.417629898E-01
 2.496409669E+03	-5.025985241E-01
 2.500140024E+03	-7.396171093E-01
 2.503868644E+03	 3.337093592E+00
 2.507595530E+03	 1.895508885E+00
 2.511320683E+03	 5.083649635E+00
 2.515044104E+03	-6.184617057E-02
 2.518765795E+03	-3.078342915E+00
 2.522485757E+03	 6.953246117E+00
 2.526203990E+03	-3.535511971E+00
 2.529920497E+03	-2.051231384E+00
 2.533635277E+03	-2.069933653E+00
 2.537348334E+03	-1.664242864E+00
 2.541059667E+03	-2.798234820E-01
 2.544769278E+03	 2.307388067E+00
 2.548477168E+03	 4.187284946E+00
 2.552183339E+03	 5.931922793E-01
 2.555887791E+03	-2.356636763E+00
 2.559590525E+03	 2.697520733E+00
 2.563291544E+03	-4.158674777E-01
 2.566990847E+03	 2.351435423E+00
 2.570688437E+03	 1.717453241E+00
 2.574384315E+03	 1.450568318E+00
 2.578078481E+03	-1.678957462E+00
 2.581770936E+03	 1.113244772E+00
 2.585461683E+03	 2.289323092E+00
 2.589150722E+03	-6.723383069E-01
 2.592838054E+03	-7.589185834E-01
 2.596523680E+03	-1.187935829E+00
 2.600207603E+03	-4.998969436E-01
 2.603889822E+03	-1.613503337E+00
 2.607570339E+03	-1.019721985E+00
 2.611249155E+03	 2.940166473E+00
 2.614926272E+03	 2.857851505E+00
 2.618601690E+03	 8.802593350E-01
 2.622275411E+03	 4.154717922E+00
 2.625947436E+03	 5.084910393E+00
 2.629617766E+03	-3.812141418E+00
 2.633286402E+03	-9.122918360E-03
 2.636953345E+03	-2.820768118E+00
 2.640618597E+03	-4.818586349E+00
 2.644282158E+03	-4.291553020E+00
 2.647944030E+03	 9.075921774E-01
 2.651604214E+03	 6.464106083E+00
 2.655262711E+03	 4.065996110E-01
 2.658919523E+03	 7.562210083E+00
 2.662574650E+03	-1.763424397E+00
 2.666228093E+03	-2.721128225E+00
 2.669879854E+03	 1.001435518E+00
 2.673529934E+03	 4.118175507E+00
 2.677178334E+03	 2.927578449E+00
 2.680825054E+03	-1.805694461E+00
 2.684470098E+03	-6.124359369E-01
 2.688113464E+03	 5.183566809E-01
 2.691755155E+03	 2.320089102E+00
 2.695395172E+03	-7.579523325E-01
 2.699033515E+03	-2.907434702E-01
 2.702670187E+03	 2.093672991E+00
 2.706305187E+03	 3.107890129E+00
 2.709938518E+03	-4.287102222E+00
 2.713570180E+03	-1.927613258E+00
 2.717200174E+03	 2.242313623E+00
 2.720828502E+03	 2.084699154E+00
 2.724455165E+03	-9.924898744E-01
 2.728080163E+03	 8.126185536E-01
 2.731703499E+03	 4.249734402E+00
 2.735325172E+03	 5.187373638E+00
 2.738945185E+03	-3.372913837E+00
 2.742563538E+03	 7.786124945E-01
 2.746180232E+03	-4.866375923E+00
 2.749795269E+03	 4.138622761E+00
 2.753408649E+03	-2.015575409E+00
 2.757020374E+03	 1.780455589E+00
 2.760630445E+03	 1.561079264E+00
 2.764238863E+03	-6.078294516E-01
 2.767845629E+03	 4.205341339E+00
 2.771450744E+03	-2.475450754E+00
 2.775054209E+03	 1.660632372E+00
 2.778656026E+03	 3.210446835E+00
 2.782256195E+03	-7.311815619E-01
 2.785854718E+03	 8.561559319E-01
 2.789451595E+03	-8.119117618E-01
 2.793046828E+03	 3.492911339E+00
 2.796640418E+03	 2.972358942E+00
 2.800232366E+03	-1.272910237E+00
 2.803822673E+03	 8.776710629E-01
 2.807411341E+03	-4.730921268E+00
 2.810998369E+03	-1.408709407E+00
 2.814583760E+03	 4.340932369E+00
 2.818167514E+03	 4.979904652E+00
 2.821749632E+03	-9.821429253E-01
 2.825330116E+03	 4.440185070E+00
 2.828908967E+03	 2.617438793E+00
 2.832486186E+03	 4.500956059E+00
 2.836061773E+03	-3.929059267E+00
 2.839635730E+03	 7.283872128E+00
 2.843208059E+03	-4.992532730E+00
 2.846778759E+03	-2.668434680E-01
 2.850347832E+03	-3.930219710E-01
 2.853915280E+03	 2.759789944E+00
 2.857481103E+03	 3.803034306E+00
 2.861045302E+03	 6.175468564E-01
 2.864607879E+03	 3.192927361E+00
 2.868168834E+03	 4.070683956E+00
 2.871728168E+03	-4.288547337E-01
 2.875285884E+03	-7.545326352E-01
 2.878841981E+03	 8.615189195E-01
 2.882396460E+03	-1.473627090E+00
 2.885949324E+03	-1.545383453E+00
 2.889500572E+03	 2.311036825E+00
 2.893050207E+03	-1.692234278E+00
 2.896598228E+03	 2.467832088E+00
 2.900144637E+03	-7.183293104E-01
 2.903689435E+03	 4.437967777E+00
 2.907232624E+03	 5.539464951E+00
 2.910774204E+03	-1.314458609E+00
 2.914314176E+03	-1.633822322E+00
 2.917852541E+03	-1.043959334E-01
 2.921389301E+03	-1.659773707E+00
 2.924924456E+03	-2.677541733E+00
 2.928458007E+03	 3.326994181E+00
 2.931989956E+03	 1.877494931E+00
 2.935520304E+03	 2.321204185E+00
 2.939049051E+03	 3.083288074E-01
 2.942576198E+03	 4.476553440E+00
 2.946101748E+03	-2.079098940E+00
 2.949625700E+03	 2.008468390E+00
 2.953148056E+03	 3.956592321E+00
 2.956668816E+03	 1.501736164E+00
 2.960187983E+03	 3.415189981E+00
 2.963705556E+03	 2.630625010E+00
 2.967221537E+03	-2.016448826E-01
 2.970735927E+03	 3.320723534E+00
 2.974248727E+03	 1.564154029E-01
 2.977759937E+03	 1.073513746E+00
 2.981269560E+03	 5.604313374E+00
 2.984777596E+03	 4.149976254E+00
 2.988284046E+03	 3.908324242E+00
 2.991788911E+03	 7.852542996E-01
 2.995292192E+03	-2.796359777E+00
 2.998793890E+03	-2.861626148E-01
 3.002294006E+03	 1.649901390E+00
 3.005792542E+03	 3.106152058E+00
 3.009289497E+03	-9.889909029E-01
 3.012784874E+03	 9.877121449E-01
 3.016278673E+03	 3.698603213E-01
 3.019770895E+03	 1.782493830E+00
 3.023261541E+03	-1.148229122E+00
 3.026750613E+03	 1.130679607E+00
 3.030238111E+03	 2.599814415E+00
 3.033724036E+03	-2.231519461E+00
 3.037208389E+03	 2.441959620E+00
 3.040691172E+03	-6.926923752E+00
 3.044172385E+03	 2.813969851E+00
 3.047652029E+03	 3.318674088E+00
 3.051130105E+03	 4.208339691E+00
 3.054606615E+03	-2.579388618E-01
 3.058081559E+03	-5.652604699E-01
 3.061554938E+03	-1.994177938E+00
 3.065026753E+03	 1.015265465E+00
 3.068497006E+03	 1.167964816E+00
 3.071965697E+03	 1.039420724E+00
 3.075432828E+03	 3.649348319E-01
 3.078898398E+03	 1.427021146E+00
 3.082362410E+03	 1.975966930E+00
 3.085824864E+03	 7.319441795E+00
 3.089285761E+03	 7.428613663E+00
 3.092745103E+03	 4.562590122E+00
 3.096202889E+03	 6.869419813E-01
 3.099659122E+03	 3.561423302E+00
 3.103113802E+03	 2.217328072E+00
 3.106566931E+03	 5.185267925E-01
 3.110018508E+03	-1.008187890E+00
 3.113468536E+03	-2.046072245E+00
 3.116917014E+03	 3.795178890E+00
 3.120363945E+03	 4.367665768E+00
 3.123809329E+03	 2.386082411E+00
 3.127253166E+03	 2.717862844E+00
 3.130695459E+03	-9.182350039E-01
 3.134136208E+03	 9.044786096E-01
 3.137575414E+03	 2.988192320E+00
 3.141013078E+03	-4.310331345E+00
 3.144449200E+03	 4.297373593E-01
 3.147883783E+03	 1.306373239E+00
 3.151316826E+03	 7.124726772E-01
 3.154748332E+03	-2.623898029E+00
 3.158178300E+03	 2.485140085E+00
 3.161606731E+03	 2.867388487E+00
 3.165033628E+03	 4.846289635E+00
 3.168458990E+03	 5.488323979E-03
 3.171882819E+03	-4.768055916E+00
 3.175305115E+03	 5.809305668E+00
 3.178725880E+03	 3.891034842E+00
 3.182145115E+03	 2.707860708E+00
 3.185562820E+03	-3.444022417E+00
 3.188978996E+03	-9.055733681E-01
 3.192393645E+03	 3.225638345E-02
 3.195806767E+03	-1.575493217E+00
 3.199218364E+03	 9.390233755E-01
 3.202628436E+03	 4.030382037E-01
 3.206036984E+03	 3.627960205E+00
 3.209444009E+03	 2.005013227E+00
 3.212849512E+03	-1.473290086E+00
 3.216253495E+03	-1.203055263E+00
 3.219655957E+03	 3.303240061E+00
 3.223056901E+03	 5.376134872E+00
 3.226456326E+03	 2.882139444E+00
 3.229854234E+03	 3.274368048E-01
 3.233250626E+03	-1.942298770E+00
 3.236645503E+03	-2.037793845E-01
 3.240038865E+03	-1.085415125E+00
 3.243430714E+03	 6.857152581E-01
 3.246821051E+03	 8.149514198E-01
 3.250209876E+03	 2.604367495E+00
 3.253597190E+03	 1.751101613E-01
 3.256982995E+03	 6.912758946E-01
 3.260367292E+03	-1.821020097E-01
 3.263750080E+03	-1.028583765E+00
 3.267131362E+03	 1.524977684E+00
 3.270511137E+03	-1.293047071E+00
 3.273889408E+03	 1.378014922E+00
 3.277266175E+03	 3.560306549E+00
 3.280641439E+03	-2.225381613E+00
 3.284015200E+03	 4.754473269E-01
 3.287387460E+03	 1.621463895E+00
 3.290758220E+03	 2.558078527E+00
 3.294127481E+03	-1.297954559E+00
 3.297495243E+03	-1.749801785E-01
 3.300861508E+03	 5.940117836E+00
 3.304226276E+03	-5.200054049E-01
 3.307589548E+03	 9.231510162E-01
 3.310951325E+03	 2.893287897E+00
 3.314311609E+03	 5.001565456E+00
 3.317670400E+03	 2.508759975E+00
 3.321027698E+03	-2.489128590E+00
 3.324383506E+03	-3.040416241E+00
 3.327737823E+03	 2.063003302E+00
 3.331090652E+03	 4.218222141E+00
 3.334441991E+03	 7.468613386E-01
 3.337791844E+03	 3.430642188E-01
 3.341140210E+03	 1.410153508E+00
 3.344487090E+03	 2.047090530E+00
 3.347832485E+03	 1.685240865E+00
 3.351176397E+03	 1.815912127E+00
 3.354518826E+03	-3.218376875E+00
 3.357859772E+03	 6.614580750E-01
 3.361199238E+03	-6.023069620E-01
 3.364537224E+03	-4.204941392E-01
 3.367873730E+03	-2.797848701E+00
 3.371208758E+03	 1.649536490E+00
 3.374542308E+03	-4.213462830E+00
 3.377874382E+03	 8.600685120E+00
 3.381204981E+03	 3.472178459E+00
 3.384534104E+03	 5.770745277E-01
 3.387861754E+03	 5.863113403E+00
 3.391187930E+03	-1.506391644E+00
 3.394512635E+03	-2.558282912E-01
 3.397835868E+03	-3.421565533E+00
 3.401157631E+03	-6.590971947E-01
 3.404477925E+03	-4.784825742E-01
 3.407796751E+03	 2.820398569E+00
 3.411114108E+03	-8.014186621E-01
 3.414429999E+03	 2.945574045E+00
 3.417744424E+03	 1.440160513E+00
 3.421057385E+03	 1.123879075E+00
 3.424368881E+03	-1.115220070E+00
 3.427678914E+03	 1.030760884E+00
 3.430987485E+03	-1.149616122E+00
 3.434294594E+03	-9.684680104E-01
 3.437600244E+03	 1.828428030E+00
 3.440904433E+03	 5.451985002E-01
 3.444207164E+03	-1.916074395E+00
 3.447508437E+03	 1.939409971E+00
 3.450808253E+03	 1.267041922E+00
 3.454106612E+03	-3.475733399E-01
 3.457403517E+03	 2.725492001E+00
 3.460698968E+03	-1.473957300E+00
 3.463992965E+03	 5.496825218E+00
 3.467285509E+03	 3.263487339E+00
 3.470576602E+03	 3.140093088E+00
 3.473866244E+03	 7.533681393E-01
 3.477154436E+03	-5.285938382E-01
 3.480441179E+03	 2.857634127E-01
 3.483726474E+03	-4.196788788E+00
 3.487010321E+03	 4.753344536E+00
 3.490292723E+03	-1.232853174E+00
 3.493573678E+03	 2.341438055E+00
 3.496853189E+03	 1.732417464E+00
 3.500131256E+03	 1.251629353E+00
 3.503407881E+03	-2.770625353E-01
 3.506683063E+03	 8.669642806E-01
 3.509956804E+03	 2.373361826E+00
 3.513229104E+03	 3.513156652E+00
 3.516499965E+03	-6.354817152E-01
 3.519769388E+03	-8.539887071E-01
 3.523037373E+03	-3.111567736E+00
 3.526303921E+03	 1.367459893E+00
 3.529569033E+03	-6.933891177E-01
 3.532832710E+03	 1.540878892E+00
 3.536094952E+03	-4.520126581E-01
 3.539355761E+03	-4.870239496E-01
 3.542615138E+03	 4.336343765E+00
 3.545873083E+03	 1.032461047E+00
 3.549129597E+03	 1.793710351E+00
 3.552384681E+03	 1.714883566E+00
 3.555638336E+03	-1.452857256E+00
 3.558890562E+03	 3.433084249E+00
 3.562141361E+03	-2.684624493E-02
 3.565390734E+03	 2.856902361E+00
 3.568638681E+03	-1.327853680E+00
 3.571885203E+03	 1.829121709E+00
 3.575130301E+03	-3.654410839E+00
 3.578373976E+03	-2.612791657E-01
 3.581616229E+03	 2.786435127E+00
 3.584857060E+03	-6.974951625E-01
 3.588096471E+03	-1.128065825E+00
 3.591334462E+03	 4.269099712E+00
 3.594571034E+03	 2.219607115E+00
 3.597806187E+03	 6.810650349E+00
 3.601039924E+03	-1.112882376E+00
 3.604272245E+03	-7.273012400E-01
 3.607503149E+03	 1.473619342E+00
 3.610732640E+03	 7.260931134E-01
 3.613960716E+03	-9.769853950E-01
 3.617187379E+03	-2.572217882E-01
 3.620412631E+03	-3.209244490E+00
 3.623636471E+03	-1.525404930E+00
 3.626858900E+03	 7.864518762E-01
 3.630079920E+03	 2.589676619E+00
 3.633299531E+03	 2.564995289E+00
 3.636517735E+03	 7.011113644E+00
 3.639734531E+03	 3.376152754E+00
 3.642949921E+03	 3.746620893E+00
 3.646163905E+03	-4.087391198E-01
 3.649376485E+03	-1.183938146E+00
 3.652587661E+03	 1.488698244E+00
 3.655797434E+03	 2.246276855E+00
 3.659005806E+03	-3.660933495E+00
 3.662212776E+03	-3.180205226E-01
 3.665418345E+03	-3.704809844E-01
 3.668622515E+03	-9.857077152E-03
 3.671825287E+03	 4.119701385E-01
 3.675026660E+03	 2.677953243E+00
 3.678226636E+03	-7.588205934E-01
 3.681425216E+03	 3.408078671E+00
 3.684622401E+03	 1.587954164E+00
 3.687818191E+03	-2.866299152E-01
 3.691012587E+03	 1.338744879E+00
 3.694205591E+03	-8.841100335E-01
 3.697397202E+03	-4.647406042E-01
 3.700587422E+03	 1.294101954E+00
 3.703776252E+03	 3.501605034E+00
 3.706963692E+03	-2.265794039E+00
 3.710149743E+03	 2.231289864E+00
 3.713334406E+03	 2.843165636E+00
 3.716517682E+03	-1.476336360E+00
 3.719699572E+03	-1.242363334E+00
 3.722880077E+03	-3.374631643E+00
 3.726059196E+03	-9.826249480E-01
 3.729236932E+03	 4.150046825E+00
 3.732413285E+03	-1.481262565E+00
 3.735588255E+03	 4.077757001E-01
 3.738761845E+03	 1.500107884E+00
 3.741934053E+03	 4.672880650E+00
 3.745104882E+03	 1.146607637E+00
 3.748274332E+03	 2.888261557E+00
 3.751442404E+03	 2.058239654E-02
 3.754609098E+03	 6.548453569E-01
 3.757774416E+03	 1.227903843E+00
 3.760938359E+03	-5.756896734E-01
 3.764100927E+03	 2.368124247E+00
 3.767262120E+03	 1.415819645E+00
 3.770421940E+03	 1.012545824E+00
 3.773580388E+03	-1.317013144E+00
 3.776737465E+03	-1.028136492E+00
 3.779893170E+03	-7.168730497E-01
 3.783047506E+03	 4.302274585E-01
 3.786200473E+03	 3.214004040E-01
 3.789352071E+03	-1.867300153E+00
 3.792502301E+03	-4.078649282E-01
 3.795651165E+03	 4.611174107E+00
 3.798798663E+03	 3.402915001E-01
 3.801944796E+03	-4.030544758E+00
 3.805089565E+03	-2.083020687E+00
