1042.414189	693.4000244
1042.980685	695.7999878
1043.547124	695.7999878
1044.113505	693.0
1044.679828	691.4000244
1045.246093	688.7999878
1045.8123	688.7999878
1046.378449	687.4000244
1046.94454	683.5999756
1047.510573	685.2000122
1048.076548	680.5999756
1048.642465	687.0
1049.208325	684.2000122
1049.774126	685.4000244
1050.339869	681.5999756
1050.905555	682.7999878
1051.471183	681.0
1052.036752	679.0
1052.602264	682.7999878
1053.167718	682.4000244
1053.733114	681.0
1054.298452	679.7999878
1054.863733	682.2000122
1055.428955	679.0
1055.994119	677.0
1056.559226	678.4000244
1057.124275	681.7999878
1057.689266	674.4000244
1058.254199	678.5999756
1058.819074	681.5999756
1059.383891	679.4000244
1059.94865	677.0
1060.513352	677.7999878
1061.077996	678.2000122
1061.642582	677.7999878
1062.20711	677.5999756
1062.77158	678.0
1063.335992	674.2000122
1063.900347	672.4000244
1064.464643	676.2000122
1065.028882	673.4000244
1065.593063	676.0
1066.157187	677.0
1066.721252	675.5999756
1067.28526	678.5999756
1067.84921	678.4000244
1068.413102	675.0
1068.976936	678.0
1069.540713	673.0
1070.104431	683.5999756
1070.668092	674.4000244
1071.231696	677.0
1071.795241	678.4000244
1072.358729	676.7999878
1072.922159	676.4000244
1073.485531	677.0
1074.048845	675.0
1074.612102	677.4000244
1075.175301	675.5999756
1075.738442	675.4000244
1076.301525	675.7999878
1076.864551	678.5999756
1077.427519	677.0
1077.990429	679.5999756
1078.553281	677.5999756
1079.116076	676.0
1079.678813	678.4000244
1080.241492	674.2000122
1080.804114	678.4000244
1081.366678	674.4000244
1081.929184	675.5999756
1082.491633	675.2000122
1083.054024	674.0
1083.616357	678.2000122
1084.178632	678.4000244
1084.74085	675.4000244
1085.30301	678.4000244
1085.865113	675.0
1086.427158	678.2000122
1086.989145	678.0
1087.551074	676.2000122
1088.112946	676.4000244
1088.67476	675.0
1089.236517	673.2000122
1089.798216	675.4000244
1090.359857	674.0
1090.92144	674.7999878
1091.482966	678.0
1092.044435	674.0
1092.605845	677.2000122
1093.167199	677.4000244
1093.728494	674.2000122
1094.289732	671.7999878
1094.850912	672.0
1095.412035	686.7999878
1095.9731	675.0
1096.534107	675.7999878
1097.095057	679.5999756
1097.65595	677.4000244
1098.216784	676.2000122
1098.777561	674.4000244
1099.338281	676.2000122
1099.898943	675.0
1100.459547	674.7999878
1101.020094	675.5999756
1101.580584	678.0
1102.141015	674.5999756
1102.701389	678.5999756
1103.261706	676.7999878
1103.821965	674.0
1104.382167	678.7999878
1104.942311	678.4000244
1105.502397	673.0
1106.062426	678.0
1106.622398	678.0
1107.182312	677.0
1107.742168	674.7999878
1108.301967	678.5999756
1108.861708	675.2000122
1109.421392	677.5999756
1109.981019	677.2000122
1110.540587	681.2000122
1111.100099	678.2000122
1111.659553	679.2000122
1112.218949	682.2000122
1112.778288	678.7999878
1113.33757	684.2000122
1113.896794	681.0
1114.45596	680.0
1115.015069	680.4000244
1115.574121	679.4000244
1116.133115	678.2000122
1116.692052	680.0
1117.250931	680.5999756
1117.809753	676.2000122
1118.368517	676.0
1118.927224	675.4000244
1119.485873	676.5999756
1120.044465	674.0
1120.603	677.2000122
1121.161477	677.4000244
1121.719897	676.2000122
1122.278259	675.5999756
1122.836564	676.7999878
1123.394812	673.7999878
1123.953002	676.0
1124.511135	674.2000122
1125.06921	674.5999756
1125.627228	674.2000122
1126.185189	677.2000122
1126.743092	676.4000244
1127.300938	677.5999756
1127.858726	676.2000122
1128.416457	672.2000122
1128.974131	674.2000122
1129.531748	673.2000122
1130.089307	677.4000244
1130.646808	672.7999878
1131.204252	674.2000122
1131.761639	673.2000122
1132.318969	673.5999756
1132.876241	675.5999756
1133.433456	675.0
1133.990614	673.7999878
1134.547714	675.0
1135.104757	673.7999878
1135.661743	674.4000244
1136.218671	675.0
1136.775542	672.5999756
1137.332356	676.7999878
1137.889112	673.5999756
1138.445811	677.2000122
1139.002453	673.7999878
1139.559037	675.2000122
1140.115565	675.0
1140.672035	675.0
1141.228447	671.4000244
1141.784803	673.0
1142.341101	676.0
1142.897342	676.0
1143.453525	679.4000244
1144.009651	674.2000122
1144.565721	673.7999878
1145.121732	675.7999878
1145.677687	676.2000122
1146.233584	678.2000122
1146.789424	675.5999756
1147.345207	677.5999756
1147.900933	674.7999878
1148.456601	675.5999756
1149.012212	674.5999756
1149.567766	677.5999756
1150.123263	676.7999878
1150.678702	679.7999878
1151.234085	678.7999878
1151.78941	673.5999756
1152.344678	675.0
1152.899888	674.7999878
1153.455042	672.5999756
1154.010138	671.0
1154.565177	674.7999878
1155.120159	674.2000122
1155.675084	673.0
1156.229951	673.0
1156.784762	674.0
1157.339515	671.5999756
1157.894211	677.2000122
1158.44885	673.7999878
1159.003432	676.4000244
1159.557956	673.0
1160.112424	672.0
1160.666834	676.2000122
1161.221187	672.4000244
1161.775483	673.0
1162.329722	673.4000244
1162.883904	671.7999878
1163.438029	672.0
1163.992096	671.4000244
1164.546107	673.4000244
1165.10006	674.2000122
1165.653956	673.5999756
1166.207795	675.0
1166.761577	672.5999756
1167.315302	673.2000122
1167.86897	671.7999878
1168.422581	674.0
1168.976134	670.0
1169.529631	673.2000122
1170.08307	677.0
1170.636453	675.2000122
1171.189778	670.4000244
1171.743046	673.7999878
1172.296257	674.0
1172.849412	672.0
1173.402509	674.4000244
1173.955549	673.5999756
1174.508532	675.2000122
1175.061458	674.7999878
1175.614327	673.7999878
1176.167138	674.5999756
1176.719893	676.0
1177.272591	675.2000122
1177.825232	674.0
1178.377816	675.0
1178.930342	673.2000122
1179.482812	676.2000122
1180.035225	675.4000244
1180.587581	674.5999756
1181.139879	674.5999756
1181.692121	677.7999878
1182.244306	674.7999878
1182.796434	675.4000244
1183.348504	676.0
1183.900518	677.4000244
1184.452475	676.7999878
1185.004375	676.5999756
1185.556218	679.0
1186.108004	681.4000244
1186.659733	679.4000244
1187.211405	678.2000122
1187.76302	679.2000122
1188.314578	678.4000244
1188.866079	676.0
1189.417523	677.5999756
1189.96891	678.4000244
1190.520241	675.5999756
1191.071514	671.7999878
1191.622731	677.2000122
1192.17389	677.2000122
1192.724993	675.5999756
1193.276039	698.7999878
1193.827027	673.7999878
1194.377959	673.4000244
1194.928834	675.2000122
1195.479653	677.2000122
1196.030414	674.4000244
1196.581118	673.5999756
1197.131766	674.4000244
1197.682356	671.0
1198.23289	677.2000122
1198.783367	672.5999756
1199.333786	676.5999756
1199.88415	669.7999878
1200.434456	671.7999878
1200.984705	674.5999756
1201.534898	674.5999756
1202.085033	673.4000244
1202.635112	673.0
1203.185134	673.5999756
1203.735099	671.2000122
1204.285007	673.7999878
1204.834859	670.0
1205.384653	674.0
1205.934391	678.0
1206.484072	674.5999756
1207.033696	677.7999878
1207.583263	674.0
1208.132774	674.2000122
1208.682228	674.4000244
1209.231624	675.5999756
1209.780965	674.0
1210.330248	674.7999878
1210.879474	678.2000122
1211.428644	675.4000244
1211.977757	674.4000244
1212.526813	676.0
1213.075813	674.2000122
1213.624755	676.0
1214.173641	675.7999878
1214.72247	677.0
1215.271242	673.7999878
1215.819958	673.2000122
1216.368617	676.2000122
1216.917219	676.5999756
1217.465764	673.7999878
1218.014253	675.4000244
1218.562685	677.2000122
1219.11106	676.7999878
1219.659378	675.7999878
1220.20764	677.5999756
1220.755845	677.7999878
1221.303993	675.5999756
1221.852085	674.7999878
1222.400119	674.5999756
1222.948097	676.0
1223.496019	680.2000122
1224.043883	679.5999756
1224.591691	673.5999756
1225.139443	680.0
1225.687137	680.5999756
1226.234775	679.2000122
1226.782357	679.2000122
1227.329881	678.0
1227.877349	682.2000122
1228.42476	676.4000244
1228.972115	676.4000244
1229.519413	676.7999878
1230.066654	679.7999878
1230.613839	680.2000122
1231.160967	680.7999878
1231.708038	680.7999878
1232.255053	678.0
1232.802011	677.4000244
1233.348912	677.4000244
1233.895757	678.0
1234.442545	675.0
1234.989277	676.5999756
1235.535951	677.5999756
1236.08257	675.7999878
1236.629131	678.7999878
1237.175636	679.0
1237.722085	679.2000122
1238.268477	678.0
1238.814812	679.2000122
1239.361091	679.5999756
1239.907313	681.5999756
1240.453478	678.2000122
1240.999587	678.2000122
1241.54564	678.4000244
1242.091636	680.0
1242.637575	680.4000244
1243.183457	678.7999878
1243.729284	679.7999878
1244.275053	678.4000244
1244.820766	678.0
1245.366423	677.2000122
1245.912022	679.0
1246.457566	676.5999756
1247.003053	682.0
1247.548483	684.0
1248.093857	678.2000122
1248.639174	680.5999756
1249.184435	680.0
1249.729639	683.4000244
1250.274787	682.7999878
1250.819878	676.7999878
1251.364912	683.5999756
1251.909891	682.0
1252.454812	681.0
1252.999677	683.2000122
1253.544486	682.0
1254.089238	680.7999878
1254.633934	682.2000122
1255.178573	680.4000244
1255.723156	682.4000244
1256.267682	682.7999878
1256.812152	679.0
1257.356565	683.5999756
1257.900922	684.5999756
1258.445223	690.4000244
1258.989467	688.7999878
1259.533654	687.7999878
1260.077785	693.2000122
1260.62186	689.0
1261.165878	688.4000244
1261.70984	691.4000244
1262.253745	696.4000244
1262.797594	697.0
1263.341386	714.0
1263.885123	716.5999756
1264.428802	717.5999756
1264.972425	712.4000244
1265.515992	704.7999878
1266.059503	701.7999878
1266.602957	694.5999756
1267.146354	688.0
1267.689696	689.0
1268.23298	687.0
1268.776209	687.5999756
1269.319381	690.4000244
1269.862497	685.4000244
1270.405556	685.0
1270.948559	685.4000244
1271.491506	685.0
1272.034396	682.0
1272.57723	685.4000244
1273.120007	687.0
1273.662728	685.0
1274.205393	684.7999878
1274.748002	684.5999756
1275.290554	688.7999878
1275.83305	684.2000122
1276.375489	686.5999756
1276.917872	689.5999756
1277.460199	689.2000122
1278.00247	687.0
1278.544684	690.2000122
1279.086842	689.5999756
1279.628943	696.7999878
1280.170989	701.0
1280.712978	709.0
1281.25491	726.2000122
1281.796787	753.0
1282.338607	803.5999756
1282.880371	926.5999756
1283.422078	1087.599976
1283.963729	1254.199951
1284.505324	1286.400024
1285.046863	1128.199951
1285.588345	928.7999878
1286.129772	802.0
1286.671142	750.7999878
1287.212455	727.0
1287.753713	709.5999756
1288.294914	702.2000122
1288.836059	696.5999756
1289.377147	690.4000244
1289.91818	694.5999756
1290.459156	689.2000122
1291.000076	688.0
1291.54094	689.0
1292.081747	687.4000244
1292.622499	687.2000122
1293.163194	687.2000122
1293.703833	688.7999878
1294.244415	684.5999756
1294.784942	685.7999878
1295.325412	683.2000122
1295.865826	683.0
1296.406184	685.0
1296.946486	685.0
1297.486731	687.5999756
1298.026921	683.5999756
1298.567054	681.2000122
1299.107131	683.0
1299.647152	688.0
1300.187116	680.7999878
1300.727025	683.4000244
1301.266877	683.4000244
1301.806673	685.4000244
1302.346413	682.7999878
1302.886097	686.4000244
1303.425725	682.7999878
1303.965297	685.0
1304.504812	682.5999756
1305.044272	683.2000122
1305.583675	682.4000244
1306.123022	681.0
1306.662313	686.5999756
1307.201548	680.0
1307.740727	679.0
1308.279849	682.4000244
1308.818916	684.2000122
1309.357926	680.0
1309.896881	684.0
1310.435779	678.4000244
1310.974621	686.5999756
1311.513407	685.0
1312.052137	681.4000244
1312.590811	680.4000244
1313.129429	681.4000244
1313.667991	682.0
1314.206497	681.2000122
1314.744946	679.7999878
1315.28334	683.7999878
1315.821678	677.5999756
1316.359959	679.7999878
1316.898184	681.2000122
1317.436354	680.0
1317.974467	679.2000122
1318.512525	681.2000122
1319.050526	683.2000122
1319.588471	681.4000244
1320.12636	679.4000244
1320.664194	678.4000244
1321.201971	675.5999756
1321.739692	680.0
1322.277357	679.4000244
1322.814967	679.4000244
1323.35252	679.0
1323.890017	683.4000244
1324.427458	679.2000122
1324.964843	676.4000244
1325.502173	679.2000122
1326.039446	677.2000122
1326.576663	679.0
1327.113824	682.2000122
1327.65093	680.4000244
1328.187979	679.5999756
1328.724972	678.4000244
1329.26191	680.7999878
1329.798791	679.4000244
1330.335617	678.7999878
1330.872386	681.0
1331.4091	674.5999756
1331.945758	676.7999878
1332.48236	681.0
1333.018905	679.2000122
1333.555395	678.7999878
1334.091829	679.0
1334.628207	678.4000244
1335.164529	678.4000244
1335.700796	679.4000244
1336.237006	675.7999878
1336.77316	677.0
1337.309259	678.4000244
1337.845301	679.5999756
1338.381288	679.0
1338.917219	675.7999878
1339.453094	676.7999878
1339.988913	679.5999756
1340.524676	678.4000244
1341.060383	678.4000244
1341.596034	679.4000244
1342.13163	677.5999756
1342.66717	678.7999878
1343.202653	679.2000122
1343.738081	680.4000244
1344.273453	678.7999878
1344.80877	679.4000244
1345.34403	674.7999878
1345.879235	680.2000122
1346.414383	680.2000122
1346.949476	681.5999756
1347.484513	681.4000244
1348.019494	675.4000244
1348.55442	681.5999756
1349.089289	677.2000122
1349.624103	681.4000244
1350.158861	678.7999878
1350.693563	677.7999878
1351.228209	678.2000122
1351.7628	676.4000244
1352.297334	678.5999756
1352.831813	678.0
1353.366236	678.5999756
1353.900604	676.7999878
1354.434915	680.0
1354.969171	679.7999878
1355.503371	680.0
1356.037515	683.2000122
1356.571604	681.4000244
1357.105636	680.0
1357.639613	680.5999756
1358.173535	679.7999878
1358.7074	679.0
1359.24121	681.4000244
1359.774964	678.0
1360.308662	681.2000122
1360.842304	682.4000244
1361.375891	680.5999756
1361.909422	683.4000244
1362.442897	680.7999878
1362.976317	682.7999878
1363.50968	682.4000244
1364.042989	685.5999756
1364.576241	680.7999878
1365.109438	681.5999756
1365.642579	684.5999756
1366.175664	682.4000244
1366.708693	684.7999878
1367.241667	678.5999756
1367.774585	681.2000122
1368.307448	679.5999756
1368.840255	680.7999878
1369.373006	688.5999756
1369.905701	699.0
1370.438341	712.5999756
1370.970925	698.2000122
1371.503454	685.2000122
1372.035926	688.7999878
1372.568344	686.2000122
1373.100705	684.2000122
1373.633011	680.0
1374.165261	684.5999756
1374.697456	687.5999756
1375.229595	688.0
1375.761678	687.2000122
1376.293705	687.7999878
1376.825677	684.0
1377.357594	687.0
1377.889455	684.7999878
1378.42126	683.5999756
1378.953009	688.5999756
1379.484703	688.5999756
1380.016342	692.5999756
1380.547924	688.7999878
1381.079452	697.0
1381.610923	694.7999878
1382.142339	695.2000122
1382.673699	695.7999878
1383.205004	703.2000122
1383.736253	711.5999756
1384.267447	712.0
1384.798585	726.2000122
1385.329668	735.7999878
1385.860695	767.0
1386.391666	838.4000244
1386.922582	958.4000244
1387.453442	1301.599976
1387.984247	1863.199951
1388.514996	2002.0
1389.04569	1461.400024
1389.576328	1004.799988
1390.10691	829.0
1390.637437	762.7999878
1391.167909	732.4000244
1391.698325	716.2000122
1392.228685	710.7999878
1392.75899	697.5999756
1393.28924	699.7999878
1393.819434	699.0
1394.349572	693.7999878
1394.879655	692.7999878
1395.409683	690.5999756
1395.939655	691.2000122
1396.469571	688.7999878
1396.999432	689.5999756
1397.529237	689.0
1398.058987	686.7999878
1398.588682	688.0
1399.118321	689.2000122
1399.647905	685.2000122
1400.177433	686.2000122
1400.706906	685.0
1401.236323	688.2000122
1401.765685	686.7999878
1402.294991	688.0
1402.824242	691.5999756
1403.353437	686.4000244
1403.882577	687.4000244
1404.411662	686.5999756
1404.940691	689.0
1405.469665	688.5999756
1405.998583	691.2000122
1406.527446	690.4000244
1407.056253	697.0
1407.585005	704.0
1408.113702	712.2000122
1408.642343	722.5999756
1409.170929	730.2000122
1409.69946	746.4000244
1410.227935	745.2000122
1410.756354	728.0
1411.284719	713.0
1411.813028	702.7999878
1412.341281	694.0
1412.869479	690.7999878
1413.397622	687.2000122
1413.92571	679.7999878
1414.453742	686.4000244
1414.981718	677.2000122
1415.50964	695.4000244
1416.037506	683.2000122
1416.565316	682.2000122
1417.093072	682.0
1417.620772	679.2000122
1418.148416	679.4000244
1418.676005	678.0
1419.203539	680.7999878
1419.731018	679.7999878
1420.258441	687.0
1421.840379	716.2000122
1422.367582	680.5999756
1422.894728	679.0
1423.42182	679.7999878
1423.948856	680.4000244
1424.475837	681.0
1425.002762	678.7999878
1425.529633	680.4000244
1426.056448	680.7999878
1426.583207	678.4000244
1427.109912	681.2000122
1427.636561	680.0
1428.163155	679.0
1428.689694	680.2000122
1429.216177	676.2000122
1429.742605	680.0
1430.268978	679.5999756
1430.795296	679.0
1431.321558	679.5999756
1431.847765	676.2000122
1432.373917	679.0
1432.900014	675.7999878
1433.426056	675.0
1433.952042	678.7999878
1434.477973	679.0
1435.003849	678.4000244
1435.529669	676.2000122
1436.055435	675.4000244
1436.581145	680.4000244
1437.1068	676.5999756
1437.632399	676.7999878
1438.157944	677.5999756
1438.683433	678.0
1439.208868	678.4000244
1439.734247	678.2000122
1440.25957	678.2000122
1440.784839	678.7999878
1441.310053	676.2000122
1441.835211	676.5999756
1442.360314	675.7999878
1442.885362	676.5999756
1443.410355	679.7999878
1443.935292	676.2000122
1444.460175	677.5999756
1444.985002	679.7999878
1445.509774	676.7999878
1446.034491	678.7999878
1446.559153	676.2000122
1447.08376	675.7999878
1447.608312	679.2000122
1448.132808	673.4000244
1448.65725	674.5999756
1449.181636	681.2000122
1449.705967	675.7999878
1450.230243	678.4000244
1450.754464	679.5999756
1451.27863	675.7999878
1451.802741	673.7999878
1452.326797	677.2000122
1452.850797	677.4000244
1453.374743	679.4000244
1453.898633	677.4000244
1454.422468	673.5999756
1454.946249	677.7999878
1455.469974	677.0
1455.993644	677.5999756
1456.517259	679.0
1457.040819	674.7999878
1457.564324	676.0
1458.087773	677.7999878
1458.611168	674.2000122
1459.134508	675.7999878
1459.657793	674.2000122
1460.181022	675.4000244
1460.704197	673.2000122
1461.227316	676.7999878
1461.750381	677.7999878
1462.27339	676.2000122
1462.796345	675.0
1463.319244	678.5999756
1463.842089	678.5999756
1464.364878	676.7999878
1464.887613	675.0
1465.410292	675.2000122
1465.932916	673.7999878
1466.455486	671.7999878
1466.978	675.2000122
1467.50046	675.0
1468.022864	672.2000122
1468.545214	675.4000244
1469.067508	674.0
1470.634062	675.5999756
1471.156136	673.7999878
1471.678156	675.2000122
1472.20012	673.2000122
1472.72203	672.2000122
1473.243885	676.2000122
1473.765685	671.7999878
1474.28743	673.4000244
1474.80912	673.2000122
1475.330755	675.4000244
1475.852335	674.2000122
1476.37386	675.7999878
1476.89533	672.0
1477.416745	672.2000122
1477.938106	672.2000122
1478.459411	673.7999878
1478.980662	671.5999756
1479.501857	673.4000244
1480.022998	674.5999756
1480.544084	671.4000244
1481.065115	674.5999756
1481.586091	671.7999878
1482.107012	670.2000122
1482.627878	673.0
1483.14869	671.0
1483.669446	675.4000244
1484.190148	674.7999878
1484.710794	672.0
1485.231386	673.0
1485.751923	672.2000122
1486.272406	672.5999756
1486.792833	673.0
1487.313205	671.4000244
1487.833523	678.0
1488.353786	673.0
1488.873994	674.4000244
1489.394147	669.5999756
1489.914245	671.5999756
1490.434288	670.4000244
1490.954277	673.0
1491.474211	672.7999878
1491.99409	674.5999756
1492.513914	672.7999878
1493.033683	672.7999878
1493.553398	671.7999878
1494.073057	673.5999756
1494.592662	673.4000244
1495.112212	672.7999878
1495.631708	670.0
1496.151148	670.5999756
1496.670534	672.2000122
1497.189865	670.0
1497.709141	672.2000122
1498.228362	673.0
1498.747529	673.4000244
1499.266641	671.7999878
1499.785698	679.5999756
1500.3047	672.2000122
1500.823648	671.0
1501.34254	672.4000244
1501.861379	672.4000244
1502.380162	669.7999878
1502.89889	672.2000122
1503.417564	672.2000122
1503.936183	670.2000122
1504.454748	672.7999878
1504.973257	673.4000244
1505.491712	675.4000244
1506.010112	674.0
1506.528458	671.7999878
1507.046748	672.5999756
1507.564984	671.0
1508.083166	670.7999878
1508.601292	673.2000122
1509.119364	672.7999878
1509.637381	670.7999878
1510.155344	671.4000244
1510.673252	677.5999756
1511.191105	672.7999878
1511.708903	673.5999756
1512.226647	672.2000122
1512.744336	670.2000122
1513.261971	672.5999756
1513.77955	671.0
1514.297076	671.5999756
1514.814546	672.5999756
1515.331962	671.7999878
1515.849323	670.4000244
1516.366629	669.7999878
1516.883881	670.5999756
1517.401078	671.4000244
1517.918221	672.5999756
1518.435309	673.7999878
1518.952342	673.0
1519.469321	674.0
1519.986245	670.7999878
1520.503114	671.5999756
1521.019929	672.0
1521.536689	673.0
1522.053395	673.0
1522.570046	673.7999878
1523.086642	672.7999878
1523.603184	671.7999878
1524.119671	671.7999878
1524.636103	670.0
1525.152481	673.4000244
1525.668805	671.7999878
1526.185073	673.0
1526.701288	673.4000244
1527.217447	671.2000122
1527.733552	674.4000244
1528.249603	670.7999878
1528.765599	672.2000122
1529.28154	672.0
1529.797427	672.0
1530.313259	673.5999756
1530.829037	670.7999878
1531.34476	668.7999878
1531.860429	672.2000122
1532.376043	671.0
1532.891602	670.2000122
1533.407107	672.0
1533.922558	669.7999878
1534.437954	669.2000122
1534.953295	671.7999878
1535.468582	673.4000244
1535.983815	674.0
1536.498993	673.5999756
1537.014116	669.7999878
1537.529185	671.4000244
1538.044199	671.5999756
1538.559159	670.0
1539.074064	673.7999878
1539.588915	672.4000244
1540.103712	673.5999756
1540.618454	670.7999878
1541.133141	672.7999878
1541.647774	672.0
1542.162353	674.2000122
1542.676877	673.7999878
1543.191346	669.2000122
1543.705761	671.2000122
1544.220122	670.7999878
1544.734428	669.2000122
1545.24868	673.2000122
1545.762877	672.4000244
1546.27702	673.0
1546.791109	672.7999878
1547.305143	677.7999878
1547.819122	673.0
1548.333047	673.0
1548.846918	671.0
1549.360734	670.5999756
1549.874496	673.4000244
1550.388204	671.5999756
1550.901857	669.5999756
1551.415455	670.0
1551.929	669.5999756
1552.442489	670.4000244
1552.955925	669.4000244
1553.469306	671.7999878
1553.982632	671.0
1554.495905	670.4000244
1555.009123	672.4000244
1555.522286	672.0
1556.035395	672.2000122
1556.54845	667.4000244
1557.06145	673.4000244
1557.574396	673.7999878
1558.087288	672.7999878
1558.600125	674.0
1559.112908	672.4000244
1559.625637	669.7999878
1560.138311	672.4000244
1560.650931	671.4000244
1561.163497	671.5999756
1561.676008	670.2000122
1562.188465	674.4000244
1562.700867	669.5999756
1563.213216	672.5999756
1563.725509	670.4000244
1564.237749	672.4000244
1564.749934	674.5999756
1565.262065	672.2000122
1565.774142	670.2000122
1566.286164	672.4000244
1566.798132	673.5999756
1567.310046	671.0
1567.821906	673.7999878
1568.333711	670.0
1568.845462	668.4000244
1569.357158	672.2000122
1569.868801	672.4000244
1570.380389	671.7999878
1570.891922	669.2000122
1571.403402	672.7999878
1571.914827	673.0
1572.426198	671.0
1572.937515	671.0
1573.448777	670.2000122
1573.959985	673.0
1574.471139	674.4000244
1574.982239	672.2000122
1575.493285	670.5999756
1576.004276	672.2000122
1576.515213	671.7999878
1577.026096	672.5999756
1577.536924	673.5999756
1578.047698	671.0
1578.558419	673.7999878
1579.069084	673.4000244
1579.579696	675.2000122
1580.090254	673.2000122
1580.600757	673.0
1581.111206	673.4000244
1581.621601	671.4000244
1582.131941	676.5999756
1582.642228	673.0
1583.15246	673.5999756
1583.662638	673.0
1584.172762	674.0
1584.682832	673.0
1585.192847	673.5999756
1585.702809	672.4000244
1586.212716	673.2000122
1586.722569	671.4000244
1587.232368	672.4000244
1587.742113	672.4000244
1588.251803	673.7999878
1588.76144	675.0
1589.271022	670.7999878
1589.78055	673.5999756
1590.290024	672.7999878
1590.799444	675.5999756
1591.30881	671.7999878
1591.818121	674.0
1592.327379	669.5999756
