1042.452273	689.4000244
1043.018714	688.7999878
1043.585098	686.5999756
1044.151424	686.0
1044.717692	688.4000244
1045.283903	683.4000244
1045.850056	686.7999878
1046.416151	689.2000122
1046.982188	681.5999756
1047.548167	679.0
1048.114089	681.0
1048.679953	682.7999878
1049.24576	683.0
1049.811509	678.4000244
1050.3772	681.2000122
1050.942833	682.4000244
1051.508408	681.5999756
1052.073926	679.0
1052.639387	677.0
1053.204789	678.7999878
1053.770134	676.5999756
1054.335421	676.5999756
1054.900651	676.0
1055.465823	677.2000122
1056.030937	676.0
1056.595993	677.0
1057.160992	673.5999756
1057.725934	678.5999756
1058.290817	674.0
1058.855643	676.7999878
1059.420411	675.7999878
1059.985122	674.4000244
1060.549775	677.4000244
1061.114371	676.2000122
1061.678908	674.5999756
1062.243389	674.2000122
1062.807811	675.2000122
1063.372176	674.2000122
1063.936483	674.2000122
1064.500733	675.4000244
1065.064925	675.5999756
1065.62906	675.4000244
1066.193137	677.0
1066.757156	676.0
1067.321118	675.4000244
1067.885022	673.4000244
1068.448869	672.5999756
1069.012658	671.7999878
1069.57639	675.5999756
1070.140063	680.5999756
1070.70368	677.5999756
1071.267239	672.7999878
1071.83074	670.4000244
1072.394184	673.7999878
1072.95757	672.7999878
1073.520899	670.7999878
1074.08417	675.2000122
1074.647383	673.5999756
1075.21054	672.2000122
1075.773638	675.5999756
1076.336679	672.5999756
1076.899663	673.5999756
1077.462589	672.5999756
1078.025457	675.2000122
1078.588268	673.4000244
1079.151022	672.7999878
1079.713718	671.0
1080.276356	672.4000244
1080.838937	676.2000122
1081.401461	674.4000244
1081.963927	674.2000122
1082.526336	673.4000244
1083.088687	672.4000244
1083.650981	673.5999756
1084.213217	674.2000122
1084.775396	674.2000122
1085.337517	670.2000122
1085.899581	673.4000244
1086.461587	674.2000122
1087.023536	672.7999878
1087.585428	675.4000244
1088.147262	672.0
1088.709039	672.7999878
1089.270758	671.7999878
1089.83242	671.4000244
1090.394024	672.4000244
1090.955571	673.5999756
1091.517061	671.2000122
1092.078493	672.2000122
1092.639868	671.0
1093.201185	675.7999878
1093.762445	673.0
1094.323648	674.0
1094.884793	673.0
1095.445881	689.0
1096.006911	673.4000244
1096.567884	674.7999878
1097.1288	678.2000122
1097.689659	673.0
1098.25046	672.7999878
1098.811203	674.5999756
1099.37189	671.2000122
1099.932518	672.0
1100.49309	673.5999756
1101.053604	674.2000122
1101.614061	673.4000244
1102.174461	675.5999756
1102.734803	671.2000122
1103.295088	673.5999756
1103.855316	674.0
1104.415486	673.0
1104.975599	674.4000244
1105.535655	672.4000244
1106.095653	673.5999756
1106.655594	676.0
1107.215478	677.0
1107.775305	677.0
1108.335074	677.2000122
1108.894786	678.0
1109.45444	677.7999878
1110.014038	679.2000122
1110.573578	677.0
1111.133061	679.4000244
1111.692486	681.0
1112.251854	679.7999878
1112.811165	678.2000122
1113.370419	679.7999878
1113.929616	684.7999878
1114.488755	677.5999756
1115.047837	677.4000244
1115.606862	679.5999756
1116.16583	678.5999756
1116.72474	679.0
1117.283593	676.4000244
1117.842389	676.5999756
1118.401128	674.5999756
1118.959809	674.5999756
1119.518433	672.5999756
1120.077	673.4000244
1120.63551	678.2000122
1121.193963	676.7999878
1121.752358	674.4000244
1122.310697	673.5999756
1122.868978	673.2000122
1123.427202	674.0
1123.985368	675.0
1124.543478	674.0
1125.10153	672.7999878
1125.659526	675.4000244
1126.217464	672.2000122
1126.775345	673.0
1127.333168	672.7999878
1127.890935	670.7999878
1128.448644	671.7999878
1129.006297	674.2000122
1129.563892	672.2000122
1130.12143	671.0
1130.678911	672.2000122
1131.236335	675.0
1131.793701	671.0
1132.351011	673.4000244
1132.908263	673.5999756
1133.465458	672.2000122
1134.022597	674.4000244
1134.579678	673.7999878
1135.136702	675.2000122
1135.693669	673.5999756
1136.250578	671.5999756
1136.807431	670.7999878
1137.364227	673.0
1137.920965	672.5999756
1138.477647	672.0
1139.034271	674.2000122
1139.590839	672.7999878
1140.147349	672.4000244
1140.703802	672.0
1141.260198	674.7999878
1141.816537	674.0
1142.37282	673.2000122
1142.929045	674.2000122
1143.485213	670.0
1144.041323	670.7999878
1144.597377	669.7999878
1145.153374	673.7999878
1145.709314	674.7999878
1146.265197	673.5999756
1146.821023	667.7999878
1147.376792	671.5999756
1147.932503	674.2000122
1148.488158	673.4000244
1149.043756	670.4000244
1149.599297	673.4000244
1150.154781	672.7999878
1150.710207	672.0
1151.265577	673.0
1151.82089	674.2000122
1152.376146	671.0
1152.931345	671.5999756
1153.486487	671.2000122
1154.041572	670.4000244
1154.5966	673.2000122
1155.151571	670.2000122
1155.706485	672.5999756
1156.261342	673.0
1156.816142	670.4000244
1157.370885	674.4000244
1157.925572	673.2000122
1158.480201	670.5999756
1159.034774	672.5999756
1159.589289	672.4000244
1160.143748	673.7999878
1160.698149	677.2000122
1161.252494	675.4000244
1161.806782	671.0
1162.361013	671.7999878
1162.915187	668.5999756
1163.469304	673.4000244
1164.023364	672.0
1164.577368	672.4000244
1165.131314	670.2000122
1165.685204	672.4000244
1166.239036	671.0
1166.792812	672.0
1167.346531	671.5999756
1167.900193	674.5999756
1168.453798	670.7999878
1169.007347	671.0
1169.560838	671.5999756
1170.114273	670.4000244
1170.66765	672.2000122
1171.220971	672.5999756
1171.774235	670.0
1172.327443	670.5999756
1172.880593	671.0
1173.433687	672.2000122
1173.986723	671.0
1174.539703	670.7999878
1175.092626	671.2000122
1175.645493	672.0
1176.198302	672.7999878
1176.751055	674.4000244
1177.303751	671.7999878
1177.85639	674.5999756
1178.408972	672.2000122
1178.961498	672.7999878
1179.513966	672.7999878
1180.066378	673.4000244
1180.618733	673.7999878
1181.171032	673.0
1181.723273	677.5999756
1182.275458	677.2000122
1182.827586	674.0
1183.379657	674.4000244
1183.931672	674.7999878
1184.48363	677.4000244
1185.035531	680.7999878
1185.587375	676.0
1186.139162	674.4000244
1186.690893	674.2000122
1187.242567	674.4000244
1187.794184	676.5999756
1188.345745	675.2000122
1188.897249	675.0
1189.448696	674.4000244
1190.000086	673.2000122
1190.55142	676.4000244
1191.102697	674.4000244
1191.653918	678.0
1192.205081	676.7999878
1192.756188	675.5999756
1193.307238	693.4000244
1193.858232	672.0
1194.409169	673.4000244
1194.960049	673.5999756
1195.510872	674.7999878
1196.061639	670.2000122
1196.612349	672.4000244
1197.163003	670.4000244
1197.713599	672.4000244
1198.264139	671.2000122
1198.814623	672.5999756
1199.36505	673.5999756
1199.91542	672.5999756
1200.465734	671.2000122
1201.01599	672.2000122
1201.566191	671.2000122
1202.116334	668.0
1202.666421	671.4000244
1203.216452	675.2000122
1203.766425	673.7999878
1204.316343	671.7999878
1204.866203	671.0
1205.416007	674.2000122
1205.965754	674.0
1206.515445	672.7999878
1207.065079	672.7999878
1207.614657	670.7999878
1208.164177	671.0
1208.713642	673.0
1209.26305	672.7999878
1209.812401	673.5999756
1210.361695	673.7999878
1210.910933	674.2000122
1211.460115	670.5999756
1212.00924	675.5999756
1212.558308	675.0
1213.10732	674.5999756
1213.656275	674.0
1214.205174	673.0
1214.754016	675.5999756
1215.302801	676.0
1215.85153	674.7999878
1216.400203	676.4000244
1216.948819	677.0
1217.497378	677.2000122
1218.045881	677.2000122
1218.594327	675.5999756
1219.142717	675.7999878
1219.691051	673.2000122
1220.239327	672.7999878
1220.787548	674.7999878
1221.335712	674.5999756
1221.883819	672.2000122
1222.43187	674.4000244
1222.979864	676.7999878
1223.527802	676.7999878
1224.075683	677.7999878
1224.623508	673.7999878
1225.171277	676.4000244
1225.718989	675.0
1226.266644	674.7999878
1226.814243	674.0
1227.361786	679.4000244
1227.909272	672.7999878
1228.456702	676.5999756
1229.004075	677.0
1229.551392	677.0
1230.098652	680.2000122
1230.645856	678.7999878
1231.193003	678.2000122
1231.740094	678.4000244
1232.287129	676.5999756
1232.834107	678.0
1233.381029	677.2000122
1233.927894	676.5999756
1234.474703	676.2000122
1235.021455	678.5999756
1235.568151	677.5999756
1236.114791	682.4000244
1236.661374	675.5999756
1237.207901	676.5999756
1237.754372	676.4000244
1238.300786	674.7999878
1238.847144	674.2000122
1239.393445	678.5999756
1239.93969	675.0
1240.485879	676.0
1241.032011	673.5999756
1241.578087	676.0
1242.124106	677.4000244
1242.67007	677.2000122
1243.215976	675.4000244
1243.761827	680.2000122
1244.307621	677.7999878
1244.853359	678.5999756
1245.39904	677.2000122
1245.944665	682.7999878
1246.490234	681.5999756
1247.035746	679.7999878
1247.581203	678.5999756
1248.126602	681.4000244
1248.671946	680.2000122
1249.217233	680.4000244
1249.762464	678.7999878
1250.307638	680.2000122
1250.852757	682.0
1251.397819	684.4000244
1251.942824	679.2000122
1252.487774	680.0
1253.032667	680.5999756
1253.577503	682.4000244
1254.122284	684.7999878
1254.667008	680.0
1255.211676	682.5999756
1255.756288	680.2000122
1256.300843	680.5999756
1256.845342	680.0
1257.389785	689.2000122
1257.934172	689.0
1258.478502	690.5999756
1259.022776	690.5999756
1259.566994	690.7999878
1260.111156	708.2000122
1260.655261	695.0
1261.199311	700.7999878
1261.743304	709.2000122
1262.28724	717.0
1262.831121	725.7999878
1263.374945	721.5999756
1263.918713	721.2000122
1264.462425	711.5999756
1265.006081	706.5999756
1265.54968	696.5999756
1266.093223	693.2000122
1266.636711	689.0
1267.180141	689.5999756
1267.723516	690.5999756
1268.266835	688.0
1268.810097	688.2000122
1269.353303	688.2000122
1269.896453	689.5999756
1270.439547	690.0
1270.982584	690.0
1271.525566	684.7999878
1272.068491	685.2000122
1272.61136	684.2000122
1273.154173	686.7999878
1273.69693	690.5999756
1274.239631	686.7999878
1274.782275	686.5999756
1275.324864	689.2000122
1275.867396	688.7999878
1276.409872	690.5999756
1276.952292	692.0
1277.494656	695.4000244
1278.036964	694.7999878
1278.579215	697.4000244
1279.121411	706.0
1279.66355	713.5999756
1280.205634	723.7999878
1280.747661	748.4000244
1281.289632	795.4000244
1281.831547	909.7999878
1282.373406	1121.800049
1282.915209	1398.599976
1283.456955	1548.199951
1283.998646	1409.599976
1284.540281	1110.199951
1285.081859	900.4000244
1285.623381	804.0
1286.164848	749.2000122
1286.706258	731.7999878
1287.247612	716.2000122
1287.788911	705.4000244
1288.330153	700.7999878
1288.871339	699.0
1289.412469	697.4000244
1289.953543	694.7999878
1290.494561	691.2000122
1291.035523	693.2000122
1291.576428	691.0
1292.117278	688.7999878
1292.658072	687.2000122
1293.19881	686.5999756
1293.739492	687.5999756
1294.280118	686.7999878
1294.820687	688.5999756
1295.361201	685.7999878
1295.901659	684.0
1296.442061	681.2000122
1296.982406	681.5999756
1297.522696	686.4000244
1298.06293	685.0
1298.603108	685.7999878
1299.143229	685.5999756
1299.683295	685.0
1300.223305	686.7999878
1300.763259	686.7999878
1301.303157	682.5999756
1301.842999	684.7999878
1302.382785	683.0
1302.922515	686.7999878
1303.462189	682.7999878
1304.001807	683.7999878
1304.541369	682.5999756
1305.080875	682.2000122
1305.620326	681.5999756
1306.15972	678.2000122
1306.699058	680.2000122
1307.238341	680.2000122
1307.777567	680.7999878
1308.316738	680.4000244
1308.855853	679.7999878
1309.394912	682.2000122
1309.933915	676.5999756
1310.472862	679.0
1311.011753	679.0
1311.550588	679.2000122
1312.089367	678.5999756
1312.62809	679.4000244
1313.166758	678.0
1313.70537	679.4000244
1314.243925	677.0
1314.782425	677.4000244
1315.320869	680.2000122
1315.859257	677.2000122
1316.397589	678.0
1316.935866	680.2000122
1317.474086	680.0
1318.012251	678.4000244
1318.55036	678.5999756
1319.088413	677.5999756
1319.62641	678.4000244
1320.164351	676.4000244
1320.702236	678.2000122
1321.240066	678.5999756
1321.777839	677.2000122
1322.315557	680.7999878
1322.853219	679.2000122
1323.390826	673.5999756
1323.928376	683.0
1324.465871	678.2000122
1325.003309	674.2000122
1325.540692	675.7999878
1326.07802	680.2000122
1326.615291	677.4000244
1327.152506	672.2000122
1327.689666	676.5999756
1328.22677	675.7999878
1328.763818	675.2000122
1329.300811	676.5999756
1329.837747	679.7999878
1330.374628	675.5999756
1330.911453	675.5999756
1331.448222	674.7999878
1331.984936	674.7999878
1332.521594	676.5999756
1333.058196	679.7999878
1333.594742	677.7999878
1334.131232	675.0
1334.667667	676.7999878
1335.204046	677.2000122
1335.740369	678.4000244
1336.276637	677.2000122
1336.812848	678.2000122
1337.349004	677.7999878
1337.885105	676.4000244
1338.421149	678.4000244
1338.957138	676.0
1339.493071	679.4000244
1340.028949	678.5999756
1340.56477	674.7999878
1341.100536	678.2000122
1341.636246	676.0
1342.171901	678.0
1342.7075	678.4000244
1343.243043	677.0
1343.77853	674.0
1344.313962	673.4000244
1344.849338	679.7999878
1345.384659	675.2000122
1345.919923	676.2000122
1346.455133	679.0
1346.990286	678.7999878
1347.525384	676.4000244
1348.060426	675.2000122
1348.595412	676.5999756
1349.130343	675.0
1349.665218	681.2000122
1350.200037	678.5999756
1350.734801	680.2000122
1351.269509	675.7999878
1351.804162	677.7999878
1352.338758	678.2000122
1352.8733	678.7999878
1353.407785	676.0
1353.942215	677.2000122
1354.476589	680.0
1355.010908	677.2000122
1355.545171	678.2000122
1356.079379	678.4000244
1356.61353	676.7999878
1357.147627	678.5999756
1357.681667	678.5999756
1358.215652	677.4000244
1358.749582	678.2000122
1359.283456	678.2000122
1359.817274	677.7999878
1360.351037	677.5999756
1360.884744	680.2000122
1361.418395	680.2000122
1361.951991	681.0
1362.485531	681.4000244
1363.019016	678.7999878
1363.552445	680.2000122
1364.085819	682.7999878
1364.619137	681.5999756
1365.1524	687.7999878
1365.685607	683.5999756
1366.218758	683.2000122
1366.751854	682.0
1367.284894	681.4000244
1367.817879	681.2000122
1368.350808	683.7999878
1368.883682	688.2000122
1369.4165	700.5999756
1369.949263	721.4000244
1370.48197	702.4000244
1371.014622	691.7999878
1371.547218	683.7999878
1372.079758	683.4000244
1372.612244	686.2000122
1373.144673	683.5999756
1373.677047	685.7999878
1374.209366	687.5999756
1374.741629	686.0
1375.273836	686.2000122
1375.805989	688.5999756
1376.338085	685.7999878
1376.870126	686.4000244
1377.402112	689.2000122
1377.934042	690.2000122
1378.465917	693.4000244
1378.997736	693.5999756
1379.5295	695.4000244
1380.061208	696.4000244
1380.592861	694.4000244
1381.124459	701.0
1381.656	698.7999878
1382.187487	706.4000244
1382.718918	710.4000244
1383.250294	716.2000122
1383.781614	730.0
1384.312879	745.5999756
1384.844088	774.4000244
1385.375242	817.2000122
1385.90634	921.4000244
1386.437383	1123.0
1386.968371	1630.599976
1387.499303	2378.0
1388.03018	2382.0
1388.561001	1611.800049
1389.091767	1085.400024
1389.622478	876.4000244
1390.153133	800.2000122
1390.683733	752.7999878
1391.214277	732.4000244
1391.744766	726.4000244
1392.2752	715.5999756
1392.805578	709.4000244
1393.335901	702.2000122
1393.866168	702.0
1394.396381	701.0
1394.926537	694.5999756
1395.456639	692.4000244
1395.986685	690.7999878
1396.516675	692.0
1397.046611	691.2000122
1397.576491	690.0
1398.106315	687.5999756
1398.636084	690.0
1399.165798	689.5999756
1399.695457	687.0
1400.22506	689.4000244
1400.754608	685.7999878
1401.284101	686.0
1401.813538	692.0
1402.34292	689.7999878
1402.872247	687.7999878
1403.401518	693.0
1403.930734	688.7999878
1404.459895	692.2000122
1404.989	694.4000244
1405.51805	694.7999878
1406.047045	697.7999878
1406.575984	710.0
1407.104869	715.0
1407.633697	726.2000122
1408.162471	733.7999878
1408.691189	753.5999756
1409.219852	757.5999756
1409.74846	757.2000122
1410.277013	735.2000122
1410.80551	719.5999756
1411.333952	706.7999878
1411.862339	696.7999878
1412.39067	691.2000122
1412.918946	689.4000244
1413.447167	687.2000122
1413.975333	682.4000244
1414.503444	680.2000122
1415.031499	679.2000122
1415.559499	694.7999878
1416.087444	679.5999756
1416.615333	678.0
1417.143167	681.5999756
1417.670947	678.7999878
1418.19867	678.2000122
1418.726339	674.2000122
1419.253952	674.0
1419.781511	676.5999756
1420.309014	678.5999756
1420.836461	677.0
1421.363854	678.7999878
1421.891191	675.5999756
1422.418474	676.2000122
1422.945701	675.4000244
1423.472872	678.5999756
1423.999989	676.5999756
1424.52705	678.7999878
1425.054057	677.2000122
1425.581008	677.0
1426.107904	676.2000122
1426.634745	676.2000122
1427.16153	674.0
1427.688261	672.5999756
1428.214936	676.4000244
1428.741556	675.0
1429.268121	674.0
1429.794631	676.4000244
1430.321085	675.5999756
1430.847485	676.4000244
1431.373829	678.2000122
1431.900118	671.4000244
1432.426353	676.7999878
1432.952532	672.5999756
1433.478655	676.5999756
1434.004724	677.0
1434.530738	676.4000244
1435.056696	673.0
1435.5826	674.7999878
1436.108448	674.7999878
1436.634241	675.0
1437.159979	674.5999756
1437.685662	673.4000244
1438.21129	673.4000244
1438.736863	673.0
1439.262381	675.5999756
1439.787843	673.5999756
1440.313251	676.7999878
1440.838603	674.5999756
1441.3639	676.0
1441.889143	671.0
1442.41433	675.2000122
1442.939462	673.5999756
1443.464539	672.7999878
1443.989561	673.4000244
1444.514528	674.4000244
1445.03944	673.4000244
1445.564297	674.0
1446.089099	674.7999878
1446.613846	672.2000122
1447.138537	673.7999878
1447.663174	673.7999878
1448.187756	674.4000244
1448.712282	672.5999756
1449.236754	674.0
1449.761171	673.7999878
1450.285532	671.4000244
1450.809839	674.7999878
1451.33409	671.4000244
1451.858287	673.2000122
1452.382428	673.5999756
1452.906515	671.7999878
1453.430546	670.7999878
1453.954523	672.5999756
1454.478444	672.5999756
1455.002311	676.7999878
1455.526123	674.7999878
1456.049879	674.4000244
1456.573581	671.4000244
1457.097227	672.4000244
1457.620819	671.7999878
1458.144356	673.5999756
1458.667837	674.7999878
1459.191264	671.5999756
1459.714636	671.2000122
1460.237952	671.0
1460.761214	673.2000122
1461.284421	675.7999878
1461.807573	673.0
1462.33067	677.4000244
1462.853712	673.7999878
1463.376699	674.2000122
1463.899632	672.7999878
1464.422509	672.2000122
1464.945331	673.4000244
1465.468099	675.7999878
1465.990811	672.5999756
1466.513469	672.2000122
1467.036071	673.4000244
1467.558619	672.5999756
1468.081112	672.5999756
1468.60355	669.7999878
1469.125933	672.0
1469.648261	673.4000244
1470.170534	676.4000244
1470.692752	674.7999878
1471.214916	670.7999878
1471.737024	672.0
1472.259078	676.2000122
1472.781077	670.5999756
1473.303021	670.0
1473.82491	671.0
1474.346744	671.7999878
1474.868523	671.7999878
1475.390248	670.5999756
1475.911917	669.7999878
1476.433532	673.2000122
1476.955092	670.2000122
1477.476597	669.2000122
1477.998047	676.0
1479.040783	677.2000122
1479.562068	669.7999878
1480.083299	670.4000244
1480.604475	670.7999878
1481.125596	670.4000244
1481.646663	667.7999878
1482.167674	669.4000244
1482.688631	668.2000122
1483.209533	671.2000122
1483.73038	670.7999878
1484.251172	670.4000244
1484.771909	669.4000244
1485.292592	672.0
1485.81322	669.2000122
1486.333793	667.5999756
1486.854311	668.7999878
1487.374775	670.2000122
1487.895183	670.7999878
1488.415537	669.4000244
1488.935836	668.4000244
1489.456081	667.4000244
1489.97627	668.0
1490.496405	668.0
1491.016485	667.4000244
1491.536511	665.4000244
1492.056481	669.7999878
1492.576397	666.4000244
1493.096258	670.5999756
1493.616064	669.5999756
1494.135816	669.7999878
1494.655513	669.2000122
1495.175155	667.5999756
1495.694742	669.0
1496.214274	669.5999756
1496.733752	671.0
1497.253175	667.4000244
1497.772544	665.4000244
1498.291858	670.4000244
1498.811116	668.7999878
1499.330321	669.7999878
1499.84947	676.7999878
1500.368565	670.5999756
1500.887605	672.0
1501.406591	669.5999756
1501.925521	666.7999878
1502.444397	668.4000244
1502.963219	668.7999878
1503.481985	668.4000244
1504.000697	668.4000244
1504.519355	672.2000122
1505.037957	668.2000122
1505.556505	669.2000122
1506.074999	670.0
1506.593437	667.7999878
1507.111821	667.4000244
1507.63015	666.7999878
1508.148425	668.5999756
1508.666645	667.7999878
1509.18481	669.2000122
1509.702921	669.4000244
1510.220977	668.2000122
1510.738979	681.0
1511.256925	666.4000244
1511.774817	667.0
1512.292655	670.7999878
1512.810438	669.5999756
1513.328166	669.5999756
1513.84584	668.7999878
1514.363459	669.7999878
1514.881023	671.2000122
1515.398533	669.0
1515.915988	667.0
1516.433389	669.5999756
1516.950734	665.7999878
1517.468026	671.0
1517.985263	670.0
1518.502445	669.2000122
1519.019572	665.0
1519.536645	667.5999756
1520.053664	669.2000122
1520.570628	669.0
1521.087537	665.0
1521.604392	670.2000122
1522.121192	667.0
1522.637937	666.2000122
1523.154628	669.4000244
1523.671265	667.4000244
1524.187847	670.5999756
1524.704374	668.5999756
1525.220847	669.4000244
1525.737265	669.2000122
1526.253629	669.7999878
1526.769938	672.5999756
1527.286192	668.0
1527.802392	665.2000122
1528.318538	670.7999878
1528.834629	669.0
1529.350666	668.2000122
1529.866648	669.5999756
1530.382575	670.7999878
1530.898448	665.4000244
1531.414266	668.2000122
1531.93003	672.2000122
1532.44574	666.2000122
1532.961395	667.5999756
1533.476995	668.5999756
1533.992541	666.0
1534.508033	666.4000244
1535.02347	670.5999756
1535.538852	669.5999756
1536.05418	668.5999756
1536.569454	664.7999878
1537.084673	669.5999756
1537.599837	669.2000122
1538.114947	667.5999756
1538.630003	666.0
1539.145004	667.7999878
1539.659951	668.5999756
1540.174843	669.2000122
1540.689681	668.4000244
1541.204465	667.5999756
1541.719194	669.0
1542.233868	666.2000122
1542.748488	666.5999756
1543.263054	667.5999756
1543.777565	669.0
1544.292022	667.4000244
1544.806424	670.5999756
1545.320772	664.7999878
1545.835066	669.4000244
1546.349305	670.7999878
1546.863489	666.7999878
1547.37762	668.4000244
1547.891696	667.2000122
1548.405717	667.4000244
1548.919684	665.2000122
1549.433597	669.7999878
1549.947455	668.2000122
1550.461259	666.7999878
1550.975009	671.2000122
1551.488704	669.2000122
1552.002345	665.4000244
1552.515931	666.5999756
1553.029463	668.7999878
1553.542941	669.0
1554.056364	669.4000244
1554.569733	670.5999756
1555.083048	667.7999878
1555.596308	666.0
1556.109514	664.7999878
1556.622665	664.5999756
1557.135762	668.0
1557.648805	669.0
1558.161794	667.4000244
1558.674728	670.5999756
1559.187608	668.5999756
1559.700433	664.4000244
1560.213205	665.7999878
1560.725921	667.5999756
1561.238584	666.0
1561.751192	667.7999878
1562.263746	668.4000244
1562.776246	668.4000244
1563.288691	670.4000244
1563.801082	668.0
1564.313419	670.5999756
1564.825701	668.4000244
1565.337929	667.5999756
1565.850103	666.5999756
1566.362223	669.7999878
1566.874288	667.2000122
1567.386299	665.7999878
1567.898256	668.2000122
1568.410158	666.0
1568.922007	668.2000122
1569.4338	669.4000244
1569.94554	667.0
1570.457226	669.5999756
1570.968857	666.5999756
1571.480434	668.7999878
1571.991956	669.4000244
1572.503425	668.4000244
1573.014839	670.0
1573.526199	666.7999878
1574.037505	666.5999756
1574.548756	668.2000122
1575.059953	668.2000122
1575.571096	669.4000244
1576.082185	669.7999878
1576.59322	669.7999878
1577.1042	669.4000244
1577.615126	669.7999878
1578.125998	668.0
1578.636816	667.5999756
1579.14758	671.4000244
1579.658289	670.5999756
1580.168944	666.4000244
1580.679545	669.0
1581.190092	668.7999878
1581.700585	668.4000244
1582.211023	670.4000244
1582.721407	668.4000244
1583.231737	672.2000122
1583.742013	672.7999878
1584.252235	668.7999878
1584.762403	671.5999756
1585.272516	665.0
1585.782575	670.4000244
1586.292581	667.0
1586.802532	670.0
1587.312428	668.5999756
1587.822271	666.5999756
1588.33206	667.0
1588.841794	672.5999756
1589.351474	668.4000244
1589.8611	668.2000122
1590.370672	668.0
1590.88019	670.2000122
1591.389654	666.7999878
1591.899064	668.2000122
1592.408419	665.4000244
