1042.452273	688.2000122
1043.018714	687.2000122
1043.585098	687.4000244
1044.151424	685.4000244
1044.717692	683.0
1045.283903	682.4000244
1045.850056	681.4000244
1046.416151	681.2000122
1046.982188	680.2000122
1047.548167	684.0
1048.114089	680.2000122
1048.679953	677.4000244
1049.24576	680.7999878
1049.811509	679.4000244
1050.3772	678.7999878
1050.942833	681.4000244
1051.508408	675.7999878
1052.073926	676.4000244
1052.639387	675.0
1053.204789	677.2000122
1053.770134	676.4000244
1054.335421	675.5999756
1054.900651	677.5999756
1055.465823	677.0
1056.030937	675.4000244
1056.595993	673.0
1057.160992	671.4000244
1057.725934	672.0
1058.290817	672.5999756
1058.855643	673.4000244
1059.420411	672.5999756
1059.985122	673.5999756
1060.549775	673.5999756
1061.114371	668.7999878
1061.678908	670.4000244
1062.243389	668.2000122
1062.807811	673.5999756
1063.372176	673.7999878
1063.936483	671.2000122
1064.500733	671.2000122
1065.064925	670.0
1065.62906	674.5999756
1066.193137	675.0
1066.757156	670.7999878
1067.321118	672.7999878
1067.885022	672.2000122
1068.448869	670.5999756
1069.012658	676.5999756
1069.57639	670.0
1070.140063	677.5999756
1070.70368	672.0
1071.267239	669.4000244
1071.83074	674.2000122
1072.394184	673.2000122
1072.95757	673.4000244
1074.08417	681.2000122
1074.647383	673.7999878
1075.21054	674.0
1075.773638	676.2000122
1076.336679	674.7999878
1076.899663	672.4000244
1077.462589	677.0
1078.025457	674.4000244
1078.588268	679.0
1079.151022	675.4000244
1079.713718	675.0
1080.276356	680.4000244
1080.838937	678.5999756
1081.401461	678.2000122
1081.963927	679.4000244
1082.526336	682.5999756
1083.088687	679.2000122
1083.650981	684.4000244
1084.213217	685.0
1084.775396	687.2000122
1085.337517	689.5999756
1085.899581	685.5999756
1086.461587	689.4000244
1087.023536	694.0
1087.585428	690.7999878
1088.147262	691.2000122
1088.709039	694.7999878
1089.270758	694.4000244
1089.83242	697.4000244
1090.394024	696.2000122
1090.955571	699.7999878
1091.517061	700.0
1092.078493	697.4000244
1092.639868	699.4000244
1093.201185	700.5999756
1093.762445	701.2000122
1094.323648	698.7999878
1094.884793	694.4000244
1095.445881	709.2000122
1096.006911	691.7999878
1096.567884	690.2000122
1097.1288	699.0
1097.689659	684.7999878
1098.25046	684.5999756
1098.811203	684.2000122
1099.37189	687.7999878
1099.932518	683.0
1100.49309	680.7999878
1101.053604	680.0
1101.614061	678.4000244
1102.174461	677.2000122
1102.734803	679.2000122
1103.295088	676.0
1103.855316	679.4000244
1104.415486	679.0
1104.975599	674.5999756
1105.535655	677.0
1106.095653	673.5999756
1106.655594	676.0
1107.215478	676.0
1107.775305	675.0
1108.335074	678.2000122
1108.894786	677.2000122
1109.45444	679.2000122
1110.014038	677.4000244
1110.573578	679.4000244
1111.133061	677.2000122
1111.692486	677.2000122
1112.251854	680.0
1112.811165	680.0
1113.370419	680.4000244
1113.929616	680.4000244
1114.488755	678.4000244
1115.047837	676.7999878
1115.606862	678.5999756
1116.16583	676.2000122
1116.72474	678.7999878
1117.283593	677.4000244
1117.842389	676.7999878
1118.401128	671.0
1118.959809	673.5999756
1119.518433	673.2000122
1120.077	673.4000244
1120.63551	671.7999878
1121.193963	674.2000122
1121.752358	673.5999756
1122.310697	672.4000244
1122.868978	674.4000244
1123.427202	670.7999878
1123.985368	671.5999756
1124.543478	670.5999756
1125.10153	666.4000244
1125.659526	670.4000244
1126.217464	670.7999878
1126.775345	669.4000244
1127.333168	670.7999878
1127.890935	668.7999878
1128.448644	672.7999878
1129.006297	666.5999756
1129.563892	671.7999878
1130.12143	667.2000122
1130.678911	669.7999878
1131.236335	668.5999756
1131.793701	670.4000244
1132.351011	668.2000122
1132.908263	666.7999878
1133.465458	669.5999756
1134.022597	666.5999756
1134.579678	668.7999878
1135.136702	666.5999756
1135.693669	668.7999878
1136.250578	667.2000122
1136.807431	669.5999756
1137.364227	668.4000244
1137.920965	667.5999756
1138.477647	669.4000244
1139.034271	672.0
1139.590839	668.2000122
1140.147349	668.0
1140.703802	665.7999878
1141.260198	671.5999756
1141.816537	669.0
1142.37282	667.0
1142.929045	671.5999756
1143.485213	669.4000244
1144.041323	667.5999756
1144.597377	668.7999878
1145.153374	670.5999756
1145.709314	669.4000244
1146.265197	668.5999756
1146.821023	668.0
1147.376792	668.5999756
1147.932503	670.2000122
1148.488158	669.5999756
1149.043756	669.4000244
1149.599297	668.5999756
1150.154781	668.4000244
1150.710207	669.2000122
1151.265577	664.2000122
1151.82089	666.4000244
1152.376146	669.4000244
1152.931345	670.5999756
1153.486487	667.5999756
1154.041572	667.7999878
1154.5966	670.2000122
1155.151571	669.5999756
1155.706485	669.7999878
1156.261342	665.4000244
1156.816142	668.2000122
1157.370885	667.0
1157.925572	667.2000122
1158.480201	665.4000244
1159.034774	667.2000122
1159.589289	669.7999878
1160.143748	668.7999878
1160.698149	669.0
1161.252494	668.4000244
1161.806782	667.4000244
1162.361013	669.4000244
1162.915187	666.4000244
1163.469304	665.2000122
1164.023364	667.7999878
1164.577368	667.7999878
1165.131314	668.5999756
1165.685204	668.5999756
1166.239036	667.7999878
1166.792812	665.7999878
1167.346531	667.4000244
1167.900193	669.2000122
1168.453798	667.5999756
1169.007347	665.7999878
1169.560838	665.2000122
1170.114273	668.5999756
1170.66765	667.2000122
1171.220971	669.4000244
1171.774235	669.2000122
1172.327443	666.0
1172.880593	668.0
1173.433687	666.5999756
1173.986723	667.5999756
1174.539703	673.2000122
1175.092626	669.4000244
1175.645493	669.2000122
1176.198302	666.5999756
1176.751055	669.4000244
1177.303751	668.2000122
1177.85639	672.2000122
1178.408972	668.2000122
1178.961498	670.0
1179.513966	668.4000244
1180.066378	671.2000122
1180.618733	670.7999878
1181.171032	670.2000122
1181.723273	672.5999756
1182.275458	673.7999878
1182.827586	675.7999878
1183.379657	672.5999756
1183.931672	672.5999756
1184.48363	671.5999756
1185.035531	671.0
1185.587375	676.5999756
1186.139162	672.2000122
1186.690893	673.4000244
1187.242567	671.4000244
1187.794184	673.7999878
1188.345745	673.7999878
1188.897249	670.7999878
1189.448696	674.2000122
1190.000086	672.5999756
1190.55142	668.4000244
1191.102697	669.2000122
1191.653918	672.0
1192.205081	672.4000244
1192.756188	669.7999878
1193.307238	694.7999878
1193.858232	670.0
1194.409169	672.0
1194.960049	668.2000122
1195.510872	671.2000122
1196.061639	666.5999756
1196.612349	667.5999756
1197.163003	668.7999878
1197.713599	667.0
1198.264139	667.7999878
1198.814623	667.2000122
1199.36505	666.7999878
1199.91542	667.0
1200.465734	665.5999756
1201.01599	667.7999878
1201.566191	667.7999878
1202.116334	669.7999878
1202.666421	666.7999878
1203.216452	668.5999756
1203.766425	668.2000122
1204.316343	667.4000244
1204.866203	667.2000122
1205.416007	669.4000244
1205.965754	672.7999878
1206.515445	666.7999878
1207.065079	668.7999878
1207.614657	667.2000122
1208.164177	668.7999878
1208.713642	667.7999878
1209.26305	671.0
1209.812401	667.5999756
1210.361695	668.4000244
1210.910933	670.5999756
1211.460115	669.2000122
1212.00924	668.2000122
1212.558308	672.2000122
1213.10732	671.4000244
1213.656275	670.7999878
1214.205174	672.0
1214.754016	671.7999878
1215.302801	672.7999878
1215.85153	668.5999756
1216.400203	673.7999878
1216.948819	669.0
1217.497378	669.4000244
1218.045881	669.0
1218.594327	669.7999878
1219.142717	667.2000122
1219.691051	668.5999756
1220.239327	673.7999878
1220.787548	671.0
1221.335712	671.0
1221.883819	675.2000122
1222.43187	669.5999756
1222.979864	673.0
1223.527802	673.7999878
1224.075683	673.4000244
1224.623508	674.2000122
1225.171277	672.2000122
1225.718989	670.0
1226.266644	674.2000122
1226.814243	672.4000244
1227.361786	670.7999878
1227.909272	671.2000122
1228.456702	670.7999878
1229.004075	672.4000244
1229.551392	673.5999756
1230.098652	671.4000244
1230.645856	673.2000122
1231.193003	671.2000122
1231.740094	673.2000122
1232.287129	672.4000244
1232.834107	672.2000122
1233.381029	673.4000244
1233.927894	674.7999878
1234.474703	673.7999878
1235.021455	672.0
1235.568151	672.0
1236.114791	672.0
1236.661374	673.4000244
1237.207901	675.2000122
1237.754372	672.5999756
1238.300786	673.0
1238.847144	672.5999756
1239.393445	671.2000122
1239.93969	670.7999878
1240.485879	669.5999756
1241.032011	675.4000244
1241.578087	669.7999878
1242.124106	669.2000122
1242.67007	672.2000122
1243.215976	671.5999756
1243.761827	670.0
1244.307621	670.2000122
1244.853359	673.5999756
1245.39904	673.4000244
1245.944665	672.4000244
1246.490234	671.7999878
1247.035746	672.7999878
1247.581203	669.5999756
1248.126602	671.7999878
1248.671946	671.7999878
1249.217233	670.2000122
1249.762464	671.5999756
1250.307638	671.4000244
1250.852757	675.5999756
1251.397819	673.4000244
1251.942824	669.2000122
1252.487774	671.5999756
1253.032667	674.7999878
1253.577503	673.5999756
1254.122284	675.4000244
1254.667008	671.0
1255.211676	676.7999878
1255.756288	671.0
1256.300843	675.5999756
1256.845342	669.2000122
1257.389785	674.2000122
1257.934172	671.7999878
1258.478502	673.0
1259.022776	672.2000122
1259.566994	673.4000244
1260.111156	689.7999878
1260.655261	674.0
1261.199311	673.7999878
1261.743304	679.7999878
1262.28724	678.4000244
1262.831121	681.2000122
1263.374945	682.7999878
1263.918713	681.7999878
1264.462425	679.5999756
1265.006081	676.7999878
1265.54968	675.5999756
1266.093223	673.2000122
1266.636711	675.4000244
1267.180141	672.5999756
1267.723516	672.7999878
1268.266835	674.5999756
1268.810097	670.2000122
1269.353303	669.2000122
1269.896453	669.7999878
1270.439547	671.5999756
1270.982584	671.0
1271.525566	670.5999756
1272.068491	671.2000122
1272.61136	672.7999878
1273.154173	671.5999756
1273.69693	668.4000244
1274.239631	668.0
1274.782275	672.0
1275.324864	670.7999878
1275.867396	672.2000122
1276.409872	669.5999756
1276.952292	671.7999878
1277.494656	673.4000244
1278.036964	671.4000244
1278.579215	675.2000122
1279.121411	674.2000122
1279.66355	677.4000244
1280.205634	676.4000244
1280.747661	683.4000244
1281.289632	694.0
1281.831547	712.4000244
1282.373406	741.7999878
1282.915209	809.4000244
1283.456955	861.5999756
1283.998646	877.0
1284.540281	800.5999756
1285.081859	749.2000122
1285.623381	707.4000244
1286.164848	691.7999878
1286.706258	683.7999878
1287.247612	681.0
1287.788911	677.5999756
1288.330153	675.7999878
1288.871339	676.0
1289.412469	676.2000122
1289.953543	673.4000244
1290.494561	673.4000244
1291.035523	674.0
1291.576428	671.0
1292.117278	672.0
1292.658072	671.7999878
1293.19881	673.7999878
1293.739492	673.4000244
1294.280118	671.2000122
1294.820687	670.7999878
1295.361201	672.7999878
1295.901659	673.5999756
1296.442061	674.7999878
1296.982406	671.7999878
1297.522696	672.5999756
1298.06293	672.2000122
1298.603108	673.4000244
1299.143229	672.7999878
1299.683295	672.7999878
1300.223305	674.2000122
1300.763259	671.0
1301.303157	673.0
1301.842999	671.7999878
1302.382785	672.0
1302.922515	671.4000244
1303.462189	671.4000244
1304.001807	668.7999878
1304.541369	667.2000122
1305.080875	669.2000122
1305.620326	671.2000122
1306.15972	669.4000244
1306.699058	669.4000244
1307.238341	669.0
1307.777567	671.5999756
1308.316738	668.7999878
1308.855853	670.5999756
1309.394912	667.4000244
1309.933915	670.5999756
1310.472862	666.5999756
1311.011753	668.2000122
1311.550588	669.2000122
1312.089367	672.7999878
1312.62809	667.4000244
1313.166758	669.4000244
1313.70537	670.0
1314.243925	670.2000122
1314.782425	670.0
1315.320869	666.0
1315.859257	667.4000244
1316.397589	670.2000122
1316.935866	670.0
1317.474086	669.0
1318.012251	667.7999878
1318.55036	670.7999878
1319.088413	668.4000244
1319.62641	667.2000122
1320.164351	670.2000122
1320.702236	667.5999756
1321.240066	669.4000244
1321.777839	669.4000244
1322.315557	670.5999756
1322.853219	666.2000122
1323.390826	666.5999756
1323.928376	671.4000244
1324.465871	665.7999878
1325.003309	669.5999756
1325.540692	669.2000122
1326.07802	668.5999756
1326.615291	665.0
1327.152506	666.2000122
1327.689666	667.4000244
1328.22677	666.5999756
1328.763818	666.2000122
1329.300811	669.2000122
1329.837747	668.2000122
1330.374628	667.7999878
1330.911453	666.7999878
1331.448222	665.7999878
1331.984936	668.5999756
1332.521594	668.0
1333.058196	666.7999878
1333.594742	668.5999756
1334.131232	666.5999756
1334.667667	668.5999756
1335.204046	666.7999878
1335.740369	668.5999756
1336.276637	666.5999756
1336.812848	666.7999878
1337.349004	668.7999878
1337.885105	667.0
1338.421149	666.4000244
1338.957138	666.0
1339.493071	670.0
1340.028949	667.4000244
1340.56477	669.4000244
1341.100536	666.4000244
1341.636246	667.5999756
1342.171901	669.4000244
1342.7075	667.4000244
1343.243043	668.5999756
1343.77853	667.2000122
1344.313962	664.5999756
1344.849338	668.0
1345.384659	670.0
1345.919923	667.4000244
1346.455133	670.4000244
1346.990286	663.7999878
1347.525384	668.0
1348.060426	669.4000244
1348.595412	666.5999756
1349.130343	666.5999756
1349.665218	668.5999756
1350.200037	668.0
1350.734801	666.5999756
1351.269509	667.0
1351.804162	667.4000244
1352.338758	668.5999756
1352.8733	667.5999756
1353.407785	665.4000244
1353.942215	669.2000122
1354.476589	667.7999878
1355.010908	667.0
1355.545171	667.7999878
1356.079379	667.5999756
1356.61353	668.0
1357.147627	664.5999756
1357.681667	668.7999878
1358.215652	670.7999878
1358.749582	669.0
1359.283456	669.0
1359.817274	666.5999756
1360.351037	665.5999756
1360.884744	666.4000244
1361.418395	667.4000244
1361.951991	668.4000244
1362.485531	669.2000122
1363.019016	668.5999756
1363.552445	669.4000244
1364.085819	665.7999878
1364.619137	668.4000244
1365.1524	671.5999756
1365.685607	667.7999878
1366.218758	669.0
1366.751854	666.4000244
1367.284894	667.5999756
1367.817879	669.2000122
1368.350808	669.7999878
1368.883682	668.4000244
1369.4165	671.2000122
1369.949263	681.0
1370.48197	674.5999756
1371.014622	670.2000122
1371.547218	670.0
1372.079758	667.7999878
1372.612244	669.5999756
1373.144673	668.0
1373.677047	671.5999756
1374.209366	668.4000244
1374.741629	670.0
1375.273836	665.4000244
1375.805989	667.2000122
1376.338085	670.4000244
1376.870126	672.0
1377.402112	670.2000122
1377.934042	669.5999756
1378.465917	671.2000122
1378.997736	669.7999878
1379.5295	673.0
1380.061208	671.0
1380.592861	672.5999756
1381.124459	671.7999878
1381.656	672.4000244
1382.187487	674.4000244
1382.718918	672.5999756
1383.250294	679.7999878
1383.781614	679.4000244
1384.312879	686.2000122
1384.844088	691.7999878
1385.375242	695.2000122
1385.90634	714.5999756
1386.437383	753.5999756
1386.968371	854.7999878
1387.499303	1021.799988
1388.03018	1103.0
1388.561001	939.4000244
1389.091767	783.2000122
1389.622478	722.2000122
1390.153133	698.2000122
1390.683733	689.0
1391.214277	681.7999878
1391.744766	680.2000122
1392.2752	675.2000122
1392.805578	673.7999878
1393.335901	674.4000244
1393.866168	673.5999756
1394.396381	671.5999756
1394.926537	672.5999756
1395.456639	671.0
1395.986685	669.0
1396.516675	667.2000122
1397.046611	672.4000244
1397.576491	672.4000244
1398.106315	669.4000244
1398.636084	669.5999756
1399.165798	669.4000244
1399.695457	668.4000244
1400.22506	669.5999756
1400.754608	669.5999756
1401.284101	668.2000122
1401.813538	669.7999878
1402.34292	669.0
1402.872247	673.4000244
1403.401518	669.4000244
1403.930734	669.7999878
1404.459895	670.7999878
1404.989	670.2000122
1405.51805	671.2000122
1406.047045	673.2000122
1406.575984	673.4000244
1407.104869	675.7999878
1407.633697	674.7999878
1408.162471	679.5999756
1408.691189	685.2000122
1409.219852	692.0
1409.74846	686.7999878
1410.277013	688.7999878
1410.80551	684.5999756
1411.333952	680.5999756
1411.862339	673.7999878
1412.39067	669.5999756
1412.918946	672.7999878
1413.447167	670.4000244
1413.975333	669.4000244
1414.503444	670.5999756
1415.031499	670.0
1415.559499	678.4000244
1416.087444	670.2000122
1416.615333	669.2000122
1417.143167	666.5999756
1417.670947	670.0
1418.19867	667.4000244
1418.726339	668.7999878
1419.253952	665.7999878
1419.781511	670.5999756
1420.309014	669.5999756
1420.836461	667.0
1421.363854	666.5999756
1421.891191	668.4000244
1422.418474	667.5999756
1422.945701	667.7999878
1423.472872	668.0
1423.999989	667.2000122
1424.52705	667.4000244
1425.054057	671.4000244
1425.581008	669.4000244
1426.107904	666.5999756
1426.634745	668.2000122
1427.16153	668.7999878
1427.688261	669.0
1428.214936	670.2000122
1428.741556	667.7999878
1429.268121	668.2000122
1429.794631	667.7999878
1430.321085	664.4000244
1430.847485	665.7999878
1431.373829	668.4000244
1431.900118	669.0
1432.426353	666.5999756
1432.952532	668.0
1433.478655	665.5999756
1434.004724	669.7999878
1434.530738	669.2000122
1435.056696	665.4000244
1435.5826	666.2000122
1436.108448	668.2000122
1436.634241	669.0
1437.159979	664.2000122
1437.685662	667.4000244
1438.21129	665.4000244
1438.736863	668.7999878
1439.262381	668.5999756
1439.787843	668.5999756
1440.313251	669.5999756
1440.838603	667.7999878
1441.3639	668.4000244
1441.889143	671.2000122
1442.41433	666.4000244
1442.939462	667.5999756
1443.464539	670.2000122
1443.989561	671.2000122
1444.514528	668.0
1445.03944	669.7999878
1445.564297	669.5999756
1446.089099	667.5999756
1446.613846	668.5999756
1447.138537	670.7999878
1447.663174	669.2000122
1448.187756	669.2000122
1448.712282	669.4000244
1449.236754	668.4000244
1449.761171	671.4000244
1450.285532	669.4000244
1450.809839	671.4000244
1451.33409	669.5999756
1451.858287	669.5999756
1452.382428	668.7999878
1452.906515	668.2000122
1453.430546	668.0
1453.954523	667.7999878
1454.478444	667.5999756
1455.002311	668.7999878
1455.526123	668.2000122
1456.049879	669.0
1456.573581	671.2000122
1457.097227	669.7999878
1457.620819	671.5999756
1458.144356	671.5999756
1458.667837	668.4000244
1459.191264	670.2000122
1459.714636	671.0
1460.237952	670.7999878
1460.761214	668.7999878
1461.284421	672.0
1461.807573	668.7999878
1462.33067	672.4000244
1462.853712	669.0
1463.376699	673.0
1463.899632	671.2000122
1464.422509	669.2000122
1464.945331	672.0
1465.468099	669.5999756
1465.990811	668.2000122
1466.513469	669.0
1467.036071	669.7999878
1467.558619	668.7999878
1468.081112	668.4000244
1468.60355	667.7999878
1469.125933	671.2000122
1469.648261	669.7999878
1470.170534	671.4000244
1470.692752	670.2000122
1471.214916	669.7999878
1471.737024	674.4000244
1472.259078	670.2000122
1472.781077	669.2000122
1473.303021	669.4000244
1473.82491	668.2000122
1474.346744	669.4000244
1474.868523	668.4000244
1475.390248	668.0
1475.911917	667.2000122
1476.433532	667.7999878
1476.955092	664.2000122
1477.476597	665.5999756
1477.998047	666.2000122
1478.519442	667.7999878
1479.040783	664.4000244
1479.562068	666.7999878
1480.083299	666.5999756
1480.604475	666.0
1481.125596	666.7999878
1481.646663	664.7999878
1482.167674	664.0
1482.688631	666.0
1483.209533	667.7999878
1483.73038	664.5999756
1484.251172	664.7999878
1484.771909	667.0
1485.292592	665.4000244
1485.81322	664.4000244
1486.333793	666.7999878
1486.854311	666.0
1487.374775	667.0
1487.895183	661.5999756
1488.415537	664.2000122
1488.935836	666.4000244
1489.456081	664.4000244
1489.97627	665.4000244
1490.496405	667.4000244
1491.016485	663.4000244
1491.536511	665.2000122
1492.056481	664.5999756
1492.576397	666.0
1493.096258	665.7999878
1493.616064	663.4000244
1494.135816	665.0
1494.655513	663.7999878
1495.175155	664.7999878
1495.694742	664.7999878
1496.214274	662.4000244
1496.733752	665.0
1497.253175	664.5999756
1497.772544	662.5999756
1498.291858	665.7999878
1498.811116	665.5999756
1499.330321	665.2000122
1499.84947	671.2000122
1500.368565	660.7999878
1500.887605	661.7999878
1501.406591	665.2000122
1501.925521	665.4000244
1502.444397	666.2000122
1502.963219	666.5999756
1503.481985	663.5999756
1504.000697	666.7999878
1504.519355	665.0
1505.037957	664.0
1505.556505	663.5999756
1506.074999	666.5999756
1506.593437	665.0
1507.111821	661.4000244
1507.63015	664.7999878
1508.148425	664.4000244
1508.666645	666.5999756
1509.18481	663.2000122
1509.702921	666.4000244
1510.220977	663.5999756
1510.738979	672.2000122
1511.256925	663.0
1511.774817	662.5999756
1512.292655	665.4000244
1512.810438	665.5999756
1513.328166	665.0
1513.84584	667.7999878
1514.363459	666.2000122
1514.881023	668.0
1515.398533	663.5999756
1515.915988	665.4000244
1516.433389	665.7999878
1516.950734	663.0
1517.468026	666.0
1517.985263	665.4000244
1518.502445	661.5999756
1519.019572	661.5999756
1519.536645	662.4000244
1520.053664	667.4000244
1520.570628	663.4000244
1521.087537	663.4000244
1521.604392	666.7999878
1522.121192	666.4000244
1522.637937	665.4000244
1523.154628	664.2000122
1523.671265	667.0
1524.187847	663.7999878
1524.704374	663.2000122
1525.220847	659.7999878
1525.737265	666.4000244
1526.253629	664.2000122
1526.769938	663.4000244
1527.286192	665.4000244
1527.802392	665.7999878
1528.318538	664.2000122
1528.834629	663.5999756
1529.350666	665.5999756
1529.866648	668.2000122
1530.382575	664.2000122
1530.898448	662.7999878
1531.414266	663.7999878
1531.93003	662.7999878
1532.44574	664.4000244
1532.961395	665.0
1533.476995	664.5999756
1533.992541	665.5999756
1534.508033	662.5999756
1535.02347	665.2000122
1535.538852	665.0
1536.05418	663.4000244
1536.569454	664.5999756
1537.084673	663.7999878
1537.599837	663.7999878
1538.114947	667.4000244
1538.630003	663.2000122
1539.145004	666.0
1539.659951	665.7999878
1540.174843	667.0
1540.689681	664.2000122
1541.204465	664.5999756
1541.719194	662.4000244
1542.233868	663.0
1542.748488	663.4000244
1543.263054	665.2000122
1543.777565	662.2000122
1544.292022	662.4000244
1544.806424	663.2000122
1545.320772	662.7999878
1545.835066	663.4000244
1546.349305	663.5999756
1546.863489	664.2000122
1547.37762	663.7999878
1547.891696	663.5999756
1548.405717	663.0
1548.919684	663.7999878
1549.433597	663.0
1549.947455	666.5999756
1550.461259	667.5999756
1550.975009	664.7999878
1551.488704	663.4000244
1552.002345	661.0
1552.515931	665.2000122
1553.029463	662.2000122
1553.542941	661.2000122
1554.056364	665.7999878
1554.569733	661.4000244
1555.083048	664.0
1555.596308	663.7999878
1556.109514	662.7999878
1556.622665	665.2000122
1557.135762	665.0
1557.648805	664.2000122
1558.161794	664.4000244
1558.674728	664.4000244
1559.187608	664.5999756
1559.700433	661.2000122
1560.213205	664.4000244
1560.725921	664.2000122
1561.238584	664.2000122
1561.751192	665.2000122
1562.263746	666.2000122
1562.776246	664.0
1563.288691	665.2000122
1563.801082	661.0
1564.313419	664.4000244
1564.825701	664.0
1565.337929	662.0
1565.850103	665.4000244
1566.362223	664.4000244
1566.874288	665.2000122
1567.386299	664.4000244
1567.898256	664.0
1568.410158	665.4000244
1568.922007	663.0
1569.4338	664.2000122
1569.94554	664.5999756
1570.457226	663.0
1570.968857	663.0
1571.480434	664.4000244
1571.991956	665.7999878
1572.503425	666.0
1573.014839	666.5999756
1573.526199	665.4000244
1574.037505	663.2000122
1574.548756	663.5999756
1575.059953	667.7999878
1575.571096	666.0
1576.082185	662.5999756
1576.59322	665.4000244
1577.1042	666.0
1577.615126	667.0
1578.125998	665.2000122
1578.636816	664.4000244
1579.14758	665.2000122
1579.658289	663.5999756
1580.168944	665.7999878
1580.679545	666.4000244
1581.190092	668.2000122
1581.700585	666.4000244
1582.211023	668.5999756
1582.721407	664.0
1583.231737	666.4000244
1583.742013	669.7999878
1584.252235	666.4000244
1584.762403	669.0
1585.272516	667.4000244
1585.782575	664.5999756
1586.292581	666.0
1586.802532	663.5999756
1587.312428	664.5999756
1587.822271	663.0
1588.33206	663.5999756
1588.841794	664.4000244
1589.351474	664.2000122
1589.8611	662.4000244
1590.370672	666.0
1590.88019	667.2000122
1591.389654	666.4000244
1591.899064	662.2000122
1592.408419	665.4000244
