1042.414189	760.0
1042.980685	768.5
1043.547124	755.5
1044.113505	760.25
1044.679828	764.25
1045.246093	762.5
1045.8123	756.25
1046.378449	757.25
1046.94454	761.25
1047.510573	760.0
1048.076548	760.75
1048.642465	748.75
1049.208325	754.25
1049.774126	760.25
1050.339869	758.5
1050.905555	750.75
1051.471183	745.25
1052.036752	754.75
1052.602264	750.5
1053.167718	748.0
1053.733114	744.0
1054.298452	750.75
1054.863733	746.25
1055.428955	745.75
1055.994119	742.25
1056.559226	742.25
1057.124275	739.0
1057.689266	736.25
1058.254199	736.75
1058.819074	736.0
1059.383891	745.75
1059.94865	737.25
1060.513352	737.0
1061.077996	735.25
1061.642582	737.0
1062.20711	740.5
1062.77158	736.75
1063.335992	737.25
1063.900347	740.0
1064.464643	732.25
1065.028882	739.75
1065.593063	741.75
1066.157187	734.25
1066.721252	737.0
1067.28526	736.5
1067.84921	736.5
1068.413102	739.0
1068.976936	737.25
1069.540713	738.25
1070.104431	746.0
1070.668092	735.75
1071.231696	737.25
1071.795241	735.0
1072.358729	737.5
1072.922159	734.25
1073.485531	730.75
1074.048845	736.5
1074.612102	736.25
1075.175301	733.25
1075.738442	735.75
1076.301525	732.5
1076.864551	743.25
1077.427519	735.0
1077.990429	738.5
1078.553281	739.75
1079.116076	740.75
1079.678813	731.25
1080.241492	740.5
1080.804114	739.75
1081.366678	738.0
1081.929184	735.5
1082.491633	738.5
1083.054024	738.5
1083.616357	737.0
1084.178632	737.0
1084.74085	743.75
1085.30301	738.25
1085.865113	736.75
1086.427158	742.0
1086.989145	733.25
1087.551074	743.25
1088.112946	751.25
1088.67476	740.25
1089.236517	743.0
1089.798216	744.75
1090.359857	744.5
1090.92144	746.0
1091.482966	747.75
1092.044435	751.0
1092.605845	751.0
1093.167199	745.5
1093.728494	747.5
1094.289732	750.5
1094.850912	750.75
1095.412035	754.5
1095.9731	740.25
1096.534107	743.25
1097.095057	751.75
1097.65595	745.0
1098.216784	746.25
1098.777561	738.75
1099.338281	730.0
1099.898943	742.25
1100.459547	736.5
1101.020094	736.0
1101.580584	734.5
1102.141015	734.75
1102.701389	731.0
1103.261706	737.75
1103.821965	734.75
1104.382167	735.75
1104.942311	732.25
1105.502397	729.25
1106.062426	730.25
1106.622398	729.25
1107.182312	728.75
1107.742168	733.25
1108.301967	731.0
1108.861708	730.75
1109.421392	732.5
1109.981019	728.0
1110.540587	726.75
1111.100099	726.0
1111.659553	726.5
1112.218949	731.0
1112.778288	723.0
1113.33757	727.5
1113.896794	725.25
1114.45596	723.25
1115.015069	722.5
1115.574121	724.5
1116.133115	726.0
1116.692052	723.0
1117.250931	730.25
1117.809753	727.5
1118.368517	727.25
1118.927224	727.0
1119.485873	720.75
1120.044465	725.75
1120.603	726.25
1121.161477	726.5
1121.719897	722.25
1122.278259	727.25
1122.836564	724.25
1123.394812	730.5
1123.953002	723.75
1124.511135	730.0
1125.06921	725.25
1125.627228	732.5
1126.185189	726.0
1126.743092	727.0
1127.300938	726.75
1127.858726	728.75
1128.416457	722.75
1128.974131	721.0
1129.531748	722.0
1130.089307	721.75
1130.646808	724.75
1131.204252	719.25
1131.761639	724.75
1132.318969	721.0
1132.876241	722.75
1133.433456	716.75
1133.990614	729.0
1134.547714	723.75
1135.104757	728.25
1135.661743	726.0
1136.218671	727.5
1136.775542	725.5
1137.332356	725.75
1137.889112	726.25
1138.445811	723.5
1139.002453	726.75
1139.559037	727.0
1140.115565	722.0
1140.672035	723.0
1141.228447	723.0
1141.784803	724.0
1142.341101	727.0
1142.897342	728.25
1143.453525	726.0
1144.009651	725.75
1144.565721	731.5
1145.121732	721.25
1145.677687	724.5
1146.233584	721.75
1146.789424	726.0
1147.345207	724.25
1147.900933	726.0
1148.456601	721.25
1149.012212	724.0
1149.567766	721.75
1150.123263	719.0
1150.678702	723.75
1151.234085	721.5
1151.78941	721.0
1152.344678	727.0
1152.899888	724.75
1153.455042	721.75
1154.010138	723.0
1154.565177	718.75
1155.120159	726.5
1155.675084	724.25
1156.229951	726.0
1156.784762	723.75
1157.339515	721.75
1157.894211	721.5
1158.44885	719.25
1159.003432	722.25
1159.557956	719.0
1160.112424	720.0
1160.666834	719.25
1161.221187	724.25
1161.775483	721.5
1162.329722	719.25
1162.883904	722.0
1163.438029	728.75
1163.992096	720.75
1164.546107	723.75
1165.10006	719.0
1165.653956	722.5
1166.207795	729.5
1166.761577	730.0
1167.315302	724.25
1167.86897	728.0
1168.422581	724.5
1168.976134	715.25
1169.529631	722.75
1170.08307	721.75
1170.636453	719.75
1171.189778	726.5
1171.743046	723.0
1172.296257	717.75
1172.849412	721.25
1173.402509	724.5
1173.955549	721.5
1174.508532	718.25
1175.061458	720.25
1175.614327	724.75
1176.167138	713.75
1176.719893	718.25
1177.272591	719.25
1177.825232	718.0
1178.377816	719.5
1178.930342	721.75
1179.482812	716.75
1180.035225	723.0
1180.587581	718.75
1181.139879	722.5
1181.692121	713.0
1182.244306	717.25
1182.796434	712.25
1183.348504	716.0
1183.900518	714.75
1184.452475	722.5
1185.004375	717.25
1185.556218	720.75
1186.108004	714.0
1186.659733	722.25
1187.211405	717.5
1187.76302	716.5
1188.314578	715.25
1188.866079	721.0
1189.417523	713.5
1189.96891	716.75
1190.520241	720.25
1191.071514	718.0
1191.622731	722.75
1192.17389	712.75
1192.724993	718.5
1193.276039	743.25
1193.827027	720.75
1194.377959	713.75
1194.928834	716.25
1195.479653	718.5
1196.030414	719.0
1196.581118	717.25
1197.131766	718.0
1197.682356	720.75
1198.23289	721.0
1198.783367	715.75
1199.333786	714.5
1199.88415	722.25
1200.434456	718.75
1200.984705	721.0
1201.534898	719.25
1202.085033	719.25
1202.635112	722.0
1203.185134	720.25
1203.735099	715.0
1204.285007	711.5
1204.834859	719.25
1205.384653	713.25
1205.934391	718.5
1206.484072	724.25
1207.033696	715.5
1207.583263	717.5
1208.132774	718.0
1208.682228	717.25
1209.231624	715.25
1209.780965	716.0
1210.330248	717.75
1210.879474	717.5
1211.428644	719.25
1211.977757	722.25
1212.526813	713.75
1213.075813	724.0
1213.624755	721.5
1214.173641	719.75
1214.72247	720.75
1215.271242	722.0
1215.819958	714.75
1216.368617	715.75
1216.917219	721.25
1217.465764	712.75
1218.014253	719.0
1218.562685	719.25
1219.11106	718.25
1219.659378	715.75
1220.20764	715.75
1220.755845	719.0
1221.303993	716.25
1221.852085	717.75
1222.400119	720.25
1222.948097	716.75
1223.496019	717.0
1224.043883	714.5
1224.591691	715.25
1225.139443	716.5
1225.687137	724.5
1226.234775	721.75
1226.782357	718.75
1227.329881	714.0
1227.877349	718.0
1228.42476	714.5
1228.972115	714.25
1229.519413	723.25
1230.066654	717.25
1230.613839	718.0
1231.160967	714.25
1231.708038	721.75
1232.255053	718.0
1232.802011	713.25
1233.348912	720.25
1233.895757	716.5
1234.442545	721.25
1234.989277	712.75
1235.535951	715.5
1236.08257	721.0
1236.629131	721.0
1237.175636	718.0
1237.722085	714.0
1238.268477	723.75
1238.814812	718.0
1239.361091	720.0
1239.907313	717.75
1240.453478	720.5
1240.999587	716.5
1241.54564	717.0
1242.091636	716.25
1242.637575	721.5
1243.183457	719.0
1243.729284	720.75
1244.275053	720.0
1244.820766	718.75
1245.366423	718.5
1245.912022	717.0
1246.457566	716.75
1247.003053	719.5
1247.548483	715.75
1248.093857	718.5
1248.639174	719.25
1249.184435	724.0
1249.729639	719.75
1250.274787	720.5
1250.819878	717.25
1251.364912	719.5
1251.909891	717.0
1252.454812	718.5
1252.999677	718.5
1253.544486	714.75
1254.089238	715.0
1254.633934	717.25
1255.178573	721.5
1255.723156	720.25
1256.267682	714.25
1256.812152	721.75
1257.356565	720.5
1257.900922	718.75
1258.445223	722.0
1258.989467	719.75
1259.533654	720.25
1260.62186	719.5
1261.165878	720.5
1261.70984	718.25
1262.253745	714.75
1262.797594	718.25
1263.341386	720.0
1263.885123	722.75
1264.428802	725.0
1264.972425	733.0
1265.515992	730.5
1266.059503	728.0
1266.602957	729.75
1267.146354	722.0
1267.689696	722.5
1268.23298	723.25
1268.776209	724.25
1269.319381	720.75
1269.862497	717.75
1270.405556	723.75
1270.948559	722.25
1271.491506	719.75
1272.034396	720.0
1272.57723	728.0
1273.120007	720.5
1273.662728	723.0
1274.205393	728.5
1274.748002	722.0
1275.290554	722.25
1275.83305	725.5
1276.375489	727.25
1276.917872	724.5
1277.460199	726.5
1278.00247	723.0
1278.544684	719.0
1279.086842	722.75
1279.628943	726.0
1280.170989	727.75
1280.712978	719.25
1281.25491	724.25
1281.796787	726.5
1282.338607	724.25
1282.880371	727.75
1283.422078	726.5
1283.963729	731.0
1284.505324	739.25
1285.046863	765.5
1285.588345	819.0
1286.129772	812.75
1286.671142	760.5
1287.212455	732.25
1287.753713	725.25
1288.294914	723.5
1288.836059	725.0
1289.377147	721.5
1289.91818	724.0
1290.459156	727.5
1291.000076	724.25
1291.54094	724.25
1292.081747	723.25
1292.622499	727.25
1293.163194	722.0
1293.703833	720.5
1294.244415	720.25
1294.784942	725.25
1295.325412	725.0
1295.865826	727.25
1296.406184	724.25
1296.946486	729.0
1297.486731	725.75
1298.026921	723.5
1298.567054	723.0
1299.107131	728.5
1299.647152	724.25
1300.187116	727.5
1300.727025	722.0
1301.266877	719.0
1301.806673	719.5
1302.346413	725.75
1302.886097	719.75
1303.425725	722.25
1303.965297	724.5
1304.504812	724.75
1305.044272	727.5
1305.583675	725.25
1306.123022	722.25
1306.662313	718.25
1307.201548	723.5
1307.740727	723.0
1308.279849	722.5
1308.818916	724.25
1309.357926	720.25
1309.896881	721.25
1310.435779	727.5
1310.974621	722.0
1311.513407	721.5
1312.052137	717.75
1312.590811	717.0
1313.129429	721.0
1313.667991	717.25
1314.206497	715.25
1314.744946	714.25
1315.28334	713.25
1315.821678	718.5
1316.359959	721.75
1316.898184	711.5
1317.436354	718.0
1317.974467	710.25
1318.512525	717.25
1319.050526	713.0
1319.588471	710.0
1320.12636	713.75
1320.664194	713.5
1321.201971	715.5
1321.739692	717.75
1322.277357	716.0
1322.814967	721.0
1323.35252	713.25
1323.890017	720.25
1324.427458	714.5
1324.964843	715.0
1325.502173	720.5
1326.039446	715.75
1326.576663	720.0
1327.113824	715.5
1327.65093	714.5
1328.187979	717.25
1328.724972	715.25
1329.26191	710.25
1329.798791	714.75
1330.335617	713.25
1330.872386	717.5
1331.4091	707.5
1331.945758	714.5
1332.48236	714.25
1333.018905	715.25
1333.555395	712.25
1334.091829	714.25
1334.628207	714.75
1335.164529	713.75
1335.700796	716.25
1336.237006	712.75
1336.77316	718.75
1337.309259	718.0
1337.845301	721.0
1338.381288	712.5
1338.917219	711.25
1339.453094	717.75
1339.988913	717.0
1340.524676	713.75
1341.060383	716.0
1341.596034	717.0
1342.13163	713.25
1342.66717	713.75
1343.202653	716.0
1343.738081	717.0
1344.273453	712.0
1344.80877	713.0
1345.34403	714.0
1345.879235	714.5
1346.414383	710.75
1346.949476	712.25
1347.484513	711.5
1348.019494	716.75
1348.55442	713.5
1349.089289	709.25
1349.624103	715.75
1350.158861	710.75
1350.693563	712.5
1351.228209	714.25
1351.7628	709.25
1352.297334	717.0
1352.831813	717.75
1353.366236	717.25
1353.900604	716.75
1354.434915	716.0
1354.969171	710.25
1355.503371	710.75
1356.037515	710.5
1356.571604	713.5
1357.105636	712.0
1357.639613	711.25
1358.173535	710.75
1358.7074	710.5
1359.24121	711.0
1359.774964	715.25
1360.308662	712.0
1360.842304	716.0
1361.375891	710.5
1361.909422	713.75
1362.442897	713.75
1362.976317	716.0
1363.50968	712.5
1364.042989	712.5
1364.576241	709.5
1365.109438	715.25
1365.642579	712.5
1366.175664	710.0
1366.708693	717.25
1367.241667	713.0
1367.774585	715.25
1368.307448	718.5
1368.840255	713.0
1369.373006	714.5
1369.905701	718.75
1370.438341	718.25
1370.970925	718.25
1371.503454	713.25
1372.035926	715.5
1372.568344	712.25
1373.100705	713.75
1373.633011	711.25
1374.165261	714.0
1374.697456	711.25
1375.229595	714.0
1375.761678	713.5
1376.293705	720.5
1376.825677	715.5
1377.357594	713.25
1377.889455	714.25
1378.42126	712.25
1378.953009	715.25
1379.484703	712.25
1380.016342	720.25
1380.547924	713.25
1381.079452	711.75
1381.610923	713.5
1382.142339	714.25
1382.673699	711.5
1383.205004	716.0
1383.736253	715.5
1384.267447	716.5
1384.798585	716.0
1385.329668	720.75
1385.860695	710.25
1386.391666	715.25
1386.922582	722.5
1387.453442	719.25
1387.984247	737.0
1388.514996	796.75
1389.04569	909.25
1389.576328	823.25
1390.10691	736.0
1390.637437	718.25
1391.167909	717.5
1391.698325	716.0
1392.228685	719.25
1392.75899	712.5
1393.28924	714.0
1393.819434	715.75
1394.349572	716.0
1394.879655	711.0
1395.409683	716.5
1395.939655	716.5
1396.469571	714.5
1396.999432	713.0
1397.529237	711.0
1398.058987	713.5
1398.588682	717.25
1399.118321	714.25
1399.647905	713.0
1400.177433	711.75
1400.706906	713.5
1401.236323	710.5
1401.765685	714.75
1402.294991	715.25
1402.824242	716.5
1403.353437	713.25
1403.882577	713.25
1404.411662	706.75
1404.940691	712.5
1405.469665	717.25
1405.998583	718.0
1406.527446	710.75
1407.056253	714.5
1407.585005	714.75
1408.113702	713.25
1408.642343	711.0
1409.170929	718.5
1409.69946	724.25
1410.227935	729.0
1410.756354	725.5
1411.284719	716.0
1411.813028	716.25
1412.341281	715.25
1412.869479	717.0
1413.397622	715.5
1413.92571	715.25
1414.453742	714.75
1414.981718	709.5
1415.50964	724.75
1416.037506	709.75
1416.565316	713.75
1417.093072	713.5
1417.620772	715.5
1418.148416	709.75
1418.676005	715.25
1419.203539	713.0
1419.731018	712.5
1420.258441	714.5
1420.785809	713.5
1421.313122	709.75
1421.840379	713.25
1422.367582	712.0
1422.894728	716.0
1423.42182	712.0
1423.948856	713.25
1424.475837	714.0
1425.002762	715.0
1425.529633	716.25
1426.056448	713.5
1426.583207	713.0
1427.109912	710.5
1427.636561	711.25
1428.163155	714.0
1428.689694	713.75
1429.216177	708.75
1429.742605	707.25
1430.268978	711.25
1430.795296	715.0
1431.321558	714.0
1431.847765	716.25
1432.373917	711.5
1432.900014	713.75
1433.426056	711.0
1433.952042	711.75
1434.477973	709.25
1435.003849	710.5
1435.529669	711.25
1436.055435	713.75
1436.581145	710.25
1437.1068	713.75
1437.632399	710.25
1438.157944	709.75
1438.683433	715.5
1439.208868	710.5
1439.734247	716.75
1440.25957	713.5
1440.784839	710.25
1441.310053	719.5
1441.835211	715.25
1442.360314	715.75
1442.885362	719.75
1443.410355	719.25
1443.935292	712.5
1444.460175	720.75
1444.985002	717.5
1445.509774	715.75
1446.034491	714.0
1446.559153	713.0
1447.08376	715.5
1447.608312	709.0
1448.132808	713.5
1448.65725	714.5
1449.181636	712.0
1449.705967	714.75
1450.230243	712.75
1450.754464	716.0
1451.27863	708.75
1451.802741	711.5
1452.326797	716.5
1452.850797	715.5
1453.374743	714.25
1453.898633	710.25
1454.422468	713.75
1454.946249	712.25
1455.469974	715.25
1455.993644	709.0
1456.517259	714.5
1457.040819	712.5
1457.564324	715.5
1458.087773	715.5
1458.611168	712.75
1459.134508	712.0
1459.657793	713.25
1460.181022	714.75
1460.704197	716.25
1461.227316	712.25
1461.750381	718.25
1462.27339	712.75
1462.796345	718.0
1463.319244	739.75
1463.842089	716.75
1464.364878	708.75
1464.887613	711.25
1465.410292	717.25
1465.932916	706.25
1466.455486	711.0
1466.978	710.75
1467.50046	712.5
1468.022864	712.5
1468.545214	716.75
1469.067508	710.5
1469.589748	712.0
1470.111932	709.25
1470.634062	715.0
1471.156136	711.25
1471.678156	709.25
1472.20012	709.5
1472.72203	712.75
1473.243885	714.25
1473.765685	710.75
1474.28743	711.0
1474.80912	708.75
1475.330755	714.5
1475.852335	713.25
1476.37386	707.5
1476.89533	715.25
1477.416745	711.25
1477.938106	715.25
1478.459411	710.25
1478.980662	709.5
1479.501857	713.5
1480.022998	710.25
1480.544084	711.0
1481.065115	709.75
1481.586091	711.75
1482.107012	714.5
1482.627878	712.75
1483.14869	715.75
1483.669446	707.0
1484.190148	711.25
1484.710794	711.25
1485.231386	710.75
1485.751923	705.75
1486.272406	711.25
1486.792833	713.0
1487.313205	709.5
1487.833523	710.25
1488.353786	709.75
1488.873994	711.75
1489.394147	711.0
1489.914245	715.75
1490.434288	712.25
1490.954277	711.5
1491.474211	713.0
1491.99409	712.25
1492.513914	711.0
1493.033683	717.0
1493.553398	711.25
1494.073057	710.5
1494.592662	706.5
1495.112212	711.0
1495.631708	710.0
1496.151148	707.25
1496.670534	714.0
1497.189865	710.25
1497.709141	710.25
1498.228362	707.25
1498.747529	707.5
1499.266641	710.75
1499.785698	716.75
1500.3047	709.0
1500.823648	709.0
1501.34254	709.75
1501.861379	713.0
1502.380162	711.5
1502.89889	711.5
1503.417564	711.25
1503.936183	710.75
1504.454748	701.75
1504.973257	715.5
1505.491712	707.5
1506.010112	710.75
1506.528458	709.5
1507.046748	713.75
1507.564984	707.0
1508.083166	707.25
1508.601292	711.5
1509.119364	708.25
1509.637381	707.25
1510.155344	709.25
1510.673252	711.75
1511.191105	710.5
1511.708903	706.75
1512.226647	709.25
1512.744336	708.75
1513.261971	707.5
1513.77955	713.25
1514.297076	708.5
1514.814546	708.0
1515.331962	712.75
1515.849323	710.0
1516.366629	709.5
1516.883881	709.75
1517.401078	713.75
1517.918221	709.25
1518.435309	712.0
1518.952342	709.25
1519.469321	713.5
1519.986245	712.5
1520.503114	710.25
1521.019929	710.0
1521.536689	711.75
1522.053395	706.5
1522.570046	711.75
1523.086642	712.5
1523.603184	706.25
1524.119671	709.25
1524.636103	709.5
1525.152481	708.0
1525.668805	710.25
1526.185073	723.75
1526.701288	718.25
1527.217447	712.25
1527.733552	708.25
1528.249603	709.25
1528.765599	707.0
1529.28154	710.5
1529.797427	707.75
1530.313259	712.5
1530.829037	714.75
1531.34476	711.75
1531.860429	709.5
1532.376043	715.25
1532.891602	717.75
1533.407107	712.75
1533.922558	711.25
1534.437954	708.5
1534.953295	707.25
1535.468582	714.0
1535.983815	709.0
1536.498993	709.0
1537.014116	711.0
1537.529185	707.75
1538.044199	707.25
1538.559159	707.75
1539.074064	705.25
1539.588915	704.25
1540.103712	709.5
1540.618454	711.5
1541.133141	705.75
1541.647774	707.75
1542.162353	709.25
1542.676877	712.5
1543.191346	708.0
1543.705761	709.0
1544.220122	713.75
1544.734428	706.5
1545.24868	709.75
1545.762877	710.5
1546.27702	709.0
1546.791109	707.0
1547.305143	709.0
1547.819122	711.5
1548.333047	707.75
1548.846918	709.0
1549.360734	708.0
1549.874496	712.0
1550.388204	707.5
1550.901857	707.5
1551.415455	712.0
1551.929	713.5
1552.442489	708.25
1552.955925	708.5
1553.469306	708.0
1553.982632	710.5
1554.495905	712.25
1555.009123	709.25
1555.522286	710.5
1556.035395	707.75
1556.54845	710.0
1557.06145	708.5
1557.574396	711.5
1558.087288	709.75
1558.600125	708.5
1559.112908	707.5
1559.625637	711.0
1560.138311	711.75
1560.650931	707.0
1561.163497	713.5
1561.676008	709.25
1562.188465	713.25
1562.700867	710.0
1563.213216	712.0
1563.725509	713.0
1564.237749	710.0
1564.749934	711.0
1565.262065	721.25
1565.774142	709.25
1566.286164	709.75
1566.798132	710.75
1567.310046	708.25
1567.821906	713.0
1568.333711	717.25
1568.845462	711.5
1569.357158	711.75
1569.868801	706.0
1570.380389	712.5
1570.891922	711.25
1571.403402	708.0
1571.914827	711.25
1572.426198	713.25
1572.937515	708.25
1573.448777	715.5
1573.959985	712.25
1574.471139	710.25
1574.982239	711.25
1575.493285	709.25
1576.004276	712.75
1576.515213	712.25
1577.026096	709.25
1577.536924	716.0
1578.047698	715.0
1578.558419	712.25
1579.069084	717.75
1579.579696	716.0
1580.090254	716.25
1580.600757	719.25
1581.111206	717.0
1581.621601	714.25
1582.131941	721.75
1582.642228	722.0
1583.15246	719.25
1583.662638	716.75
1584.172762	714.5
1584.682832	715.5
1585.192847	709.75
1585.702809	712.75
1586.212716	716.5
1586.722569	711.25
1587.232368	710.75
1587.742113	712.5
1588.251803	714.0
1588.76144	718.75
1589.271022	711.75
1589.78055	710.5
1590.290024	712.0
1590.799444	711.75
1591.30881	714.75
1591.818121	713.75
1592.327379	710.5
