 1.042414189E+03	 1.487250000E+04
 1.042980685E+03	 1.482650000E+04
 1.043547124E+03	 1.488700000E+04
 1.044113505E+03	 1.482400000E+04
 1.044679828E+03	 1.486450000E+04
 1.045246093E+03	 1.489300000E+04
 1.045812300E+03	 1.487625000E+04
 1.046378449E+03	 1.496925000E+04
 1.046944540E+03	 1.492275000E+04
 1.047510573E+03	 1.490875000E+04
 1.048076548E+03	 1.494700000E+04
 1.048642465E+03	 1.497600000E+04
 1.049208325E+03	 1.504450000E+04
 1.049774126E+03	 1.499750000E+04
 1.050339869E+03	 1.494675000E+04
 1.050905555E+03	 1.499550000E+04
 1.051471183E+03	 1.503775000E+04
 1.052036752E+03	 1.508525000E+04
 1.052602264E+03	 1.504525000E+04
 1.053167718E+03	 1.507600000E+04
 1.053733114E+03	 1.517950000E+04
 1.054298452E+03	 1.518425000E+04
 1.054863733E+03	 1.513175000E+04
 1.055428955E+03	 1.515100000E+04
 1.055994119E+03	 1.514375000E+04
 1.056559226E+03	 1.516150000E+04
 1.057124275E+03	 1.518450000E+04
 1.057689266E+03	 1.521650000E+04
 1.058254199E+03	 1.524275000E+04
 1.058819074E+03	 1.529275000E+04
 1.059383891E+03	 1.521450000E+04
 1.059948650E+03	 1.535025000E+04
 1.060513352E+03	 1.525000000E+04
 1.061077996E+03	 1.536200000E+04
 1.061642582E+03	 1.526600000E+04
 1.062207110E+03	 1.538400000E+04
 1.062771580E+03	 1.528425000E+04
 1.063335992E+03	 1.530250000E+04
 1.063900347E+03	 1.526200000E+04
 1.064464643E+03	 1.532850000E+04
 1.065028882E+03	 1.531075000E+04
 1.065593063E+03	 1.537775000E+04
 1.066157187E+03	 1.537850000E+04
 1.066721252E+03	 1.545800000E+04
 1.067285260E+03	 1.539250000E+04
 1.067849210E+03	 1.543575000E+04
 1.068413102E+03	 1.538675000E+04
 1.068976936E+03	 1.545675000E+04
 1.069540713E+03	 1.542950000E+04
 1.070104431E+03	 1.554175000E+04
 1.070668092E+03	 1.553600000E+04
 1.071231696E+03	 1.560025000E+04
 1.071795241E+03	 1.551575000E+04
 1.072358729E+03	 1.557850000E+04
 1.072922159E+03	 1.541750000E+04
 1.073485531E+03	 1.564550000E+04
 1.074048845E+03	 1.556450000E+04
 1.074612102E+03	 1.549850000E+04
 1.075175301E+03	 1.553325000E+04
 1.075738442E+03	 1.556075000E+04
 1.076301525E+03	 1.552825000E+04
 1.076864551E+03	 1.563200000E+04
 1.077427519E+03	 1.545275000E+04
 1.077990429E+03	 1.563725000E+04
 1.078553281E+03	 1.556775000E+04
 1.079116076E+03	 1.558275000E+04
 1.079678813E+03	 1.557050000E+04
 1.080241492E+03	 1.572775000E+04
 1.080804114E+03	 1.559800000E+04
 1.081366678E+03	 1.569350000E+04
 1.081929184E+03	 1.567275000E+04
 1.082491633E+03	 1.574900000E+04
 1.083054024E+03	 1.564125000E+04
 1.083616357E+03	 1.574850000E+04
 1.084178632E+03	 1.563525000E+04
 1.084740850E+03	 1.575925000E+04
 1.085303010E+03	 1.562825000E+04
 1.085865113E+03	 1.579575000E+04
 1.086427158E+03	 1.566350000E+04
 1.086989145E+03	 1.575125000E+04
 1.087551074E+03	 1.572750000E+04
 1.088112946E+03	 1.580325000E+04
 1.088674760E+03	 1.568375000E+04
 1.089236517E+03	 1.581075000E+04
 1.089798216E+03	 1.571300000E+04
 1.090359857E+03	 1.573700000E+04
 1.090921440E+03	 1.571650000E+04
 1.091482966E+03	 1.596225000E+04
 1.092044435E+03	 1.571800000E+04
 1.092605845E+03	 1.583275000E+04
 1.093167199E+03	 1.575975000E+04
 1.093728494E+03	 1.587375000E+04
 1.094289732E+03	 1.577225000E+04
 1.094850912E+03	 1.590625000E+04
 1.095412035E+03	 1.581900000E+04
 1.095973100E+03	 1.587000000E+04
 1.096534107E+03	 1.574475000E+04
 1.097095057E+03	 1.593675000E+04
 1.097655950E+03	 1.574225000E+04
 1.098216784E+03	 1.592800000E+04
 1.098777561E+03	 1.577350000E+04
 1.099338281E+03	 1.588775000E+04
 1.099898943E+03	 1.588475000E+04
 1.100459547E+03	 1.596575000E+04
 1.101020094E+03	 1.580850000E+04
 1.101580584E+03	 1.586950000E+04
 1.102141015E+03	 1.580225000E+04
 1.102701389E+03	 1.593600000E+04
 1.103261706E+03	 1.579575000E+04
 1.103821965E+03	 1.593925000E+04
 1.104382167E+03	 1.584450000E+04
 1.104942311E+03	 1.593925000E+04
 1.105502397E+03	 1.583625000E+04
 1.106062426E+03	 1.593950000E+04
 1.106622398E+03	 1.583100000E+04
 1.107182312E+03	 1.594775000E+04
 1.107742168E+03	 1.585275000E+04
 1.108301967E+03	 1.596350000E+04
 1.108861708E+03	 1.579575000E+04
 1.109421392E+03	 1.593625000E+04
 1.109981019E+03	 1.599150000E+04
 1.110540587E+03	 1.599800000E+04
 1.111100099E+03	 1.580350000E+04
 1.111659553E+03	 1.606075000E+04
 1.112218949E+03	 1.583400000E+04
 1.112778288E+03	 1.596250000E+04
 1.113337570E+03	 1.592175000E+04
 1.113896794E+03	 1.601200000E+04
 1.114455960E+03	 1.595675000E+04
 1.115015069E+03	 1.610400000E+04
 1.115574121E+03	 1.599250000E+04
 1.116133115E+03	 1.609800000E+04
 1.116692052E+03	 1.597100000E+04
 1.117250931E+03	 1.611725000E+04
 1.117809753E+03	 1.599400000E+04
 1.118368517E+03	 1.602125000E+04
 1.118927224E+03	 1.599800000E+04
 1.119485873E+03	 1.609175000E+04
 1.120044465E+03	 1.602150000E+04
 1.120603000E+03	 1.608375000E+04
 1.121161477E+03	 1.601475000E+04
 1.121719897E+03	 1.620250000E+04
 1.122278259E+03	 1.604625000E+04
 1.122836564E+03	 1.623350000E+04
 1.123394812E+03	 1.607300000E+04
 1.123953002E+03	 1.623775000E+04
 1.124511135E+03	 1.617575000E+04
 1.125069210E+03	 1.627750000E+04
 1.125627228E+03	 1.609650000E+04
 1.126185189E+03	 1.615100000E+04
 1.126743092E+03	 1.622925000E+04
 1.127300938E+03	 1.631800000E+04
 1.127858726E+03	 1.623350000E+04
 1.128416457E+03	 1.632950000E+04
 1.128974131E+03	 1.619925000E+04
 1.129531748E+03	 1.627625000E+04
 1.130089307E+03	 1.628425000E+04
 1.130646808E+03	 1.627625000E+04
 1.131204252E+03	 1.629650000E+04
 1.131761639E+03	 1.645775000E+04
 1.132318969E+03	 1.634850000E+04
 1.132876241E+03	 1.644925000E+04
 1.133433456E+03	 1.631050000E+04
 1.133990614E+03	 1.644700000E+04
 1.134547714E+03	 1.645250000E+04
 1.135104757E+03	 1.647350000E+04
 1.135661743E+03	 1.641425000E+04
 1.136218671E+03	 1.654025000E+04
 1.136775542E+03	 1.652050000E+04
 1.137332356E+03	 1.661750000E+04
 1.137889112E+03	 1.650950000E+04
 1.138445811E+03	 1.660975000E+04
 1.139002453E+03	 1.656675000E+04
 1.139559037E+03	 1.657850000E+04
 1.140115565E+03	 1.646100000E+04
 1.140672035E+03	 1.660325000E+04
 1.141228447E+03	 1.656300000E+04
 1.141784803E+03	 1.665350000E+04
 1.142341101E+03	 1.659025000E+04
 1.142897342E+03	 1.675075000E+04
 1.143453525E+03	 1.675225000E+04
 1.144009651E+03	 1.673250000E+04
 1.144565721E+03	 1.671325000E+04
 1.145121732E+03	 1.680650000E+04
 1.145677687E+03	 1.672550000E+04
 1.146233584E+03	 1.672750000E+04
 1.146789424E+03	 1.684925000E+04
 1.147345207E+03	 1.686925000E+04
 1.147900933E+03	 1.687375000E+04
 1.148456601E+03	 1.680075000E+04
 1.149012212E+03	 1.686600000E+04
 1.149567766E+03	 1.696225000E+04
 1.150123263E+03	 1.694375000E+04
 1.150678702E+03	 1.698425000E+04
 1.151234085E+03	 1.693600000E+04
 1.151789410E+03	 1.701975000E+04
 1.152344678E+03	 1.698200000E+04
 1.152899888E+03	 1.705225000E+04
 1.153455042E+03	 1.701950000E+04
 1.154010138E+03	 1.699850000E+04
 1.154565177E+03	 1.705300000E+04
 1.155120159E+03	 1.702900000E+04
 1.155675084E+03	 1.714550000E+04
 1.156229951E+03	 1.710850000E+04
 1.156784762E+03	 1.719050000E+04
 1.157339515E+03	 1.714950000E+04
 1.157894211E+03	 1.718125000E+04
 1.158448850E+03	 1.720550000E+04
 1.159003432E+03	 1.730275000E+04
 1.159557956E+03	 1.721700000E+04
 1.160112424E+03	 1.733350000E+04
 1.160666834E+03	 1.716075000E+04
 1.161221187E+03	 1.727825000E+04
 1.161775483E+03	 1.733600000E+04
 1.162329722E+03	 1.731950000E+04
 1.162883904E+03	 1.734750000E+04
 1.163438029E+03	 1.731500000E+04
 1.163992096E+03	 1.739700000E+04
 1.164546107E+03	 1.741300000E+04
 1.165100060E+03	 1.740325000E+04
 1.165653956E+03	 1.740850000E+04
 1.166207795E+03	 1.736600000E+04
 1.166761577E+03	 1.743825000E+04
 1.167315302E+03	 1.744250000E+04
 1.167868970E+03	 1.751625000E+04
 1.168422581E+03	 1.745600000E+04
 1.168976134E+03	 1.748175000E+04
 1.169529631E+03	 1.740225000E+04
 1.170083070E+03	 1.759075000E+04
 1.170636453E+03	 1.746500000E+04
 1.171189778E+03	 1.747825000E+04
 1.171743046E+03	 1.750300000E+04
 1.172296257E+03	 1.755775000E+04
 1.172849412E+03	 1.751675000E+04
 1.173402509E+03	 1.765225000E+04
 1.173955549E+03	 1.751750000E+04
 1.174508532E+03	 1.753725000E+04
 1.175061458E+03	 1.768550000E+04
 1.175614327E+03	 1.763425000E+04
 1.176167138E+03	 1.757200000E+04
 1.176719893E+03	 1.763075000E+04
 1.177272591E+03	 1.768025000E+04
 1.177825232E+03	 1.771625000E+04
 1.178377816E+03	 1.782000000E+04
 1.178930342E+03	 1.781725000E+04
 1.179482812E+03	 1.776975000E+04
 1.180035225E+03	 1.768675000E+04
 1.180587581E+03	 1.769925000E+04
 1.181139879E+03	 1.768450000E+04
 1.181692121E+03	 1.770625000E+04
 1.182244306E+03	 1.776075000E+04
 1.182796434E+03	 1.776700000E+04
 1.183348504E+03	 1.773700000E+04
 1.183900518E+03	 1.787825000E+04
 1.184452475E+03	 1.787350000E+04
 1.185004375E+03	 1.784475000E+04
 1.185556218E+03	 1.788625000E+04
 1.186108004E+03	 1.791300000E+04
 1.186659733E+03	 1.786700000E+04
 1.187211405E+03	 1.783950000E+04
 1.187763020E+03	 1.783150000E+04
 1.188314578E+03	 1.796200000E+04
 1.188866079E+03	 1.794175000E+04
 1.189417523E+03	 1.796250000E+04
 1.189968910E+03	 1.790800000E+04
 1.190520241E+03	 1.803225000E+04
 1.191071514E+03	 1.791425000E+04
 1.191622731E+03	 1.796500000E+04
 1.192173890E+03	 1.796675000E+04
 1.192724993E+03	 1.802525000E+04
 1.193276039E+03	 1.811225000E+04
 1.193827027E+03	 1.807550000E+04
 1.194377959E+03	 1.806050000E+04
 1.194928834E+03	 1.813725000E+04
 1.195479653E+03	 1.806150000E+04
 1.196030414E+03	 1.811575000E+04
 1.196581118E+03	 1.809450000E+04
 1.197131766E+03	 1.807775000E+04
 1.197682356E+03	 1.807925000E+04
 1.198232890E+03	 1.818200000E+04
 1.198783367E+03	 1.814925000E+04
 1.199333786E+03	 1.818325000E+04
 1.199884150E+03	 1.815500000E+04
 1.200434456E+03	 1.805950000E+04
 1.200984705E+03	 1.809925000E+04
 1.201534898E+03	 1.819600000E+04
 1.202085033E+03	 1.820925000E+04
 1.202635112E+03	 1.819200000E+04
 1.203185134E+03	 1.824275000E+04
 1.203735099E+03	 1.827825000E+04
 1.204285007E+03	 1.826125000E+04
 1.204834859E+03	 1.818225000E+04
 1.205384653E+03	 1.823875000E+04
 1.205934391E+03	 1.821275000E+04
 1.206484072E+03	 1.824000000E+04
 1.207033696E+03	 1.824075000E+04
 1.207583263E+03	 1.824775000E+04
 1.208132774E+03	 1.825050000E+04
 1.208682228E+03	 1.820325000E+04
 1.209231624E+03	 1.829850000E+04
 1.209780965E+03	 1.837800000E+04
 1.210330248E+03	 1.826425000E+04
 1.210879474E+03	 1.838025000E+04
 1.211428644E+03	 1.838875000E+04
 1.211977757E+03	 1.828650000E+04
 1.212526813E+03	 1.847675000E+04
 1.213075813E+03	 1.835450000E+04
 1.213624755E+03	 1.840075000E+04
 1.214173641E+03	 1.838125000E+04
 1.214722470E+03	 1.835100000E+04
 1.215271242E+03	 1.841725000E+04
 1.215819958E+03	 1.855500000E+04
 1.216368617E+03	 1.843800000E+04
 1.216917219E+03	 1.850925000E+04
 1.217465764E+03	 1.851875000E+04
 1.218014253E+03	 1.851775000E+04
 1.218562685E+03	 1.844175000E+04
 1.219111060E+03	 1.846250000E+04
 1.219659378E+03	 1.845950000E+04
 1.220207640E+03	 1.852400000E+04
 1.220755845E+03	 1.843375000E+04
 1.221303993E+03	 1.860825000E+04
 1.221852085E+03	 1.849400000E+04
 1.222400119E+03	 1.861675000E+04
 1.222948097E+03	 1.858050000E+04
 1.223496019E+03	 1.864500000E+04
 1.224043883E+03	 1.864675000E+04
 1.224591691E+03	 1.866875000E+04
 1.225139443E+03	 1.868425000E+04
 1.225687137E+03	 1.872150000E+04
 1.226234775E+03	 1.864200000E+04
 1.226782357E+03	 1.868375000E+04
 1.227329881E+03	 1.868400000E+04
 1.227877349E+03	 1.873600000E+04
 1.228424760E+03	 1.872925000E+04
 1.228972115E+03	 1.873075000E+04
 1.229519413E+03	 1.874300000E+04
 1.230066654E+03	 1.875550000E+04
 1.230613839E+03	 1.882000000E+04
 1.231160967E+03	 1.878050000E+04
 1.231708038E+03	 1.884875000E+04
 1.232255053E+03	 1.879100000E+04
 1.232802011E+03	 1.892750000E+04
 1.233348912E+03	 1.883000000E+04
 1.233895757E+03	 1.893950000E+04
 1.234442545E+03	 1.881850000E+04
 1.234989277E+03	 1.896850000E+04
 1.235535951E+03	 1.882550000E+04
 1.236082570E+03	 1.892125000E+04
 1.236629131E+03	 1.886275000E+04
 1.237175636E+03	 1.897800000E+04
 1.237722085E+03	 1.899425000E+04
 1.238268477E+03	 1.895200000E+04
 1.238814812E+03	 1.899700000E+04
 1.239361091E+03	 1.905625000E+04
 1.239907313E+03	 1.900825000E+04
 1.240453478E+03	 1.908000000E+04
 1.240999587E+03	 1.905100000E+04
 1.241545640E+03	 1.894800000E+04
 1.242091636E+03	 1.911175000E+04
 1.242637575E+03	 1.908300000E+04
 1.243183457E+03	 1.907650000E+04
 1.243729284E+03	 1.905050000E+04
 1.244275053E+03	 1.914200000E+04
 1.244820766E+03	 1.920450000E+04
 1.245366423E+03	 1.919475000E+04
 1.245912022E+03	 1.914775000E+04
 1.246457566E+03	 1.924350000E+04
 1.247003053E+03	 1.921425000E+04
 1.247548483E+03	 1.933600000E+04
 1.248093857E+03	 1.913150000E+04
 1.248639174E+03	 1.927175000E+04
 1.249184435E+03	 1.922400000E+04
 1.249729639E+03	 1.927050000E+04
 1.250274787E+03	 1.919050000E+04
 1.250819878E+03	 1.936125000E+04
 1.251364912E+03	 1.921000000E+04
 1.251909891E+03	 1.930925000E+04
 1.252454812E+03	 1.937675000E+04
 1.252999677E+03	 1.941975000E+04
 1.253544486E+03	 1.938100000E+04
 1.254089238E+03	 1.948225000E+04
 1.254633934E+03	 1.941075000E+04
 1.255178573E+03	 1.943450000E+04
 1.255723156E+03	 1.936750000E+04
 1.256267682E+03	 1.942125000E+04
 1.256812152E+03	 1.939900000E+04
 1.257356565E+03	 1.952050000E+04
 1.257900922E+03	 1.944325000E+04
 1.258445223E+03	 1.939775000E+04
 1.258989467E+03	 1.953800000E+04
 1.259533654E+03	 1.973075000E+04
 1.260077785E+03	 1.957475000E+04
 1.260621860E+03	 1.950175000E+04
 1.261165878E+03	 1.948025000E+04
 1.261709840E+03	 1.951900000E+04
 1.262253745E+03	 1.952475000E+04
 1.262797594E+03	 1.956100000E+04
 1.263341386E+03	 1.966675000E+04
 1.263885123E+03	 1.967600000E+04
 1.264428802E+03	 1.961275000E+04
 1.264972425E+03	 1.967525000E+04
 1.265515992E+03	 1.971400000E+04
 1.266059503E+03	 1.960775000E+04
 1.266602957E+03	 1.967300000E+04
 1.267146354E+03	 1.965825000E+04
 1.267689696E+03	 1.970950000E+04
 1.268232980E+03	 1.970450000E+04
 1.268776209E+03	 1.976625000E+04
 1.269319381E+03	 1.975400000E+04
 1.269862497E+03	 1.974875000E+04
 1.270405556E+03	 1.970175000E+04
 1.270948559E+03	 1.973700000E+04
 1.271491506E+03	 1.971825000E+04
 1.272034396E+03	 1.979200000E+04
 1.272577230E+03	 1.982525000E+04
 1.273120007E+03	 1.978200000E+04
 1.273662728E+03	 1.991375000E+04
 1.274205393E+03	 1.988300000E+04
 1.274748002E+03	 1.984200000E+04
 1.275290554E+03	 1.985875000E+04
 1.275833050E+03	 1.989650000E+04
 1.276375489E+03	 1.988525000E+04
 1.276917872E+03	 1.991750000E+04
 1.277460199E+03	 2.002175000E+04
 1.278002470E+03	 1.997150000E+04
 1.278544684E+03	 1.998100000E+04
 1.279086842E+03	 2.005750000E+04
 1.279628943E+03	 1.999600000E+04
 1.280170989E+03	 2.001700000E+04
 1.280712978E+03	 2.001650000E+04
 1.281254910E+03	 2.009450000E+04
 1.281796787E+03	 1.997800000E+04
 1.282338607E+03	 2.009175000E+04
 1.282880371E+03	 2.004275000E+04
 1.283422078E+03	 2.010200000E+04
 1.283963729E+03	 2.009550000E+04
 1.284505324E+03	 2.019950000E+04
 1.285046863E+03	 2.023800000E+04
 1.285588345E+03	 2.056000000E+04
 1.286129772E+03	 2.048675000E+04
 1.286671142E+03	 2.030925000E+04
 1.287212455E+03	 2.013225000E+04
 1.287753713E+03	 2.015325000E+04
 1.288294914E+03	 2.018300000E+04
 1.288836059E+03	 2.022900000E+04
 1.289377147E+03	 2.018425000E+04
 1.289918180E+03	 2.019975000E+04
 1.290459156E+03	 2.019675000E+04
 1.291000076E+03	 2.024200000E+04
 1.291540940E+03	 2.019225000E+04
 1.292081747E+03	 2.030950000E+04
 1.292622499E+03	 2.028100000E+04
 1.293163194E+03	 2.022500000E+04
 1.293703833E+03	 2.030300000E+04
 1.294244415E+03	 2.024225000E+04
 1.294784942E+03	 2.037625000E+04
 1.295325412E+03	 2.028525000E+04
 1.295865826E+03	 2.034325000E+04
 1.296406184E+03	 2.024825000E+04
 1.296946486E+03	 2.032250000E+04
 1.297486731E+03	 2.030650000E+04
 1.298026921E+03	 2.043750000E+04
 1.298567054E+03	 2.030675000E+04
 1.299107131E+03	 2.046300000E+04
 1.299647152E+03	 2.034675000E+04
 1.300187116E+03	 2.052650000E+04
 1.300727025E+03	 2.039950000E+04
 1.301266877E+03	 2.051875000E+04
 1.301806673E+03	 2.038950000E+04
 1.302346413E+03	 2.054525000E+04
 1.302886097E+03	 2.044000000E+04
 1.303425725E+03	 2.047000000E+04
 1.303965297E+03	 2.047175000E+04
 1.304504812E+03	 2.055350000E+04
 1.305044272E+03	 2.046900000E+04
 1.305583675E+03	 2.044500000E+04
 1.306123022E+03	 2.056000000E+04
 1.306662313E+03	 2.052900000E+04
 1.307201548E+03	 2.061750000E+04
 1.307740727E+03	 2.054225000E+04
 1.308279849E+03	 2.057500000E+04
 1.308818916E+03	 2.048175000E+04
 1.309357926E+03	 2.065700000E+04
 1.309896881E+03	 2.052175000E+04
 1.310435779E+03	 2.073125000E+04
 1.310974621E+03	 2.055925000E+04
 1.311513407E+03	 2.073550000E+04
 1.312052137E+03	 2.052500000E+04
 1.312590811E+03	 2.070025000E+04
 1.313129429E+03	 2.062675000E+04
 1.313667991E+03	 2.081650000E+04
 1.314206497E+03	 2.065575000E+04
 1.314744946E+03	 2.067025000E+04
 1.315283340E+03	 2.060525000E+04
 1.315821678E+03	 2.069475000E+04
 1.316359959E+03	 2.069925000E+04
 1.316898184E+03	 2.077200000E+04
 1.317436354E+03	 2.066575000E+04
 1.317974467E+03	 2.070325000E+04
 1.318512525E+03	 2.077850000E+04
 1.319050526E+03	 2.072875000E+04
 1.319588471E+03	 2.079475000E+04
 1.320126360E+03	 2.068350000E+04
 1.320664194E+03	 2.082975000E+04
 1.321201971E+03	 2.070525000E+04
 1.321739692E+03	 2.089125000E+04
 1.322277357E+03	 2.064275000E+04
 1.322814967E+03	 2.097025000E+04
 1.323352520E+03	 2.074300000E+04
 1.323890017E+03	 2.088650000E+04
 1.324427458E+03	 2.079400000E+04
 1.324964843E+03	 2.088425000E+04
 1.325502173E+03	 2.084275000E+04
 1.326039446E+03	 2.100375000E+04
 1.326576663E+03	 2.090025000E+04
 1.327113824E+03	 2.088825000E+04
 1.327650930E+03	 2.091825000E+04
 1.328187979E+03	 2.094750000E+04
 1.328724972E+03	 2.100075000E+04
 1.329261910E+03	 2.105425000E+04
 1.329798791E+03	 2.097525000E+04
 1.330335617E+03	 2.101650000E+04
 1.330872386E+03	 2.103475000E+04
 1.331409100E+03	 2.092875000E+04
 1.331945758E+03	 2.107475000E+04
 1.332482360E+03	 2.101500000E+04
 1.333018905E+03	 2.094925000E+04
 1.333555395E+03	 2.096625000E+04
 1.334091829E+03	 2.108200000E+04
 1.334628207E+03	 2.103550000E+04
 1.335164529E+03	 2.117875000E+04
 1.335700796E+03	 2.096425000E+04
 1.336237006E+03	 2.119325000E+04
 1.336773160E+03	 2.105225000E+04
 1.337309259E+03	 2.113850000E+04
 1.337845301E+03	 2.117100000E+04
 1.338381288E+03	 2.122975000E+04
 1.338917219E+03	 2.111625000E+04
 1.339453094E+03	 2.107775000E+04
 1.339988913E+03	 2.105025000E+04
 1.340524676E+03	 2.103350000E+04
 1.341060383E+03	 2.116700000E+04
 1.341596034E+03	 2.116950000E+04
 1.342131630E+03	 2.117850000E+04
 1.342667170E+03	 2.117650000E+04
 1.343202653E+03	 2.118075000E+04
 1.343738081E+03	 2.110125000E+04
 1.344273453E+03	 2.129275000E+04
 1.344808770E+03	 2.110650000E+04
 1.345344030E+03	 2.127775000E+04
 1.345879235E+03	 2.115525000E+04
 1.346414383E+03	 2.125550000E+04
 1.346949476E+03	 2.119225000E+04
 1.347484513E+03	 2.138275000E+04
 1.348019494E+03	 2.121250000E+04
 1.348554420E+03	 2.135600000E+04
 1.349089289E+03	 2.128100000E+04
 1.349624103E+03	 2.132500000E+04
 1.350158861E+03	 2.140650000E+04
 1.350693563E+03	 2.138675000E+04
 1.351228209E+03	 2.127000000E+04
 1.351762800E+03	 2.131800000E+04
 1.352297334E+03	 2.139950000E+04
 1.352831813E+03	 2.129775000E+04
 1.353366236E+03	 2.137050000E+04
 1.353900604E+03	 2.132775000E+04
 1.354434915E+03	 2.138800000E+04
 1.354969171E+03	 2.126100000E+04
 1.355503371E+03	 2.137050000E+04
 1.356037515E+03	 2.131050000E+04
 1.356571604E+03	 2.150625000E+04
 1.357105636E+03	 2.133150000E+04
 1.357639613E+03	 2.139025000E+04
 1.358173535E+03	 2.142575000E+04
 1.358707400E+03	 2.146475000E+04
 1.359241210E+03	 2.145125000E+04
 1.359774964E+03	 2.152325000E+04
 1.360308662E+03	 2.144075000E+04
 1.360842304E+03	 2.133950000E+04
 1.361375891E+03	 2.147775000E+04
 1.361909422E+03	 2.140325000E+04
 1.362442897E+03	 2.145975000E+04
 1.362976317E+03	 2.140425000E+04
 1.363509680E+03	 2.152325000E+04
 1.364042989E+03	 2.145650000E+04
 1.364576241E+03	 2.161325000E+04
 1.365109438E+03	 2.138125000E+04
 1.365642579E+03	 2.150400000E+04
 1.366175664E+03	 2.154175000E+04
 1.366708693E+03	 2.169750000E+04
 1.367241667E+03	 2.151225000E+04
 1.367774585E+03	 2.154375000E+04
 1.368307448E+03	 2.153125000E+04
 1.368840255E+03	 2.160725000E+04
 1.369373006E+03	 2.153150000E+04
 1.369905701E+03	 2.163375000E+04
 1.370438341E+03	 2.162300000E+04
 1.370970925E+03	 2.162325000E+04
 1.371503454E+03	 2.157025000E+04
 1.372035926E+03	 2.156725000E+04
 1.372568344E+03	 2.159750000E+04
 1.373100705E+03	 2.164600000E+04
 1.373633011E+03	 2.167900000E+04
 1.374165261E+03	 2.161775000E+04
 1.374697456E+03	 2.180125000E+04
 1.375229595E+03	 2.156850000E+04
 1.375761678E+03	 2.168350000E+04
 1.376293705E+03	 2.154725000E+04
 1.376825677E+03	 2.182375000E+04
 1.377357594E+03	 2.164575000E+04
 1.377889455E+03	 2.174600000E+04
 1.378421260E+03	 2.165900000E+04
 1.378953009E+03	 2.166700000E+04
 1.379484703E+03	 2.169200000E+04
 1.380016342E+03	 2.167300000E+04
 1.380547924E+03	 2.176700000E+04
 1.381079452E+03	 2.175100000E+04
 1.381610923E+03	 2.179750000E+04
 1.382142339E+03	 2.167475000E+04
 1.382673699E+03	 2.186575000E+04
 1.383205004E+03	 2.175775000E+04
 1.383736253E+03	 2.193100000E+04
 1.384267447E+03	 2.168975000E+04
 1.384798585E+03	 2.190375000E+04
 1.385329668E+03	 2.166750000E+04
 1.385860695E+03	 2.185125000E+04
 1.386391666E+03	 2.176150000E+04
 1.386922582E+03	 2.194950000E+04
 1.387453442E+03	 2.188900000E+04
 1.387984247E+03	 2.196075000E+04
 1.388514996E+03	 2.212300000E+04
 1.389045690E+03	 2.249925000E+04
 1.389576328E+03	 2.240375000E+04
 1.390106910E+03	 2.198550000E+04
 1.390637437E+03	 2.199925000E+04
 1.391167909E+03	 2.185825000E+04
 1.391698325E+03	 2.189675000E+04
 1.392228685E+03	 2.183525000E+04
 1.392758990E+03	 2.199600000E+04
 1.393289240E+03	 2.183600000E+04
 1.393819434E+03	 2.200125000E+04
 1.394349572E+03	 2.179175000E+04
 1.394879655E+03	 2.199450000E+04
 1.395409683E+03	 2.192175000E+04
 1.395939655E+03	 2.201725000E+04
 1.396469571E+03	 2.188950000E+04
 1.396999432E+03	 2.209950000E+04
 1.397529237E+03	 2.198750000E+04
 1.398058987E+03	 2.195375000E+04
 1.398588682E+03	 2.215850000E+04
 1.399118321E+03	 2.203225000E+04
 1.399647905E+03	 2.211225000E+04
 1.400177433E+03	 2.202050000E+04
 1.400706906E+03	 2.211900000E+04
 1.401236323E+03	 2.200075000E+04
 1.401765685E+03	 2.214475000E+04
 1.402294991E+03	 2.199825000E+04
 1.402824242E+03	 2.206250000E+04
 1.403353437E+03	 2.213050000E+04
 1.403882577E+03	 2.219075000E+04
 1.404411662E+03	 2.204800000E+04
 1.404940691E+03	 2.217000000E+04
 1.405469665E+03	 2.216075000E+04
 1.405998583E+03	 2.219550000E+04
 1.406527446E+03	 2.217850000E+04
 1.407056253E+03	 2.206275000E+04
 1.407585005E+03	 2.227275000E+04
 1.408113702E+03	 2.209350000E+04
 1.408642343E+03	 2.226350000E+04
 1.409170929E+03	 2.213850000E+04
 1.409699460E+03	 2.222375000E+04
 1.410227935E+03	 2.228475000E+04
 1.410756354E+03	 2.237100000E+04
 1.411284719E+03	 2.223050000E+04
 1.411813028E+03	 2.233450000E+04
 1.412341281E+03	 2.228475000E+04
 1.412869479E+03	 2.230600000E+04
 1.413397622E+03	 2.228925000E+04
 1.413925710E+03	 2.231450000E+04
 1.414453742E+03	 2.239875000E+04
 1.414981718E+03	 2.228500000E+04
 1.415509640E+03	 2.233175000E+04
 1.416037506E+03	 2.232350000E+04
 1.416565316E+03	 2.237950000E+04
 1.417093072E+03	 2.233425000E+04
 1.417620772E+03	 2.251700000E+04
 1.418148416E+03	 2.227700000E+04
 1.418676005E+03	 2.238150000E+04
 1.419203539E+03	 2.239625000E+04
 1.419731018E+03	 2.246350000E+04
 1.420258441E+03	 2.238750000E+04
 1.420785809E+03	 2.237800000E+04
 1.421313122E+03	 2.241825000E+04
 1.421840379E+03	 2.246700000E+04
 1.422367582E+03	 2.248350000E+04
 1.422894728E+03	 2.246300000E+04
 1.423421820E+03	 2.251150000E+04
 1.423948856E+03	 2.243650000E+04
 1.424475837E+03	 2.245675000E+04
 1.425002762E+03	 2.250075000E+04
 1.425529633E+03	 2.258850000E+04
 1.426056448E+03	 2.252825000E+04
 1.426583207E+03	 2.267875000E+04
 1.427109912E+03	 2.264700000E+04
 1.427636561E+03	 2.258400000E+04
 1.428163155E+03	 2.248850000E+04
 1.428689694E+03	 2.254275000E+04
 1.429216177E+03	 2.257650000E+04
 1.429742605E+03	 2.261175000E+04
 1.430268978E+03	 2.263075000E+04
 1.430795296E+03	 2.255850000E+04
 1.431321558E+03	 2.255425000E+04
 1.431847765E+03	 2.261200000E+04
 1.432373917E+03	 2.256600000E+04
 1.432900014E+03	 2.258350000E+04
 1.433426056E+03	 2.253325000E+04
 1.433952042E+03	 2.254950000E+04
 1.434477973E+03	 2.271675000E+04
 1.435003849E+03	 2.259575000E+04
 1.435529669E+03	 2.275175000E+04
 1.436055435E+03	 2.265175000E+04
 1.436581145E+03	 2.265800000E+04
 1.437106800E+03	 2.260300000E+04
 1.437632399E+03	 2.263925000E+04
 1.438157944E+03	 2.261175000E+04
 1.438683433E+03	 2.263950000E+04
 1.439208868E+03	 2.261150000E+04
 1.439734247E+03	 2.264625000E+04
 1.440259570E+03	 2.272425000E+04
 1.440784839E+03	 2.266900000E+04
 1.441310053E+03	 2.261800000E+04
 1.441835211E+03	 2.268175000E+04
 1.442360314E+03	 2.255650000E+04
 1.442885362E+03	 2.254500000E+04
 1.443410355E+03	 2.273000000E+04
 1.443935292E+03	 2.267250000E+04
 1.444460175E+03	 2.263700000E+04
 1.444985002E+03	 2.263300000E+04
 1.445509774E+03	 2.272525000E+04
 1.446034491E+03	 2.261125000E+04
 1.446559153E+03	 2.277975000E+04
 1.447083760E+03	 2.270975000E+04
 1.447608312E+03	 2.269600000E+04
 1.448132808E+03	 2.258450000E+04
 1.448657250E+03	 2.271950000E+04
 1.449181636E+03	 2.278900000E+04
 1.449705967E+03	 2.266425000E+04
 1.450230243E+03	 2.274925000E+04
 1.450754464E+03	 2.264225000E+04
 1.451278630E+03	 2.275750000E+04
 1.451802741E+03	 2.277750000E+04
 1.452326797E+03	 2.281825000E+04
 1.452850797E+03	 2.279725000E+04
 1.453374743E+03	 2.274175000E+04
 1.453898633E+03	 2.273675000E+04
 1.454422468E+03	 2.279875000E+04
 1.454946249E+03	 2.284925000E+04
 1.455469974E+03	 2.282000000E+04
 1.455993644E+03	 2.276300000E+04
 1.456517259E+03	 2.278425000E+04
 1.457040819E+03	 2.288150000E+04
 1.457564324E+03	 2.282350000E+04
 1.458087773E+03	 2.294150000E+04
 1.458611168E+03	 2.289450000E+04
 1.459134508E+03	 2.286725000E+04
 1.459657793E+03	 2.284275000E+04
 1.460181022E+03	 2.290750000E+04
 1.460704197E+03	 2.285600000E+04
 1.461227316E+03	 2.291675000E+04
 1.461750381E+03	 2.296050000E+04
 1.462273390E+03	 2.288250000E+04
 1.462796345E+03	 2.281975000E+04
 1.463319244E+03	 2.298350000E+04
 1.463842089E+03	 2.288200000E+04
 1.464364878E+03	 2.276525000E+04
 1.464887613E+03	 2.282175000E+04
 1.465410292E+03	 2.290150000E+04
 1.465932916E+03	 2.279775000E+04
 1.466455486E+03	 2.290825000E+04
 1.466978000E+03	 2.297075000E+04
 1.467500460E+03	 2.291875000E+04
 1.468022864E+03	 2.290050000E+04
 1.468545214E+03	 2.292625000E+04
 1.469067508E+03	 2.278325000E+04
 1.469589748E+03	 2.280275000E+04
 1.470111932E+03	 2.292200000E+04
 1.470634062E+03	 2.282825000E+04
 1.471156136E+03	 2.287550000E+04
 1.471678156E+03	 2.297600000E+04
 1.472200120E+03	 2.291275000E+04
 1.472722030E+03	 2.302925000E+04
 1.473243885E+03	 2.289275000E+04
 1.473765685E+03	 2.298150000E+04
 1.474287430E+03	 2.288700000E+04
 1.474809120E+03	 2.291150000E+04
 1.475330755E+03	 2.283175000E+04
 1.475852335E+03	 2.288150000E+04
 1.476373860E+03	 2.290400000E+04
 1.476895330E+03	 2.283050000E+04
 1.477416745E+03	 2.295850000E+04
 1.477938106E+03	 2.289900000E+04
 1.478459411E+03	 2.288550000E+04
 1.478980662E+03	 2.288500000E+04
 1.479501857E+03	 2.292550000E+04
 1.480022998E+03	 2.299500000E+04
 1.480544084E+03	 2.301025000E+04
 1.481065115E+03	 2.291025000E+04
 1.481586091E+03	 2.288675000E+04
 1.482107012E+03	 2.285275000E+04
 1.482627878E+03	 2.289275000E+04
 1.483148690E+03	 2.295100000E+04
 1.483669446E+03	 2.289100000E+04
 1.484190148E+03	 2.286100000E+04
 1.484710794E+03	 2.295500000E+04
 1.485231386E+03	 2.294750000E+04
 1.485751923E+03	 2.293125000E+04
 1.486272406E+03	 2.292025000E+04
 1.486792833E+03	 2.292950000E+04
 1.487313205E+03	 2.292025000E+04
 1.487833523E+03	 2.286100000E+04
 1.488353786E+03	 2.291475000E+04
 1.488873994E+03	 2.290500000E+04
 1.489394147E+03	 2.292125000E+04
 1.489914245E+03	 2.290700000E+04
 1.490434288E+03	 2.291025000E+04
 1.490954277E+03	 2.295100000E+04
 1.491474211E+03	 2.287025000E+04
 1.491994090E+03	 2.291475000E+04
 1.492513914E+03	 2.293400000E+04
 1.493033683E+03	 2.291600000E+04
 1.493553398E+03	 2.294525000E+04
 1.494073057E+03	 2.294975000E+04
 1.494592662E+03	 2.290950000E+04
 1.495112212E+03	 2.281750000E+04
 1.495631708E+03	 2.299850000E+04
 1.496151148E+03	 2.286875000E+04
 1.496670534E+03	 2.288950000E+04
 1.497189865E+03	 2.287800000E+04
 1.497709141E+03	 2.296025000E+04
 1.498228362E+03	 2.298200000E+04
 1.498747529E+03	 2.303150000E+04
 1.499266641E+03	 2.302050000E+04
 1.499785698E+03	 2.297900000E+04
 1.500304700E+03	 2.301550000E+04
 1.500823648E+03	 2.296525000E+04
 1.501342540E+03	 2.304925000E+04
 1.501861379E+03	 2.288450000E+04
 1.502380162E+03	 2.306875000E+04
 1.502898890E+03	 2.303275000E+04
 1.503417564E+03	 2.308975000E+04
 1.503936183E+03	 2.295400000E+04
 1.504454748E+03	 2.291775000E+04
 1.504973257E+03	 2.302475000E+04
 1.505491712E+03	 2.301800000E+04
 1.506010112E+03	 2.309325000E+04
 1.506528458E+03	 2.296925000E+04
 1.507046748E+03	 2.304625000E+04
 1.507564984E+03	 2.301750000E+04
 1.508083166E+03	 2.309600000E+04
 1.508601292E+03	 2.301525000E+04
 1.509119364E+03	 2.299550000E+04
 1.509637381E+03	 2.298825000E+04
 1.510155344E+03	 2.296000000E+04
 1.510673252E+03	 2.306375000E+04
 1.511191105E+03	 2.294950000E+04
 1.511708903E+03	 2.313375000E+04
 1.512226647E+03	 2.292500000E+04
 1.512744336E+03	 2.309175000E+04
 1.513261971E+03	 2.297700000E+04
 1.513779550E+03	 2.307175000E+04
 1.514297076E+03	 2.296400000E+04
 1.514814546E+03	 2.306225000E+04
 1.515331962E+03	 2.297500000E+04
 1.515849323E+03	 2.311100000E+04
 1.516366629E+03	 2.309025000E+04
 1.516883881E+03	 2.299275000E+04
 1.517401078E+03	 2.315775000E+04
 1.517918221E+03	 2.309300000E+04
 1.518435309E+03	 2.313575000E+04
 1.518952342E+03	 2.306775000E+04
 1.519469321E+03	 2.316550000E+04
 1.519986245E+03	 2.305700000E+04
 1.520503114E+03	 2.312200000E+04
 1.521019929E+03	 2.301125000E+04
 1.521536689E+03	 2.310250000E+04
 1.522053395E+03	 2.312075000E+04
 1.522570046E+03	 2.305200000E+04
 1.523086642E+03	 2.325825000E+04
 1.523603184E+03	 2.302200000E+04
 1.524119671E+03	 2.317250000E+04
 1.524636103E+03	 2.303975000E+04
 1.525152481E+03	 2.322475000E+04
 1.525668805E+03	 2.300575000E+04
 1.526185073E+03	 2.320925000E+04
 1.526701288E+03	 2.307100000E+04
 1.527217447E+03	 2.313950000E+04
 1.527733552E+03	 2.318250000E+04
 1.528249603E+03	 2.313550000E+04
 1.528765599E+03	 2.319875000E+04
 1.529281540E+03	 2.317125000E+04
 1.529797427E+03	 2.322400000E+04
 1.530313259E+03	 2.307025000E+04
 1.530829037E+03	 2.330525000E+04
 1.531344760E+03	 2.313400000E+04
 1.531860429E+03	 2.323800000E+04
 1.532376043E+03	 2.311550000E+04
 1.532891602E+03	 2.323175000E+04
 1.533407107E+03	 2.322650000E+04
 1.533922558E+03	 2.320725000E+04
 1.534437954E+03	 2.325550000E+04
 1.534953295E+03	 2.317050000E+04
 1.535468582E+03	 2.327475000E+04
 1.535983815E+03	 2.316125000E+04
 1.536498993E+03	 2.334275000E+04
 1.537014116E+03	 2.317175000E+04
 1.537529185E+03	 2.331600000E+04
 1.538044199E+03	 2.325250000E+04
 1.538559159E+03	 2.324825000E+04
 1.539074064E+03	 2.328350000E+04
 1.539588915E+03	 2.321375000E+04
 1.540103712E+03	 2.330425000E+04
 1.540618454E+03	 2.323150000E+04
 1.541133141E+03	 2.329400000E+04
 1.541647774E+03	 2.323600000E+04
 1.542162353E+03	 2.345775000E+04
 1.542676877E+03	 2.325275000E+04
 1.543191346E+03	 2.341875000E+04
 1.543705761E+03	 2.320725000E+04
 1.544220122E+03	 2.335900000E+04
 1.544734428E+03	 2.329725000E+04
 1.545248680E+03	 2.321625000E+04
 1.545762877E+03	 2.329750000E+04
 1.546277020E+03	 2.329025000E+04
 1.546791109E+03	 2.345350000E+04
 1.547305143E+03	 2.326575000E+04
 1.547819122E+03	 2.353625000E+04
 1.548333047E+03	 2.320700000E+04
 1.548846918E+03	 2.340425000E+04
 1.549360734E+03	 2.326800000E+04
 1.549874496E+03	 2.342750000E+04
 1.550388204E+03	 2.336700000E+04
 1.550901857E+03	 2.340050000E+04
 1.551415455E+03	 2.340950000E+04
 1.551929000E+03	 2.333975000E+04
 1.552442489E+03	 2.347300000E+04
 1.552955925E+03	 2.319950000E+04
 1.553469306E+03	 2.358600000E+04
 1.553982632E+03	 2.334175000E+04
 1.554495905E+03	 2.353800000E+04
 1.555009123E+03	 2.334075000E+04
 1.555522286E+03	 2.336225000E+04
 1.556035395E+03	 2.336450000E+04
 1.556548450E+03	 2.339250000E+04
 1.557061450E+03	 2.340925000E+04
 1.557574396E+03	 2.328300000E+04
 1.558087288E+03	 2.351325000E+04
 1.558600125E+03	 2.328325000E+04
 1.559112908E+03	 2.350275000E+04
 1.559625637E+03	 2.321975000E+04
 1.560138311E+03	 2.346225000E+04
 1.560650931E+03	 2.334050000E+04
 1.561163497E+03	 2.344825000E+04
 1.561676008E+03	 2.339250000E+04
 1.562188465E+03	 2.342225000E+04
 1.562700867E+03	 2.343875000E+04
 1.563213216E+03	 2.337175000E+04
 1.563725509E+03	 2.346550000E+04
 1.564237749E+03	 2.326575000E+04
 1.564749934E+03	 2.344775000E+04
 1.565262065E+03	 2.337100000E+04
 1.565774142E+03	 2.358300000E+04
 1.566286164E+03	 2.320400000E+04
 1.566798132E+03	 2.346600000E+04
 1.567310046E+03	 2.342925000E+04
 1.567821906E+03	 2.335400000E+04
 1.568333711E+03	 2.333325000E+04
 1.568845462E+03	 2.314925000E+04
 1.569357158E+03	 2.351175000E+04
 1.569868801E+03	 2.325750000E+04
 1.570380389E+03	 2.352175000E+04
 1.570891922E+03	 2.329800000E+04
 1.571403402E+03	 2.352375000E+04
 1.571914827E+03	 2.336700000E+04
 1.572426198E+03	 2.344425000E+04
 1.572937515E+03	 2.345225000E+04
 1.573448777E+03	 2.337300000E+04
 1.573959985E+03	 2.336675000E+04
 1.574471139E+03	 2.325850000E+04
 1.574982239E+03	 2.355000000E+04
 1.575493285E+03	 2.325525000E+04
 1.576004276E+03	 2.355125000E+04
 1.576515213E+03	 2.341500000E+04
 1.577026096E+03	 2.342450000E+04
 1.577536924E+03	 2.336950000E+04
 1.578047698E+03	 2.340950000E+04
 1.578558419E+03	 2.335300000E+04
 1.579069084E+03	 2.328850000E+04
 1.579579696E+03	 2.357150000E+04
 1.580090254E+03	 2.320975000E+04
 1.580600757E+03	 2.342750000E+04
 1.581111206E+03	 2.311850000E+04
 1.581621601E+03	 2.329525000E+04
 1.582131941E+03	 2.313000000E+04
 1.582642228E+03	 2.341150000E+04
 1.583152460E+03	 2.321925000E+04
 1.583662638E+03	 2.328300000E+04
 1.584172762E+03	 2.337450000E+04
 1.584682832E+03	 2.334825000E+04
 1.585192847E+03	 2.345150000E+04
 1.585702809E+03	 2.330550000E+04
 1.586212716E+03	 2.343975000E+04
 1.586722569E+03	 2.326925000E+04
 1.587232368E+03	 2.341275000E+04
 1.587742113E+03	 2.332425000E+04
 1.588251803E+03	 2.332650000E+04
 1.588761440E+03	 2.333950000E+04
 1.589271022E+03	 2.328450000E+04
 1.589780550E+03	 2.339825000E+04
 1.590290024E+03	 2.324350000E+04
 1.590799444E+03	 2.352250000E+04
 1.591308810E+03	 2.326575000E+04
 1.591818121E+03	 2.349350000E+04
 1.592327379E+03	 2.327775000E+04
