 4.949359200E+02	 4.613000000E+03
 4.955477168E+02	 4.609000000E+03
 4.961594499E+02	 4.608000000E+03
 4.967711193E+02	 4.624500000E+03
 4.973827250E+02	 4.550500000E+03
 4.979942671E+02	 4.611500000E+03
 4.986057454E+02	 4.588500000E+03
 4.992171601E+02	 4.606000000E+03
 4.998285112E+02	 4.647500000E+03
 5.004397985E+02	 4.571500000E+03
 5.010510223E+02	 4.644500000E+03
 5.016621823E+02	 4.620500000E+03
 5.022732788E+02	 4.592000000E+03
 5.028843115E+02	 4.630000000E+03
 5.034952807E+02	 4.623500000E+03
 5.041061862E+02	 4.580000000E+03
 5.047170281E+02	 4.622000000E+03
 5.053278064E+02	 4.610000000E+03
 5.059385211E+02	 4.688000000E+03
 5.065491722E+02	 4.575500000E+03
 5.071597596E+02	 4.654000000E+03
 5.077702835E+02	 4.634500000E+03
 5.083807438E+02	 4.634500000E+03
 5.089911404E+02	 4.573000000E+03
 5.096014735E+02	 4.646000000E+03
 5.102117431E+02	 4.654000000E+03
 5.108219490E+02	 4.615000000E+03
 5.114320914E+02	 4.672000000E+03
 5.120421702E+02	 4.643000000E+03
 5.126521855E+02	 4.640000000E+03
 5.132621372E+02	 4.617000000E+03
 5.138720254E+02	 4.644500000E+03
 5.144818500E+02	 4.653500000E+03
 5.150916111E+02	 4.711000000E+03
 5.157013087E+02	 4.647000000E+03
 5.163109427E+02	 4.649000000E+03
 5.169205132E+02	 4.715000000E+03
 5.175300202E+02	 4.659000000E+03
 5.181394637E+02	 4.653000000E+03
 5.187488437E+02	 4.665000000E+03
 5.193581602E+02	 4.692500000E+03
 5.199674132E+02	 4.707000000E+03
 5.205766026E+02	 4.683500000E+03
 5.211857287E+02	 4.645500000E+03
 5.217947912E+02	 4.677500000E+03
 5.224037902E+02	 4.662000000E+03
 5.230127258E+02	 4.743500000E+03
 5.236215979E+02	 4.672500000E+03
 5.242304066E+02	 4.703000000E+03
 5.248391518E+02	 4.730000000E+03
 5.254478336E+02	 4.654000000E+03
 5.260564519E+02	 4.727500000E+03
 5.266650067E+02	 4.716500000E+03
 5.272734982E+02	 4.700000000E+03
 5.278819262E+02	 4.682500000E+03
 5.284902908E+02	 4.749000000E+03
 5.290985919E+02	 4.737500000E+03
 5.297068297E+02	 4.711000000E+03
 5.303150040E+02	 4.687500000E+03
 5.309231149E+02	 4.747500000E+03
 5.315311625E+02	 4.686500000E+03
 5.321391466E+02	 4.707500000E+03
 5.327470674E+02	 4.755000000E+03
 5.333549247E+02	 4.715000000E+03
 5.339627187E+02	 4.764500000E+03
 5.345704493E+02	 4.738000000E+03
 5.351781166E+02	 4.766000000E+03
 5.357857205E+02	 4.746000000E+03
 5.363932610E+02	 4.744500000E+03
 5.370007382E+02	 4.709000000E+03
 5.376081520E+02	 4.791000000E+03
 5.382155025E+02	 4.749000000E+03
 5.388227896E+02	 4.755500000E+03
 5.394300134E+02	 4.696000000E+03
 5.400371739E+02	 4.675000000E+03
 5.406442711E+02	 4.750000000E+03
 5.412513049E+02	 4.818000000E+03
 5.418582755E+02	 4.747500000E+03
 5.424651827E+02	 4.746500000E+03
 5.430720266E+02	 4.789000000E+03
 5.436788072E+02	 4.787500000E+03
 5.442855246E+02	 4.723500000E+03
 5.448921786E+02	 4.769500000E+03
 5.454987694E+02	 4.830000000E+03
 5.461052968E+02	 4.778000000E+03
 5.467117610E+02	 4.779500000E+03
 5.473181620E+02	 4.771000000E+03
 5.479244997E+02	 4.733000000E+03
 5.485307741E+02	 4.746000000E+03
 5.491369853E+02	 4.778000000E+03
 5.497431332E+02	 4.771000000E+03
 5.503492179E+02	 4.713000000E+03
 5.509552393E+02	 4.739000000E+03
 5.515611975E+02	 4.755000000E+03
 5.521670925E+02	 4.753000000E+03
 5.527729243E+02	 4.742500000E+03
 5.533786928E+02	 4.799000000E+03
 5.539843982E+02	 4.786000000E+03
 5.545900403E+02	 4.742000000E+03
 5.551956192E+02	 4.776500000E+03
 5.558011350E+02	 4.812500000E+03
 5.564065875E+02	 4.763000000E+03
 5.570119769E+02	 4.838500000E+03
 5.576173030E+02	 4.778000000E+03
 5.582225660E+02	 4.708500000E+03
 5.588277658E+02	 4.769500000E+03
 5.594329025E+02	 4.772500000E+03
 5.600379760E+02	 4.767000000E+03
 5.606429863E+02	 4.774500000E+03
 5.612479335E+02	 4.792000000E+03
 5.618528176E+02	 4.801000000E+03
 5.624576385E+02	 4.752500000E+03
 5.630623962E+02	 4.740500000E+03
 5.636670909E+02	 4.793500000E+03
 5.642717224E+02	 4.772500000E+03
 5.648762908E+02	 4.822500000E+03
 5.654807961E+02	 4.811000000E+03
 5.660852382E+02	 4.760500000E+03
 5.666896173E+02	 4.752500000E+03
 5.672939332E+02	 4.852000000E+03
 5.678981861E+02	 4.759500000E+03
 5.685023759E+02	 4.776000000E+03
 5.691065025E+02	 4.796000000E+03
 5.697105661E+02	 4.766500000E+03
 5.703145667E+02	 4.754000000E+03
 5.709185041E+02	 4.739500000E+03
 5.715223785E+02	 4.825500000E+03
 5.721261898E+02	 4.775500000E+03
 5.727299381E+02	 4.867000000E+03
 5.733336233E+02	 4.798000000E+03
 5.739372455E+02	 4.823000000E+03
 5.745408047E+02	 4.771500000E+03
 5.751443008E+02	 4.835500000E+03
 5.757477338E+02	 4.795500000E+03
 5.763511039E+02	 4.793000000E+03
 5.769544109E+02	 4.775000000E+03
 5.775576549E+02	 4.834000000E+03
 5.781608359E+02	 4.783500000E+03
 5.787639539E+02	 4.839000000E+03
 5.793670089E+02	 4.850500000E+03
 5.799700009E+02	 4.781500000E+03
 5.805729299E+02	 4.820500000E+03
 5.811757959E+02	 4.883500000E+03
 5.817785990E+02	 4.829500000E+03
 5.823813390E+02	 4.835000000E+03
 5.829840161E+02	 4.820500000E+03
 5.835866302E+02	 4.873500000E+03
 5.841891814E+02	 4.881500000E+03
 5.847916696E+02	 4.862000000E+03
 5.853940949E+02	 4.816500000E+03
 5.859964572E+02	 4.855500000E+03
 5.865987566E+02	 4.814500000E+03
 5.872009930E+02	 4.876000000E+03
 5.878031665E+02	 4.769000000E+03
 5.884052771E+02	 4.900000000E+03
 5.890073248E+02	 4.832500000E+03
 5.896093095E+02	 4.882000000E+03
 5.902112314E+02	 4.851000000E+03
 5.908130903E+02	 4.868000000E+03
 5.914148863E+02	 4.861500000E+03
 5.920166195E+02	 4.879500000E+03
 5.926182897E+02	 4.920500000E+03
 5.932198971E+02	 4.903000000E+03
 5.938214416E+02	 4.924500000E+03
 5.944229232E+02	 4.911500000E+03
 5.950243419E+02	 4.847000000E+03
 5.956256978E+02	 4.908000000E+03
 5.962269908E+02	 4.837000000E+03
 5.968282210E+02	 4.881000000E+03
 5.974293883E+02	 4.917500000E+03
 5.980304927E+02	 4.875500000E+03
 5.986315343E+02	 4.857500000E+03
 5.992325131E+02	 4.899000000E+03
 5.998334291E+02	 4.910500000E+03
 6.004342822E+02	 4.909500000E+03
 6.010350725E+02	 4.953500000E+03
 6.016358000E+02	 4.948000000E+03
 6.022364647E+02	 4.891500000E+03
 6.028370665E+02	 4.900500000E+03
 6.034376056E+02	 4.924000000E+03
 6.040380819E+02	 4.993000000E+03
 6.046384954E+02	 4.888000000E+03
 6.052388461E+02	 4.969500000E+03
 6.058391340E+02	 4.952500000E+03
 6.064393591E+02	 4.921000000E+03
 6.070395215E+02	 4.946500000E+03
 6.076396211E+02	 4.945000000E+03
 6.082396580E+02	 4.915500000E+03
 6.088396320E+02	 4.939500000E+03
 6.094395434E+02	 4.913000000E+03
 6.100393920E+02	 4.954000000E+03
 6.106391778E+02	 4.902500000E+03
 6.112389009E+02	 4.949500000E+03
 6.118385613E+02	 4.927500000E+03
 6.124381590E+02	 4.985500000E+03
 6.130376939E+02	 4.970000000E+03
 6.136371661E+02	 4.947000000E+03
 6.142365756E+02	 4.997500000E+03
 6.148359224E+02	 4.940500000E+03
 6.154352065E+02	 5.022500000E+03
 6.160344280E+02	 4.984000000E+03
 6.166335867E+02	 5.000000000E+03
 6.172326827E+02	 5.024000000E+03
 6.178317160E+02	 4.989000000E+03
 6.184306867E+02	 4.983500000E+03
 6.190295947E+02	 5.015000000E+03
 6.196284400E+02	 5.026000000E+03
 6.202272227E+02	 5.001500000E+03
 6.208259427E+02	 4.967500000E+03
 6.214246001E+02	 5.024000000E+03
 6.220231948E+02	 5.015000000E+03
 6.226217269E+02	 4.993500000E+03
 6.232201963E+02	 5.007500000E+03
 6.238186031E+02	 4.983500000E+03
 6.244169473E+02	 4.993500000E+03
 6.250152288E+02	 5.062000000E+03
 6.256134478E+02	 5.012000000E+03
 6.262116041E+02	 4.989000000E+03
 6.268096978E+02	 4.952500000E+03
 6.274077289E+02	 5.003500000E+03
 6.280056974E+02	 5.007000000E+03
 6.286036034E+02	 5.084500000E+03
 6.292014467E+02	 5.070000000E+03
 6.297992274E+02	 4.985000000E+03
 6.303969456E+02	 5.011000000E+03
 6.309946012E+02	 4.978500000E+03
 6.315921943E+02	 5.019000000E+03
 6.321897247E+02	 5.058000000E+03
 6.327871927E+02	 5.001000000E+03
 6.333845980E+02	 5.019000000E+03
 6.339819408E+02	 4.995500000E+03
 6.345792211E+02	 4.997500000E+03
 6.351764388E+02	 5.016000000E+03
 6.357735940E+02	 5.015500000E+03
 6.363706867E+02	 5.039500000E+03
 6.369677169E+02	 5.013500000E+03
 6.375646845E+02	 5.080000000E+03
 6.381615896E+02	 5.043000000E+03
 6.387584322E+02	 5.052500000E+03
 6.393552123E+02	 5.004500000E+03
 6.399519299E+02	 5.092000000E+03
 6.405485850E+02	 5.062500000E+03
 6.411451777E+02	 5.078000000E+03
 6.417417078E+02	 5.037500000E+03
 6.423381755E+02	 5.092000000E+03
 6.429345806E+02	 5.000500000E+03
 6.435309234E+02	 5.022000000E+03
 6.441272036E+02	 5.018000000E+03
 6.447234214E+02	 5.089000000E+03
 6.453195767E+02	 5.054000000E+03
 6.459156696E+02	 5.065000000E+03
 6.465117001E+02	 5.025000000E+03
 6.471076681E+02	 5.075500000E+03
 6.477035737E+02	 5.050500000E+03
 6.482994168E+02	 5.048500000E+03
 6.488951975E+02	 5.080000000E+03
 6.494909158E+02	 5.026000000E+03
 6.500865717E+02	 5.064000000E+03
 6.506821652E+02	 5.050500000E+03
 6.512776962E+02	 5.049000000E+03
 6.518731649E+02	 5.039500000E+03
 6.524685712E+02	 5.084500000E+03
 6.530639151E+02	 5.063000000E+03
 6.536591966E+02	 5.052000000E+03
 6.542544157E+02	 5.029500000E+03
 6.548495724E+02	 5.102500000E+03
 6.554446668E+02	 5.105500000E+03
 6.560396988E+02	 5.084000000E+03
 6.566346684E+02	 5.066000000E+03
 6.572295757E+02	 5.069000000E+03
 6.578244206E+02	 5.047500000E+03
 6.584192032E+02	 5.092500000E+03
 6.590139235E+02	 5.156500000E+03
 6.596085814E+02	 5.081000000E+03
 6.602031770E+02	 5.123000000E+03
 6.607977102E+02	 5.114000000E+03
 6.613921811E+02	 5.042500000E+03
 6.619865898E+02	 5.123500000E+03
 6.625809361E+02	 5.144500000E+03
 6.631752200E+02	 5.112500000E+03
 6.637694417E+02	 5.155500000E+03
 6.643636011E+02	 5.079000000E+03
 6.649576982E+02	 5.137000000E+03
 6.655517330E+02	 5.106500000E+03
 6.661457056E+02	 5.123000000E+03
 6.667396158E+02	 5.100000000E+03
 6.673334638E+02	 5.085500000E+03
 6.679272495E+02	 5.110500000E+03
 6.685209730E+02	 5.132500000E+03
 6.691146342E+02	 5.099000000E+03
 6.697082331E+02	 5.116000000E+03
 6.703017698E+02	 5.136000000E+03
 6.708952442E+02	 5.094500000E+03
 6.714886564E+02	 5.123500000E+03
 6.720820064E+02	 5.146000000E+03
 6.726752942E+02	 5.166500000E+03
 6.732685197E+02	 5.105000000E+03
 6.738616830E+02	 5.112500000E+03
 6.744547841E+02	 5.137000000E+03
 6.750478230E+02	 5.113500000E+03
 6.756407996E+02	 5.095500000E+03
 6.762337141E+02	 5.123000000E+03
 6.768265664E+02	 5.189000000E+03
 6.774193565E+02	 5.171500000E+03
 6.780120844E+02	 5.111500000E+03
 6.786047501E+02	 5.131500000E+03
 6.791973537E+02	 5.108000000E+03
 6.797898950E+02	 5.115500000E+03
 6.803823743E+02	 5.138000000E+03
 6.809747913E+02	 5.118000000E+03
 6.815671462E+02	 5.145500000E+03
 6.821594390E+02	 5.126500000E+03
 6.827516696E+02	 5.129000000E+03
 6.833438380E+02	 5.116500000E+03
 6.839359443E+02	 5.197000000E+03
 6.845279885E+02	 5.177000000E+03
 6.851199706E+02	 5.092500000E+03
 6.857118905E+02	 5.116500000E+03
 6.863037484E+02	 5.147500000E+03
 6.868955441E+02	 5.169000000E+03
 6.874872777E+02	 5.179000000E+03
 6.880789492E+02	 5.142000000E+03
 6.886705586E+02	 5.127000000E+03
 6.892621059E+02	 5.163000000E+03
 6.898535912E+02	 5.139000000E+03
 6.904450143E+02	 5.164500000E+03
 6.910363754E+02	 5.198500000E+03
 6.916276744E+02	 5.131500000E+03
 6.922189113E+02	 5.157500000E+03
 6.928100862E+02	 5.146000000E+03
 6.934011990E+02	 5.193500000E+03
 6.939922497E+02	 5.162500000E+03
 6.945832384E+02	 5.178500000E+03
 6.951741651E+02	 5.161500000E+03
 6.957650297E+02	 5.174500000E+03
 6.963558323E+02	 5.146500000E+03
 6.969465729E+02	 5.203500000E+03
 6.975372514E+02	 5.154000000E+03
 6.981278679E+02	 5.249000000E+03
 6.987184224E+02	 5.150000000E+03
 6.993089149E+02	 5.198000000E+03
 6.998993454E+02	 5.187000000E+03
 7.004897139E+02	 5.179000000E+03
 7.010800204E+02	 5.147000000E+03
 7.016702649E+02	 5.166500000E+03
 7.022604474E+02	 5.141000000E+03
 7.028505679E+02	 5.216500000E+03
 7.034406265E+02	 5.242500000E+03
 7.040306231E+02	 5.187500000E+03
 7.046205577E+02	 5.181000000E+03
 7.052104304E+02	 5.184500000E+03
 7.058002411E+02	 5.158000000E+03
 7.063899898E+02	 5.166500000E+03
 7.069796766E+02	 5.173500000E+03
 7.075693015E+02	 5.175500000E+03
 7.081588644E+02	 5.166000000E+03
 7.087483654E+02	 5.174000000E+03
 7.093378045E+02	 5.201500000E+03
 7.099271816E+02	 5.241500000E+03
 7.105164968E+02	 5.163500000E+03
 7.111057501E+02	 5.176000000E+03
 7.116949415E+02	 5.106500000E+03
 7.122840710E+02	 5.153000000E+03
 7.128731386E+02	 5.212500000E+03
 7.134621444E+02	 5.236500000E+03
 7.140510882E+02	 5.143500000E+03
 7.146399701E+02	 5.204500000E+03
 7.152287902E+02	 5.118500000E+03
 7.158175483E+02	 5.188500000E+03
 7.164062447E+02	 5.164000000E+03
 7.169948791E+02	 5.136000000E+03
 7.175834517E+02	 5.190500000E+03
 7.181719624E+02	 5.196500000E+03
 7.187604113E+02	 5.178500000E+03
 7.193487983E+02	 5.187500000E+03
 7.199371235E+02	 5.152000000E+03
 7.205253869E+02	 5.242000000E+03
 7.211135884E+02	 5.172000000E+03
 7.217017281E+02	 5.216000000E+03
 7.222898060E+02	 5.176500000E+03
 7.228778221E+02	 5.243000000E+03
 7.234657763E+02	 5.210000000E+03
 7.240536688E+02	 5.203500000E+03
 7.246414994E+02	 5.224000000E+03
 7.252292683E+02	 5.210500000E+03
 7.258169754E+02	 5.197500000E+03
 7.264046206E+02	 5.201000000E+03
 7.269922041E+02	 5.205000000E+03
 7.275797258E+02	 5.216000000E+03
 7.281671858E+02	 5.179500000E+03
 7.287545839E+02	 5.269500000E+03
 7.293419203E+02	 5.238500000E+03
 7.299291950E+02	 5.239500000E+03
 7.305164079E+02	 5.235500000E+03
 7.311035590E+02	 5.142000000E+03
 7.316906484E+02	 5.245500000E+03
 7.322776761E+02	 5.178500000E+03
 7.328646420E+02	 5.247000000E+03
 7.334515462E+02	 5.290000000E+03
 7.340383887E+02	 5.256000000E+03
 7.346251694E+02	 5.246000000E+03
 7.352118884E+02	 5.253500000E+03
 7.357985458E+02	 5.185500000E+03
 7.363851414E+02	 5.293000000E+03
 7.369716753E+02	 5.272500000E+03
 7.375581475E+02	 5.225000000E+03
 7.381445580E+02	 5.317500000E+03
 7.387309069E+02	 5.303500000E+03
 7.393171941E+02	 5.289500000E+03
 7.399034195E+02	 5.206500000E+03
 7.404895833E+02	 5.219500000E+03
 7.410756855E+02	 5.233000000E+03
 7.416617260E+02	 5.234500000E+03
 7.422477048E+02	 5.271500000E+03
 7.428336220E+02	 5.318000000E+03
 7.434194775E+02	 5.309500000E+03
 7.440052714E+02	 5.273000000E+03
 7.445910036E+02	 5.346000000E+03
 7.451766742E+02	 5.281000000E+03
 7.457622832E+02	 5.301500000E+03
 7.463478306E+02	 5.300000000E+03
 7.469333163E+02	 5.283000000E+03
 7.475187404E+02	 5.296000000E+03
 7.481041029E+02	 5.372500000E+03
 7.486894038E+02	 5.353000000E+03
 7.492746431E+02	 5.297500000E+03
 7.498598209E+02	 5.314500000E+03
 7.504449370E+02	 5.313500000E+03
 7.510299915E+02	 5.289500000E+03
 7.516149845E+02	 5.363000000E+03
 7.521999158E+02	 5.338500000E+03
 7.527847856E+02	 5.287000000E+03
 7.533695939E+02	 5.312000000E+03
 7.539543406E+02	 5.336000000E+03
 7.545390257E+02	 5.322500000E+03
 7.551236492E+02	 5.312000000E+03
 7.557082113E+02	 5.371500000E+03
 7.562927117E+02	 5.379500000E+03
 7.568771507E+02	 5.357500000E+03
 7.574615281E+02	 5.386000000E+03
 7.580458440E+02	 5.370000000E+03
 7.586300983E+02	 5.368500000E+03
 7.592142911E+02	 5.391500000E+03
 7.597984225E+02	 5.372000000E+03
 7.603824923E+02	 5.317000000E+03
 7.609665006E+02	 5.374000000E+03
 7.615504474E+02	 5.393000000E+03
 7.621343327E+02	 5.386500000E+03
 7.627181565E+02	 5.333000000E+03
 7.633019188E+02	 5.362500000E+03
 7.638856197E+02	 5.342500000E+03
 7.644692591E+02	 5.388000000E+03
 7.650528370E+02	 5.372500000E+03
 7.656363534E+02	 5.396000000E+03
 7.662198084E+02	 5.359500000E+03
 7.668032019E+02	 5.367000000E+03
 7.673865340E+02	 5.376500000E+03
 7.679698046E+02	 5.381000000E+03
 7.685530138E+02	 5.377500000E+03
 7.691361615E+02	 5.356500000E+03
 7.697192478E+02	 5.351500000E+03
 7.703022727E+02	 5.403000000E+03
 7.708852362E+02	 5.420500000E+03
 7.714681382E+02	 5.393500000E+03
 7.720509788E+02	 5.385000000E+03
 7.726337580E+02	 5.398500000E+03
 7.732164759E+02	 5.382500000E+03
 7.737991323E+02	 5.345000000E+03
 7.743817273E+02	 5.432000000E+03
 7.749642609E+02	 5.380000000E+03
 7.755467331E+02	 5.386500000E+03
 7.761291440E+02	 5.317000000E+03
 7.767114935E+02	 5.452000000E+03
 7.772937816E+02	 5.406500000E+03
 7.778760083E+02	 5.450500000E+03
 7.784581737E+02	 5.399500000E+03
 7.790402777E+02	 5.450500000E+03
 7.796223204E+02	 5.421500000E+03
 7.802043017E+02	 5.429500000E+03
 7.807862217E+02	 5.438500000E+03
 7.813680804E+02	 5.384500000E+03
 7.819498777E+02	 5.473500000E+03
 7.825316137E+02	 5.463000000E+03
 7.831132883E+02	 5.453000000E+03
 7.836949017E+02	 5.391000000E+03
 7.842764537E+02	 5.377000000E+03
 7.848579444E+02	 5.430000000E+03
 7.854393738E+02	 5.445500000E+03
 7.860207419E+02	 5.446000000E+03
 7.866020487E+02	 5.453500000E+03
 7.871832943E+02	 5.448000000E+03
 7.877644785E+02	 5.396000000E+03
 7.883456015E+02	 5.442000000E+03
 7.889266631E+02	 5.467500000E+03
 7.895076636E+02	 5.472500000E+03
 7.900886027E+02	 5.459500000E+03
 7.906694806E+02	 5.456500000E+03
 7.912502972E+02	 5.461500000E+03
 7.918310526E+02	 5.440500000E+03
 7.924117467E+02	 5.467000000E+03
 7.929923796E+02	 5.484500000E+03
 7.935729512E+02	 5.443000000E+03
 7.941534616E+02	 5.445500000E+03
 7.947339108E+02	 5.426500000E+03
 7.953142988E+02	 5.508000000E+03
 7.958946255E+02	 5.473500000E+03
 7.964748910E+02	 5.396000000E+03
 7.970550953E+02	 5.463000000E+03
 7.976352384E+02	 5.487000000E+03
 7.982153203E+02	 5.476000000E+03
 7.987953410E+02	 5.507000000E+03
 7.993753006E+02	 5.504000000E+03
 7.999551989E+02	 5.507500000E+03
 8.005350360E+02	 5.514000000E+03
 8.011148120E+02	 5.403500000E+03
 8.016945268E+02	 5.482500000E+03
 8.022741804E+02	 5.500500000E+03
 8.028537729E+02	 5.498500000E+03
 8.034333042E+02	 5.462000000E+03
 8.040127744E+02	 5.505000000E+03
 8.045921834E+02	 5.475500000E+03
 8.051715313E+02	 5.497500000E+03
 8.057508180E+02	 5.458500000E+03
 8.063300436E+02	 5.499500000E+03
 8.069092080E+02	 5.480500000E+03
 8.074883114E+02	 5.485000000E+03
 8.080673536E+02	 5.489500000E+03
 8.086463347E+02	 5.472000000E+03
 8.092252547E+02	 5.535000000E+03
 8.098041136E+02	 5.471500000E+03
 8.103829114E+02	 5.563500000E+03
 8.109616480E+02	 5.522500000E+03
 8.115403236E+02	 5.498500000E+03
 8.121189381E+02	 5.578000000E+03
 8.126974916E+02	 5.567000000E+03
 8.132759839E+02	 5.592500000E+03
 8.138544152E+02	 5.518000000E+03
 8.144327854E+02	 5.591500000E+03
 8.150110945E+02	 5.590000000E+03
 8.155893426E+02	 5.569500000E+03
 8.161675296E+02	 5.564000000E+03
 8.167456556E+02	 5.582000000E+03
 8.173237205E+02	 5.522000000E+03
 8.179017244E+02	 5.573000000E+03
 8.184796673E+02	 5.560500000E+03
 8.190575491E+02	 5.631500000E+03
 8.196353699E+02	 5.670000000E+03
 8.202131297E+02	 5.649500000E+03
 8.207908285E+02	 5.753000000E+03
 8.213684662E+02	 5.704500000E+03
 8.219460430E+02	 5.754000000E+03
 8.225235587E+02	 5.752500000E+03
 8.231010134E+02	 5.717500000E+03
 8.236784072E+02	 5.748000000E+03
 8.242557399E+02	 5.755500000E+03
 8.248330117E+02	 5.794000000E+03
 8.254102225E+02	 5.828000000E+03
 8.259873723E+02	 5.794500000E+03
 8.265644612E+02	 5.765000000E+03
 8.271414891E+02	 5.781500000E+03
 8.277184560E+02	 5.726500000E+03
 8.282953620E+02	 5.690000000E+03
 8.288722070E+02	 5.672500000E+03
 8.294489911E+02	 5.681500000E+03
 8.300257142E+02	 5.658500000E+03
 8.306023764E+02	 5.736000000E+03
 8.311789777E+02	 5.664000000E+03
 8.317555180E+02	 5.661000000E+03
 8.323319974E+02	 5.645000000E+03
 8.329084159E+02	 5.664000000E+03
 8.334847735E+02	 5.701000000E+03
 8.340610702E+02	 5.667000000E+03
 8.346373059E+02	 5.640500000E+03
 8.352134808E+02	 5.640500000E+03
 8.357895948E+02	 5.670500000E+03
 8.363656479E+02	 5.674000000E+03
 8.369416401E+02	 5.715500000E+03
 8.375175714E+02	 5.684000000E+03
 8.380934418E+02	 5.701000000E+03
 8.386692514E+02	 5.748500000E+03
 8.392450001E+02	 5.725000000E+03
 8.398206879E+02	 5.644000000E+03
 8.403963149E+02	 5.706000000E+03
 8.409718811E+02	 5.708000000E+03
 8.415473864E+02	 5.770500000E+03
 8.421228308E+02	 5.714500000E+03
 8.426982144E+02	 5.731000000E+03
 8.432735372E+02	 5.752000000E+03
 8.438487991E+02	 5.756000000E+03
 8.444240002E+02	 5.756500000E+03
 8.449991405E+02	 5.742000000E+03
 8.455742200E+02	 5.809000000E+03
 8.461492387E+02	 5.779500000E+03
 8.467241965E+02	 5.829500000E+03
 8.472990936E+02	 5.802000000E+03
 8.478739299E+02	 5.853000000E+03
 8.484487053E+02	 5.849500000E+03
 8.490234200E+02	 5.857000000E+03
 8.495980739E+02	 5.951000000E+03
 8.501726671E+02	 5.918500000E+03
 8.507471994E+02	 5.999500000E+03
 8.513216710E+02	 5.994500000E+03
 8.518960818E+02	 6.062500000E+03
 8.524704319E+02	 6.107500000E+03
 8.530447212E+02	 6.169500000E+03
 8.536189498E+02	 6.191500000E+03
 8.541931176E+02	 6.205000000E+03
 8.547672246E+02	 6.269000000E+03
 8.553412710E+02	 6.347500000E+03
 8.559152566E+02	 6.404500000E+03
 8.564891815E+02	 6.292000000E+03
 8.570630456E+02	 6.325000000E+03
 8.576368491E+02	 6.346500000E+03
 8.582105918E+02	 6.251000000E+03
 8.587842738E+02	 6.254500000E+03
 8.593578951E+02	 6.247000000E+03
 8.599314558E+02	 6.138000000E+03
 8.605049557E+02	 6.175000000E+03
 8.610783949E+02	 6.054500000E+03
 8.616517735E+02	 6.029500000E+03
 8.622250913E+02	 6.019000000E+03
 8.627983485E+02	 5.988500000E+03
 8.633715451E+02	 5.977000000E+03
 8.639446809E+02	 5.917500000E+03
 8.645177561E+02	 5.955500000E+03
 8.650907707E+02	 5.870000000E+03
 8.656637245E+02	 5.907000000E+03
 8.662366178E+02	 5.866000000E+03
 8.668094504E+02	 5.840500000E+03
 8.673822223E+02	 5.861000000E+03
 8.679549337E+02	 5.827500000E+03
 8.685275844E+02	 5.759000000E+03
 8.691001744E+02	 5.884500000E+03
 8.696727039E+02	 5.802000000E+03
 8.702451727E+02	 5.786000000E+03
 8.708175810E+02	 5.794500000E+03
 8.713899286E+02	 5.849500000E+03
 8.719622156E+02	 5.747000000E+03
 8.725344420E+02	 5.779000000E+03
 8.731066079E+02	 5.763000000E+03
 8.736787131E+02	 5.833500000E+03
 8.742507578E+02	 5.787000000E+03
 8.748227419E+02	 5.784500000E+03
 8.753946654E+02	 5.763500000E+03
 8.759665284E+02	 5.861000000E+03
 8.765383307E+02	 5.753000000E+03
 8.771100726E+02	 5.781500000E+03
 8.776817538E+02	 5.804000000E+03
 8.782533746E+02	 5.787500000E+03
 8.788249347E+02	 5.768500000E+03
 8.793964344E+02	 5.834000000E+03
 8.799678735E+02	 5.831000000E+03
 8.805392520E+02	 5.846000000E+03
 8.811105701E+02	 5.781500000E+03
 8.816818276E+02	 5.881500000E+03
 8.822530246E+02	 5.831000000E+03
 8.828241611E+02	 5.911000000E+03
 8.833952371E+02	 5.870500000E+03
 8.839662525E+02	 5.922500000E+03
 8.845372075E+02	 5.886000000E+03
 8.851081020E+02	 5.914000000E+03
 8.856789360E+02	 5.833000000E+03
 8.862497095E+02	 5.861000000E+03
 8.868204225E+02	 5.794000000E+03
 8.873910751E+02	 5.806000000E+03
 8.879616672E+02	 5.804500000E+03
 8.885321988E+02	 5.832500000E+03
 8.891026699E+02	 5.848500000E+03
 8.896730806E+02	 5.828500000E+03
 8.902434309E+02	 5.824500000E+03
 8.908137207E+02	 5.787500000E+03
 8.913839500E+02	 5.856500000E+03
 8.919541189E+02	 5.802000000E+03
 8.925242274E+02	 5.848500000E+03
 8.930942754E+02	 5.831500000E+03
 8.936642631E+02	 5.787000000E+03
 8.942341903E+02	 5.814000000E+03
 8.948040571E+02	 5.834000000E+03
 8.953738634E+02	 5.813000000E+03
 8.959436094E+02	 5.811500000E+03
 8.965132950E+02	 5.830000000E+03
 8.970829202E+02	 5.865000000E+03
 8.976524849E+02	 5.741500000E+03
 8.982219893E+02	 5.804500000E+03
 8.987914333E+02	 5.857500000E+03
 8.993608170E+02	 5.765500000E+03
 8.999301402E+02	 5.793500000E+03
 9.004994031E+02	 5.819000000E+03
 9.010686056E+02	 5.802000000E+03
 9.016377478E+02	 5.864000000E+03
 9.022068296E+02	 5.773000000E+03
 9.027758510E+02	 5.849500000E+03
 9.033448121E+02	 5.875500000E+03
 9.039137129E+02	 5.933500000E+03
 9.044825533E+02	 5.839000000E+03
 9.050513334E+02	 5.850500000E+03
 9.056200532E+02	 5.860500000E+03
 9.061887126E+02	 5.936000000E+03
 9.067573118E+02	 5.831000000E+03
 9.073258506E+02	 5.855000000E+03
 9.078943291E+02	 5.868500000E+03
 9.084627473E+02	 5.897000000E+03
 9.090311052E+02	 5.895000000E+03
 9.095994028E+02	 5.861000000E+03
 9.101676401E+02	 5.892000000E+03
 9.107358171E+02	 5.880000000E+03
 9.113039338E+02	 5.900500000E+03
 9.118719903E+02	 5.882000000E+03
 9.124399865E+02	 5.832500000E+03
 9.130079224E+02	 5.903000000E+03
 9.135757981E+02	 5.908000000E+03
 9.141436135E+02	 5.959500000E+03
 9.147113686E+02	 5.932500000E+03
 9.152790635E+02	 5.947000000E+03
 9.158466982E+02	 5.857000000E+03
 9.164142726E+02	 5.874500000E+03
 9.169817867E+02	 5.860500000E+03
 9.175492407E+02	 5.925000000E+03
 9.181166344E+02	 5.900000000E+03
 9.186839679E+02	 5.986500000E+03
 9.192512412E+02	 5.926000000E+03
 9.198184542E+02	 5.884000000E+03
 9.203856071E+02	 5.925500000E+03
 9.209526997E+02	 5.970500000E+03
 9.215197322E+02	 5.891000000E+03
 9.220867044E+02	 5.952500000E+03
 9.226536165E+02	 5.901500000E+03
 9.232204684E+02	 5.902000000E+03
 9.237872601E+02	 5.883000000E+03
 9.243539916E+02	 5.950000000E+03
 9.249206629E+02	 5.919000000E+03
 9.254872741E+02	 5.988000000E+03
 9.260538251E+02	 6.011000000E+03
 9.266203160E+02	 5.906500000E+03
 9.271867467E+02	 5.931500000E+03
 9.277531173E+02	 6.003500000E+03
 9.283194277E+02	 5.920500000E+03
 9.288856780E+02	 5.980000000E+03
 9.294518681E+02	 5.968000000E+03
 9.300179981E+02	 5.976500000E+03
 9.305840680E+02	 5.940500000E+03
 9.311500778E+02	 5.987500000E+03
 9.317160274E+02	 5.957000000E+03
 9.322819169E+02	 5.956500000E+03
 9.328477464E+02	 5.925000000E+03
 9.334135157E+02	 5.960000000E+03
 9.339792249E+02	 5.981000000E+03
 9.345448741E+02	 5.995500000E+03
 9.351104631E+02	 6.016500000E+03
 9.356759921E+02	 6.030000000E+03
 9.362414609E+02	 5.917500000E+03
 9.368068697E+02	 6.059000000E+03
 9.373722185E+02	 5.963500000E+03
 9.379375071E+02	 6.027000000E+03
 9.385027357E+02	 6.004000000E+03
 9.390679043E+02	 6.005000000E+03
 9.396330128E+02	 6.056500000E+03
 9.401980612E+02	 6.032500000E+03
 9.407630496E+02	 6.000000000E+03
 9.413279780E+02	 6.066000000E+03
 9.418928463E+02	 6.045000000E+03
 9.424576546E+02	 6.067500000E+03
 9.430224029E+02	 6.004500000E+03
 9.435870911E+02	 6.116000000E+03
 9.441517193E+02	 6.042500000E+03
 9.447162876E+02	 6.131500000E+03
 9.452807958E+02	 6.100500000E+03
 9.458452440E+02	 6.080500000E+03
 9.464096322E+02	 6.120000000E+03
 9.469739604E+02	 6.079000000E+03
 9.475382286E+02	 6.154500000E+03
 9.481024369E+02	 6.093000000E+03
 9.486665852E+02	 6.045500000E+03
 9.492306735E+02	 6.124500000E+03
 9.497947018E+02	 6.100500000E+03
 9.503586701E+02	 6.128500000E+03
 9.509225785E+02	 6.109000000E+03
 9.514864270E+02	 6.119000000E+03
 9.520502155E+02	 6.157000000E+03
 9.526139440E+02	 6.137000000E+03
 9.531776126E+02	 6.168000000E+03
 9.537412212E+02	 6.154500000E+03
 9.543047700E+02	 6.192000000E+03
 9.548682588E+02	 6.132500000E+03
 9.554316876E+02	 6.149000000E+03
 9.559950566E+02	 6.155000000E+03
 9.565583656E+02	 6.175000000E+03
 9.571216147E+02	 6.185000000E+03
 9.576848039E+02	 6.156000000E+03
 9.582479332E+02	 6.147500000E+03
 9.588110026E+02	 6.199000000E+03
 9.593740122E+02	 6.216000000E+03
 9.599369618E+02	 6.166500000E+03
 9.604998515E+02	 6.261500000E+03
 9.610626814E+02	 6.195000000E+03
 9.616254514E+02	 6.243000000E+03
 9.621881615E+02	 6.259000000E+03
 9.627508118E+02	 6.197500000E+03
 9.633134022E+02	 6.244000000E+03
 9.638759327E+02	 6.258000000E+03
 9.644384034E+02	 6.248000000E+03
 9.650008142E+02	 6.251500000E+03
 9.655631652E+02	 6.214000000E+03
 9.661254564E+02	 6.202000000E+03
 9.666876877E+02	 6.197000000E+03
 9.672498592E+02	 6.134000000E+03
 9.678119709E+02	 6.184500000E+03
 9.683740227E+02	 6.263000000E+03
 9.689360147E+02	 6.195500000E+03
 9.694979469E+02	 6.221500000E+03
 9.700598194E+02	 6.260000000E+03
 9.706216320E+02	 6.226500000E+03
 9.711833848E+02	 6.150000000E+03
 9.717450778E+02	 6.180500000E+03
 9.723067110E+02	 6.224500000E+03
 9.728682845E+02	 6.173000000E+03
 9.734297981E+02	 6.237500000E+03
 9.739912520E+02	 6.175500000E+03
 9.745526461E+02	 6.238500000E+03
 9.751139805E+02	 6.184500000E+03
 9.756752551E+02	 6.192500000E+03
 9.762364699E+02	 6.180500000E+03
 9.767976250E+02	 6.266000000E+03
 9.773587203E+02	 6.176500000E+03
 9.779197559E+02	 6.160000000E+03
 9.784807318E+02	 6.176500000E+03
 9.790416479E+02	 6.203000000E+03
 9.796025043E+02	 6.163500000E+03
 9.801633010E+02	 6.270000000E+03
 9.807240379E+02	 6.164000000E+03
 9.812847151E+02	 6.259500000E+03
 9.818453326E+02	 6.195500000E+03
 9.824058905E+02	 6.177500000E+03
 9.829663886E+02	 6.198000000E+03
 9.835268270E+02	 6.250000000E+03
 9.840872057E+02	 6.244000000E+03
 9.846475247E+02	 6.163500000E+03
 9.852077840E+02	 6.192500000E+03
 9.857679837E+02	 6.221500000E+03
 9.863281237E+02	 6.228500000E+03
 9.868882040E+02	 6.246500000E+03
 9.874482246E+02	 6.266500000E+03
 9.880081856E+02	 6.281000000E+03
 9.885680870E+02	 6.175000000E+03
 9.891279286E+02	 6.269000000E+03
 9.896877107E+02	 6.209500000E+03
 9.902474330E+02	 6.245000000E+03
 9.908070958E+02	 6.179000000E+03
 9.913666989E+02	 6.250000000E+03
 9.919262424E+02	 6.240500000E+03
 9.924857262E+02	 6.271000000E+03
 9.930451504E+02	 6.200500000E+03
 9.936045151E+02	 6.279000000E+03
 9.941638201E+02	 6.243500000E+03
 9.947230655E+02	 6.296000000E+03
 9.952822512E+02	 6.238000000E+03
 9.958413774E+02	 6.212000000E+03
 9.964004440E+02	 6.217500000E+03
 9.969594510E+02	 6.252500000E+03
 9.975183985E+02	 6.245500000E+03
 9.980772863E+02	 6.250500000E+03
 9.986361146E+02	 6.250000000E+03
 9.991948833E+02	 6.189500000E+03
 9.997535924E+02	 6.257000000E+03
 1.000312242E+03	 6.263000000E+03
 1.000870832E+03	 6.216500000E+03
 1.001429362E+03	 6.329000000E+03
 1.001987833E+03	 6.279500000E+03
 1.002546245E+03	 6.330000000E+03
 1.003104597E+03	 6.255000000E+03
 1.003662889E+03	 6.235500000E+03
 1.004221122E+03	 6.292500000E+03
 1.004779295E+03	 6.325000000E+03
 1.005337408E+03	 6.257000000E+03
 1.005895463E+03	 6.299500000E+03
 1.006453457E+03	 6.235000000E+03
 1.007011392E+03	 6.315500000E+03
 1.007569268E+03	 6.324500000E+03
 1.008127084E+03	 6.240500000E+03
 1.008684841E+03	 6.356500000E+03
 1.009242538E+03	 6.343500000E+03
 1.009800176E+03	 6.338500000E+03
 1.010357754E+03	 6.297000000E+03
 1.010915273E+03	 6.291000000E+03
 1.011472732E+03	 6.347500000E+03
 1.012030132E+03	 6.303500000E+03
 1.012587472E+03	 6.325500000E+03
 1.013144753E+03	 6.320000000E+03
 1.013701974E+03	 6.271000000E+03
 1.014259136E+03	 6.306500000E+03
 1.014816239E+03	 6.295500000E+03
 1.015373282E+03	 6.305500000E+03
 1.015930266E+03	 6.327000000E+03
 1.016487190E+03	 6.357500000E+03
 1.017044055E+03	 6.328000000E+03
 1.017600860E+03	 6.290000000E+03
 1.018157606E+03	 6.266000000E+03
 1.018714292E+03	 6.374000000E+03
 1.019270920E+03	 6.308500000E+03
 1.019827487E+03	 6.412500000E+03
 1.020383996E+03	 6.361500000E+03
 1.020940444E+03	 6.391500000E+03
 1.021496834E+03	 6.321500000E+03
 1.022053164E+03	 6.337000000E+03
 1.022609435E+03	 6.365000000E+03
 1.023165646E+03	 6.350000000E+03
 1.023721798E+03	 6.388500000E+03
 1.024277891E+03	 6.398500000E+03
 1.024833924E+03	 6.383000000E+03
 1.025389898E+03	 6.442000000E+03
 1.025945813E+03	 6.402500000E+03
 1.026501668E+03	 6.456500000E+03
 1.027057464E+03	 6.341000000E+03
 1.027613200E+03	 6.461000000E+03
 1.028168877E+03	 6.359500000E+03
 1.028724495E+03	 6.435000000E+03
 1.029280054E+03	 6.443000000E+03
 1.029835553E+03	 6.496500000E+03
 1.030390993E+03	 6.423500000E+03
 1.030946373E+03	 6.523500000E+03
 1.031501694E+03	 6.380000000E+03
 1.032056956E+03	 6.382500000E+03
 1.032612159E+03	 6.416000000E+03
 1.033167302E+03	 6.540500000E+03
 1.033722386E+03	 6.445000000E+03
 1.034277411E+03	 6.559500000E+03
 1.034832377E+03	 6.476500000E+03
 1.035387283E+03	 6.507500000E+03
 1.035942130E+03	 6.415000000E+03
 1.036496917E+03	 6.504500000E+03
 1.037051646E+03	 6.489500000E+03
 1.037606315E+03	 6.548000000E+03
 1.038160925E+03	 6.425500000E+03
 1.038715475E+03	 6.569000000E+03
 1.039269967E+03	 6.510000000E+03
 1.039824399E+03	 6.586000000E+03
 1.040378772E+03	 6.549000000E+03
 1.040933085E+03	 6.601000000E+03
 1.041487340E+03	 6.532000000E+03
 1.042041535E+03	 6.562000000E+03
 1.042595671E+03	 6.564000000E+03
 1.043149747E+03	 6.605000000E+03
 1.043703765E+03	 6.624000000E+03
 1.044257723E+03	 6.613000000E+03
 1.044811622E+03	 6.538500000E+03
 1.045365462E+03	 6.621500000E+03
 1.045919243E+03	 6.557500000E+03
 1.046472965E+03	 6.680000000E+03
 1.047026627E+03	 6.606500000E+03
 1.047580230E+03	 6.594500000E+03
 1.048133774E+03	 6.610500000E+03
 1.048687259E+03	 6.611000000E+03
 1.049240684E+03	 6.647000000E+03
 1.049794051E+03	 6.681000000E+03
 1.050347358E+03	 6.638000000E+03
 1.050900606E+03	 6.655000000E+03
 1.051453795E+03	 6.580500000E+03
 1.052006925E+03	 6.692000000E+03
 1.052559996E+03	 6.643500000E+03
 1.053113008E+03	 6.694500000E+03
 1.053665960E+03	 6.630500000E+03
 1.054218853E+03	 6.694000000E+03
 1.054771688E+03	 6.628500000E+03
 1.055324463E+03	 6.762500000E+03
 1.055877179E+03	 6.692500000E+03
 1.056429835E+03	 6.684000000E+03
 1.056982433E+03	 6.644000000E+03
 1.057534972E+03	 6.705000000E+03
 1.058087451E+03	 6.681500000E+03
 1.058639872E+03	 6.738000000E+03
 1.059192233E+03	 6.632000000E+03
 1.059744536E+03	 6.771000000E+03
 1.060296779E+03	 6.706000000E+03
 1.060848963E+03	 6.763500000E+03
 1.061401088E+03	 6.713000000E+03
 1.061953154E+03	 6.693000000E+03
 1.062505161E+03	 6.765000000E+03
 1.063057109E+03	 6.774500000E+03
 1.063608998E+03	 6.726500000E+03
 1.064160827E+03	 6.747000000E+03
 1.064712598E+03	 6.703500000E+03
 1.065264310E+03	 6.842500000E+03
 1.065815963E+03	 6.768000000E+03
 1.066367556E+03	 6.808000000E+03
 1.066919091E+03	 6.720000000E+03
 1.067470566E+03	 6.818000000E+03
 1.068021983E+03	 6.728500000E+03
 1.068573341E+03	 6.790500000E+03
 1.069124639E+03	 6.769500000E+03
 1.069675879E+03	 6.812500000E+03
 1.070227059E+03	 6.811500000E+03
 1.070778181E+03	 6.818500000E+03
 1.071329243E+03	 6.785000000E+03
 1.071880247E+03	 6.816500000E+03
 1.072431192E+03	 6.822000000E+03
 1.072982077E+03	 6.770000000E+03
 1.073532904E+03	 6.818500000E+03
 1.074083671E+03	 6.885500000E+03
 1.074634380E+03	 6.889000000E+03
 1.075185030E+03	 6.875000000E+03
 1.075735621E+03	 6.753000000E+03
 1.076286153E+03	 6.751000000E+03
 1.076836626E+03	 6.732500000E+03
 1.077387039E+03	 6.783500000E+03
 1.077937395E+03	 6.821000000E+03
 1.078487691E+03	 6.776000000E+03
 1.079037928E+03	 6.836000000E+03
 1.079588106E+03	 6.815500000E+03
 1.080138225E+03	 6.899000000E+03
 1.080688286E+03	 6.863000000E+03
 1.081238287E+03	 6.831000000E+03
 1.081788230E+03	 6.866000000E+03
 1.082338114E+03	 6.840000000E+03
 1.082887938E+03	 6.891000000E+03
 1.083437704E+03	 6.873000000E+03
 1.083987411E+03	 6.783000000E+03
 1.084537059E+03	 6.912000000E+03
 1.085086649E+03	 6.830000000E+03
 1.085636179E+03	 6.877000000E+03
 1.086185651E+03	 6.830500000E+03
 1.086735063E+03	 6.918000000E+03
 1.087284417E+03	 6.814500000E+03
 1.087833712E+03	 6.935000000E+03
 1.088382948E+03	 6.850000000E+03
