1042.414189	1196.75
1042.980685	1185.75
1043.547124	1182.75
1044.113505	1197.0
1044.679828	1186.75
1045.246093	1185.0
1045.8123	1192.5
1046.378449	1189.0
1046.94454	1184.75
1047.510573	1199.25
1048.076548	1188.5
1048.642465	1184.0
1049.208325	1180.25
1049.774126	1187.5
1050.339869	1183.25
1050.905555	1173.0
1051.471183	1169.25
1052.036752	1183.75
1052.602264	1174.25
1053.167718	1188.5
1053.733114	1189.0
1054.298452	1187.25
1054.863733	1167.0
1055.428955	1176.5
1055.994119	1171.5
1056.559226	1176.25
1057.124275	1176.25
1057.689266	1177.5
1058.254199	1187.0
1058.819074	1192.0
1059.383891	1183.75
1059.94865	1183.0
1060.513352	1190.25
1061.077996	1172.0
1061.642582	1176.5
1062.20711	1162.25
1062.77158	1189.0
1063.335992	1191.75
1063.900347	1177.25
1064.464643	1192.75
1065.028882	1178.25
1065.593063	1180.5
1066.157187	1197.25
1066.721252	1184.25
1067.28526	1177.25
1067.84921	1184.0
1068.413102	1180.75
1068.976936	1196.0
1069.540713	1181.0
1070.104431	1193.75
1070.668092	1184.5
1071.231696	1195.0
1071.795241	1181.0
1072.358729	1188.25
1072.922159	1177.0
1073.485531	1196.0
1074.048845	1186.25
1074.612102	1193.5
1075.175301	1188.75
1075.738442	1200.5
1076.301525	1187.0
1076.864551	1188.25
1077.427519	1177.0
1077.990429	1193.25
1078.553281	1181.25
1079.116076	1187.0
1079.678813	1193.25
1080.241492	1185.25
1080.804114	1190.5
1081.366678	1184.25
1081.929184	1182.75
1082.491633	1181.5
1083.054024	1173.25
1083.616357	1185.5
1084.178632	1192.5
1084.74085	1183.75
1085.30301	1181.25
1085.865113	1207.25
1086.427158	1185.0
1086.989145	1180.75
1087.551074	1193.5
1088.112946	1202.0
1088.67476	1189.25
1089.236517	1202.5
1089.798216	1201.75
1090.359857	1189.5
1090.92144	1199.5
1091.482966	1191.0
1092.044435	1189.5
1092.605845	1198.75
1093.167199	1200.0
1093.728494	1196.25
1094.289732	1189.25
1094.850912	1184.75
1095.412035	1197.75
1095.9731	1196.5
1096.534107	1182.5
1097.095057	1203.5
1097.65595	1202.75
1098.216784	1192.0
1098.777561	1178.25
1099.338281	1183.25
1099.898943	1191.0
1100.459547	1184.5
1101.020094	1181.0
1101.580584	1189.25
1102.141015	1187.25
1102.701389	1181.25
1103.261706	1192.5
1103.821965	1181.75
1104.382167	1186.0
1104.942311	1181.75
1105.502397	1174.0
1106.062426	1171.75
1106.622398	1189.0
1107.182312	1173.75
1107.742168	1186.25
1108.301967	1186.0
1108.861708	1191.75
1109.421392	1180.0
1109.981019	1184.75
1110.540587	1198.75
1111.100099	1189.75
1111.659553	1194.75
1112.218949	1177.75
1112.778288	1187.25
1113.33757	1189.5
1113.896794	1194.0
1114.45596	1183.25
1115.015069	1182.75
1115.574121	1212.5
1116.133115	1199.25
1116.692052	1199.25
1117.250931	1190.25
1117.809753	1193.0
1118.368517	1189.0
1118.927224	1189.5
1119.485873	1185.25
1120.044465	1186.5
1120.603	1200.75
1121.161477	1195.0
1121.719897	1198.0
1122.278259	1182.25
1122.836564	1194.75
1123.394812	1181.0
1123.953002	1199.5
1124.511135	1194.5
1125.06921	1202.25
1125.627228	1199.5
1126.185189	1193.5
1126.743092	1199.5
1127.300938	1187.0
1127.858726	1194.75
1128.416457	1192.5
1128.974131	1198.75
1129.531748	1199.25
1130.089307	1192.5
1130.646808	1210.75
1131.204252	1199.0
1131.761639	1207.75
1132.318969	1186.5
1132.876241	1207.0
1133.433456	1214.5
1133.990614	1206.0
1134.547714	1190.25
1135.104757	1215.5
1135.661743	1206.5
1136.218671	1205.0
1136.775542	1194.75
1137.332356	1198.75
1137.889112	1198.75
1138.445811	1209.25
1139.002453	1195.0
1139.559037	1208.25
1140.115565	1208.25
1140.672035	1216.0
1141.228447	1196.0
1141.784803	1208.25
1142.341101	1206.75
1142.897342	1218.0
1143.453525	1213.0
1144.009651	1204.5
1144.565721	1203.0
1145.121732	1223.75
1145.677687	1211.5
1146.233584	1216.75
1146.789424	1216.25
1147.345207	1204.75
1147.900933	1212.25
1148.456601	1218.0
1149.012212	1218.25
1149.567766	1213.5
1150.123263	1213.75
1150.678702	1241.0
1151.234085	1221.5
1151.78941	1225.75
1152.344678	1227.5
1152.899888	1236.25
1153.455042	1219.75
1154.010138	1225.5
1154.565177	1221.75
1155.120159	1234.25
1155.675084	1228.5
1156.229951	1229.5
1156.784762	1222.25
1157.339515	1230.75
1157.894211	1218.0
1158.44885	1216.75
1159.003432	1225.0
1159.557956	1227.0
1160.112424	1231.0
1160.666834	1230.0
1161.221187	1227.0
1161.775483	1223.5
1162.329722	1238.75
1162.883904	1235.25
1163.438029	1233.75
1163.992096	1228.5
1164.546107	1232.5
1165.10006	1228.75
1165.653956	1223.75
1166.207795	1240.75
1166.761577	1235.0
1167.315302	1229.75
1167.86897	1229.75
1168.422581	1240.25
1168.976134	1237.75
1169.529631	1234.25
1170.08307	1236.5
1170.636453	1247.25
1171.189778	1248.5
1171.743046	1226.0
1172.296257	1252.25
1172.849412	1231.75
1173.402509	1234.5
1173.955549	1234.5
1174.508532	1239.25
1175.061458	1238.75
1175.614327	1242.75
1176.167138	1249.5
1176.719893	1249.5
1177.272591	1244.25
1177.825232	1235.0
1178.377816	1246.75
1178.930342	1264.5
1179.482812	1241.75
1180.035225	1240.0
1180.587581	1255.25
1181.139879	1241.0
1181.692121	1255.0
1182.244306	1243.0
1182.796434	1242.75
1183.348504	1239.5
1183.900518	1260.25
1184.452475	1250.0
1185.004375	1248.75
1185.556218	1236.25
1186.108004	1255.75
1186.659733	1241.75
1187.211405	1240.75
1187.76302	1251.0
1188.314578	1246.25
1188.866079	1256.25
1189.417523	1239.5
1189.96891	1238.0
1190.520241	1251.75
1191.071514	1253.75
1191.622731	1273.75
1192.17389	1254.75
1192.724993	1247.0
1193.276039	1275.75
1193.827027	1238.75
1194.377959	1250.5
1194.928834	1245.5
1195.479653	1248.5
1196.030414	1254.5
1196.581118	1253.75
1197.131766	1256.75
1197.682356	1244.5
1198.23289	1251.25
1198.783367	1250.75
1199.333786	1256.5
1199.88415	1258.0
1200.434456	1255.0
1200.984705	1247.75
1201.534898	1253.75
1202.085033	1254.0
1202.635112	1270.75
1203.185134	1272.25
1203.735099	1254.25
1204.285007	1282.0
1204.834859	1262.75
1205.384653	1273.25
1205.934391	1269.5
1206.484072	1260.0
1207.033696	1250.25
1207.583263	1256.75
1208.132774	1258.5
1208.682228	1271.75
1209.231624	1270.0
1209.780965	1260.0
1210.330248	1259.25
1210.879474	1260.5
1211.428644	1259.5
1211.977757	1267.25
1212.526813	1267.5
1213.075813	1270.0
1213.624755	1278.0
1214.173641	1272.75
1214.72247	1281.5
1215.271242	1274.25
1215.819958	1267.5
1216.368617	1279.5
1216.917219	1266.25
1217.465764	1267.75
1218.014253	1266.5
1218.562685	1262.75
1219.11106	1282.75
1219.659378	1273.75
1220.20764	1273.0
1220.755845	1272.75
1221.303993	1279.25
1221.852085	1271.0
1222.400119	1290.25
1222.948097	1267.5
1223.496019	1274.0
1224.043883	1287.25
1224.591691	1273.5
1225.139443	1285.0
1225.687137	1281.75
1226.234775	1287.25
1226.782357	1272.0
1227.329881	1276.25
1227.877349	1273.75
1228.42476	1281.25
1228.972115	1276.75
1229.519413	1287.0
1230.066654	1283.25
1230.613839	1286.5
1231.160967	1283.0
1231.708038	1296.0
1232.255053	1279.25
1232.802011	1267.5
1233.348912	1283.5
1233.895757	1290.0
1234.442545	1286.25
1234.989277	1297.75
1235.535951	1281.75
1236.08257	1299.25
1236.629131	1273.75
1237.175636	1285.0
1237.722085	1296.25
1238.268477	1301.0
1238.814812	1299.25
1239.361091	1283.5
1239.907313	1276.25
1240.453478	1302.25
1240.999587	1297.25
1241.54564	1294.25
1242.091636	1290.0
1242.637575	1300.5
1243.183457	1290.25
1243.729284	1287.5
1244.275053	1289.75
1244.820766	1289.5
1245.366423	1289.5
1245.912022	1288.25
1246.457566	1304.25
1247.003053	1286.0
1247.548483	1299.25
1248.093857	1300.0
1248.639174	1298.0
1249.184435	1306.25
1249.729639	1318.25
1250.274787	1326.75
1250.819878	1321.5
1251.364912	1309.75
1251.909891	1299.75
1252.454812	1300.5
1252.999677	1308.25
1253.544486	1295.75
1254.089238	1303.25
1254.633934	1288.75
1255.178573	1310.25
1255.723156	1298.75
1256.267682	1299.0
1256.812152	1301.0
1257.356565	1323.0
1257.900922	1313.5
1258.445223	1302.75
1258.989467	1312.5
1259.533654	1325.75
1260.077785	1335.25
1260.62186	1316.75
1261.165878	1301.5
1261.70984	1323.75
1262.253745	1313.0
1262.797594	1336.25
1263.341386	1326.5
1263.885123	1351.25
1264.428802	1376.25
1264.972425	1372.0
1265.515992	1398.5
1266.059503	1396.5
1266.602957	1366.25
1267.146354	1328.5
1267.689696	1326.75
1268.23298	1327.75
1268.776209	1315.25
1269.319381	1315.5
1269.862497	1328.25
1270.405556	1310.0
1270.948559	1318.5
1271.491506	1321.75
1272.034396	1337.25
1272.57723	1315.0
1273.120007	1332.0
1273.662728	1323.5
1274.205393	1330.25
1274.748002	1307.0
1275.290554	1325.25
1275.83305	1319.25
1276.375489	1340.75
1276.917872	1340.5
1277.460199	1331.25
1278.00247	1330.5
1278.544684	1328.0
1279.086842	1339.25
1279.628943	1324.5
1280.170989	1314.5
1280.712978	1329.25
1281.25491	1326.75
1281.796787	1338.5
1282.338607	1355.0
1282.880371	1365.5
1283.422078	1409.5
1283.963729	1517.0
1284.505324	1691.0
1285.046863	1896.25
1285.588345	2055.0
1286.129772	1923.5
1286.671142	1640.0
1287.212455	1416.75
1287.753713	1366.0
1288.294914	1355.0
1288.836059	1352.75
1289.377147	1342.5
1289.91818	1335.5
1290.459156	1329.75
1291.000076	1351.5
1291.54094	1339.0
1292.081747	1318.25
1292.622499	1326.75
1293.163194	1324.0
1293.703833	1339.25
1294.244415	1328.5
1294.784942	1337.5
1295.325412	1322.0
1295.865826	1325.75
1296.406184	1336.5
1296.946486	1326.0
1297.486731	1335.5
1298.026921	1335.5
1298.567054	1335.0
1299.107131	1328.0
1299.647152	1324.0
1300.187116	1330.75
1300.727025	1318.75
1301.266877	1334.25
1301.806673	1339.5
1302.346413	1347.0
1302.886097	1345.25
1303.425725	1344.0
1303.965297	1338.0
1304.504812	1348.5
1305.044272	1343.25
1305.583675	1325.25
1306.123022	1337.75
1306.662313	1335.25
1307.201548	1330.25
1307.740727	1343.25
1308.279849	1338.0
1308.818916	1345.0
1309.357926	1337.5
1309.896881	1323.0
1310.435779	1354.75
1310.974621	1341.75
1311.513407	1343.75
1312.052137	1330.0
1312.590811	1361.75
1313.129429	1351.5
1313.667991	1342.5
1314.206497	1347.75
1314.744946	1353.0
1315.28334	1349.0
1315.821678	1340.75
1316.359959	1349.0
1316.898184	1335.0
1317.436354	1345.0
1317.974467	1349.25
1318.512525	1345.5
1319.050526	1342.5
1319.588471	1339.5
1320.12636	1347.5
1320.664194	1347.25
1321.201971	1351.0
1321.739692	1348.75
1322.277357	1345.75
1322.814967	1346.5
1323.35252	1353.75
1323.890017	1372.0
1324.427458	1344.5
1324.964843	1355.5
1325.502173	1352.0
1326.039446	1339.5
1326.576663	1342.0
1327.113824	1337.25
1327.65093	1353.75
1328.187979	1353.75
1328.724972	1351.5
1329.26191	1353.5
1329.798791	1360.5
1330.335617	1346.0
1330.872386	1347.75
1331.4091	1353.75
1331.945758	1340.25
1332.48236	1368.5
1333.018905	1348.75
1333.555395	1373.75
1334.091829	1347.75
1334.628207	1358.0
1335.164529	1360.75
1335.700796	1341.0
1336.237006	1360.25
1336.77316	1347.75
1337.309259	1373.25
1337.845301	1350.75
1338.381288	1349.0
1338.917219	1361.0
1339.453094	1351.5
1339.988913	1358.5
1340.524676	1354.5
1341.060383	1337.0
1341.596034	1363.0
1342.13163	1350.5
1342.66717	1369.25
1343.202653	1354.5
1343.738081	1359.5
1344.273453	1347.0
1344.80877	1362.75
1345.34403	1347.25
1345.879235	1352.75
1346.414383	1360.25
1346.949476	1362.5
1347.484513	1354.0
1348.019494	1362.0
1348.55442	1365.0
1349.089289	1359.75
1349.624103	1359.0
1350.158861	1365.75
1350.693563	1351.25
1351.228209	1355.5
1351.7628	1376.5
1352.297334	1401.0
1353.366236	1376.0
1353.900604	1356.5
1354.434915	1350.5
1354.969171	1358.25
1355.503371	1361.75
1356.037515	1372.25
1356.571604	1371.25
1357.105636	1370.75
1357.639613	1362.5
1358.173535	1346.0
1358.7074	1365.25
1359.24121	1359.75
1359.774964	1368.5
1360.308662	1381.75
1360.842304	1344.5
1361.375891	1365.75
1361.909422	1357.0
1362.442897	1366.0
1362.976317	1364.25
1363.50968	1371.0
1364.042989	1360.5
1364.576241	1373.5
1365.109438	1370.5
1365.642579	1374.5
1366.175664	1379.5
1366.708693	1386.5
1367.241667	1361.25
1367.774585	1383.75
1368.307448	1369.75
1368.840255	1373.5
1369.373006	1370.0
1369.905701	1390.75
1370.438341	1393.25
1370.970925	1380.0
1371.503454	1385.5
1372.035926	1384.5
1372.568344	1369.75
1373.100705	1387.25
1373.633011	1363.5
1374.165261	1357.5
1374.697456	1374.75
1375.229595	1369.75
1375.761678	1376.0
1376.293705	1374.5
1376.825677	1370.5
1377.357594	1370.0
1377.889455	1389.0
1378.42126	1372.25
1378.953009	1368.5
1379.484703	1384.0
1380.016342	1388.0
1380.547924	1379.0
1381.079452	1368.25
1381.610923	1369.5
1382.142339	1399.0
1382.673699	1395.5
1383.205004	1380.5
1383.736253	1404.0
1384.267447	1395.0
1384.798585	1390.0
1385.329668	1403.25
1385.860695	1435.25
1386.391666	1455.75
1386.922582	1493.75
1387.453442	1569.5
1387.984247	1873.75
1388.514996	2513.0
1389.04569	2891.75
1389.576328	2245.0
1390.10691	1607.75
1390.637437	1462.0
1391.167909	1426.5
1391.698325	1417.0
1392.228685	1406.0
1392.75899	1404.5
1393.28924	1390.0
1393.819434	1388.25
1394.349572	1381.5
1394.879655	1392.5
1395.409683	1386.25
1395.939655	1390.0
1396.469571	1384.0
1396.999432	1383.25
1397.529237	1385.0
1398.058987	1392.25
1398.588682	1375.75
1399.118321	1410.0
1399.647905	1376.75
1400.177433	1372.0
1400.706906	1381.5
1401.236323	1386.75
1401.765685	1379.0
1402.294991	1380.75
1402.824242	1378.0
1403.353437	1390.5
1403.882577	1399.25
1404.411662	1404.0
1404.940691	1390.75
1405.469665	1389.75
1405.998583	1393.5
1406.527446	1400.75
1407.056253	1405.0
1407.585005	1414.75
1408.113702	1404.5
1408.642343	1431.25
1409.170929	1455.5
1409.69946	1510.25
1410.227935	1591.75
1410.756354	1592.5
1411.284719	1496.25
1411.813028	1446.25
1412.341281	1400.5
1412.869479	1406.5
1413.397622	1386.25
1413.92571	1402.5
1414.453742	1405.0
1414.981718	1385.0
1415.50964	1416.5
1416.037506	1388.5
1416.565316	1386.25
1417.093072	1395.25
1417.620772	1392.0
1418.148416	1392.5
1418.676005	1403.0
1419.203539	1382.5
1419.731018	1397.75
1420.258441	1404.5
1420.785809	1389.25
1421.313122	1388.25
1421.840379	1397.25
1422.367582	1399.25
1422.894728	1396.25
1423.42182	1413.75
1423.948856	1407.5
1424.475837	1401.25
1425.002762	1405.5
1425.529633	1406.0
1426.056448	1411.75
1426.583207	1408.0
1427.109912	1424.25
1427.636561	1392.25
1428.163155	1412.75
1428.689694	1387.0
1429.216177	1400.25
1429.742605	1388.25
1430.268978	1390.25
1430.795296	1393.0
1431.321558	1394.5
1431.847765	1406.0
1432.373917	1403.0
1432.900014	1403.75
1433.426056	1391.0
1433.952042	1392.75
1434.477973	1398.25
1435.003849	1389.5
1435.529669	1401.75
1436.055435	1412.75
1436.581145	1388.75
1437.1068	1392.5
1437.632399	1400.5
1438.157944	1408.5
1438.683433	1402.75
1439.208868	1411.0
1439.734247	1403.5
1440.25957	1401.5
1440.784839	1401.25
1441.310053	1396.0
1441.835211	1393.25
1442.360314	1389.75
1442.885362	1395.25
1443.410355	1401.75
1443.935292	1412.0
1444.460175	1394.5
1444.985002	1404.25
1445.509774	1390.75
1446.034491	1396.0
1446.559153	1407.0
1447.08376	1395.25
1447.608312	1406.75
1448.132808	1402.0
1448.65725	1390.25
1449.181636	1394.75
1449.705967	1388.25
1450.230243	1394.75
1450.754464	1386.75
1451.27863	1405.5
1451.802741	1400.75
1452.326797	1389.75
1452.850797	1388.0
1453.374743	1409.0
1453.898633	1395.25
1454.422468	1388.25
1454.946249	1397.5
1455.469974	1398.0
1455.993644	1399.5
1456.517259	1381.25
1457.040819	1393.5
1457.564324	1390.25
1458.087773	1397.75
1458.611168	1395.0
1459.134508	1413.0
1459.657793	1388.75
1460.181022	1397.25
1460.704197	1393.25
1461.227316	1394.25
1461.750381	1395.25
1462.27339	1387.25
1462.796345	1429.0
1463.319244	1421.75
1463.842089	1406.25
1464.364878	1394.5
1464.887613	1402.0
1465.410292	1396.75
1465.932916	1390.0
1466.455486	1402.75
1466.978	1388.25
1467.50046	1385.5
1468.022864	1410.0
1468.545214	1390.25
1469.067508	1396.25
1469.589748	1415.5
1470.111932	1415.0
1470.634062	1383.75
1471.156136	1404.0
1471.678156	1404.0
1472.20012	1395.25
1472.72203	1385.75
1473.243885	1404.25
1473.765685	1384.0
1474.28743	1397.0
1474.80912	1392.75
1475.330755	1393.5
1475.852335	1400.5
1476.37386	1393.5
1476.89533	1421.0
1477.416745	1398.5
1477.938106	1388.0
1478.459411	1410.25
1478.980662	1400.75
1479.501857	1400.5
1480.022998	1411.25
1480.544084	1392.0
1481.065115	1403.75
1481.586091	1411.5
1482.107012	1406.0
1482.627878	1405.0
1483.14869	1401.25
1483.669446	1389.0
1484.190148	1418.75
1484.710794	1397.5
1485.231386	1405.0
1485.751923	1394.75
1486.272406	1407.0
1486.792833	1396.75
1487.313205	1410.5
1487.833523	1401.0
1488.353786	1390.0
1488.873994	1397.0
1489.394147	1401.0
1489.914245	1386.5
1490.434288	1396.5
1490.954277	1401.5
1491.474211	1382.75
1491.99409	1407.0
1492.513914	1392.5
1493.033683	1401.25
1493.553398	1396.0
1494.073057	1401.5
1494.592662	1399.25
1495.112212	1398.25
1495.631708	1385.25
1496.151148	1389.0
1496.670534	1389.0
1497.189865	1398.25
1497.709141	1407.5
1498.228362	1394.25
1498.747529	1399.0
1499.266641	1399.0
1499.785698	1414.25
1500.3047	1388.5
1500.823648	1399.25
1501.34254	1401.25
1501.861379	1400.5
1502.380162	1404.75
1502.89889	1400.25
1503.417564	1404.75
1503.936183	1412.75
1504.454748	1396.5
1504.973257	1394.0
1505.491712	1397.25
1506.010112	1396.75
1506.528458	1411.25
1507.046748	1419.0
1507.564984	1396.5
1508.083166	1407.75
1508.601292	1392.0
1509.119364	1404.25
1509.637381	1393.5
1510.155344	1409.75
1510.673252	1416.5
1511.191105	1405.25
1511.708903	1412.0
1512.226647	1410.25
1512.744336	1397.75
1513.261971	1402.75
1513.77955	1399.5
1514.297076	1395.0
1514.814546	1393.0
1515.331962	1397.5
1515.849323	1407.75
1516.366629	1396.75
1516.883881	1402.25
1517.401078	1391.75
1517.918221	1398.75
1518.435309	1417.0
1518.952342	1424.5
1519.469321	1419.5
1519.986245	1409.0
1520.503114	1416.5
1521.019929	1406.0
1521.536689	1414.75
1522.053395	1407.25
1522.570046	1407.25
1523.086642	1415.0
1523.603184	1404.5
1524.119671	1402.5
1524.636103	1405.75
1525.152481	1416.75
1525.668805	1403.25
1526.185073	1422.75
1526.701288	1418.25
1527.217447	1428.75
1527.733552	1416.25
1528.249603	1410.75
1528.765599	1397.75
1529.28154	1410.25
1529.797427	1403.0
1530.313259	1419.75
1530.829037	1406.25
1531.34476	1398.0
1531.860429	1424.75
1532.376043	1407.5
1532.891602	1413.0
1533.407107	1413.5
1533.922558	1410.75
1534.437954	1407.5
1534.953295	1408.25
1535.468582	1404.5
1535.983815	1403.75
1536.498993	1428.5
1537.014116	1395.0
1537.529185	1406.25
1538.044199	1424.0
1538.559159	1423.75
1539.074064	1417.0
1539.588915	1419.25
1540.103712	1402.0
1540.618454	1403.75
1541.133141	1432.5
1541.647774	1398.5
1542.162353	1421.75
1542.676877	1398.0
1543.191346	1429.75
1543.705761	1405.25
1544.220122	1427.0
1544.734428	1424.25
1545.24868	1414.0
1545.762877	1420.75
1546.27702	1417.5
1546.791109	1416.75
1547.305143	1424.25
1547.819122	1417.75
1548.333047	1417.25
1548.846918	1410.75
1549.360734	1405.5
1549.874496	1417.25
1550.388204	1425.25
1550.901857	1424.0
1551.415455	1417.5
1551.929	1424.5
1552.442489	1415.25
1552.955925	1418.25
1553.469306	1416.5
1553.982632	1412.25
1554.495905	1433.75
1555.009123	1413.5
1555.522286	1430.75
1556.035395	1410.75
1556.54845	1426.0
1557.06145	1426.5
1557.574396	1412.0
1558.087288	1420.25
1558.600125	1414.0
1559.112908	1437.75
1559.625637	1426.0
1560.138311	1437.75
1560.650931	1428.0
1561.163497	1410.5
1561.676008	1424.0
1562.188465	1408.75
1562.700867	1416.25
1563.213216	1422.75
1563.725509	1439.0
1564.237749	1411.25
1564.749934	1431.0
1565.262065	1414.5
1565.774142	1432.5
1566.286164	1418.0
1566.798132	1428.25
1567.310046	1437.0
1567.821906	1433.75
1568.333711	1416.5
1568.845462	1413.75
1569.357158	1423.0
1569.868801	1430.75
1570.380389	1435.25
1570.891922	1435.5
1571.403402	1424.75
1571.914827	1430.0
1572.426198	1418.5
1572.937515	1431.25
1573.448777	1428.5
1573.959985	1431.75
1574.471139	1408.75
1574.982239	1423.5
1575.493285	1423.75
1576.004276	1440.0
1576.515213	1408.25
1577.026096	1437.0
1577.536924	1419.25
1578.047698	1433.0
1578.558419	1409.5
1579.069084	1412.75
1579.579696	1433.25
1580.090254	1426.25
1580.600757	1430.0
1581.111206	1419.75
1581.621601	1427.5
1582.131941	1417.25
1582.642228	1432.0
1583.15246	1405.0
1583.662638	1413.75
1584.172762	1434.25
1584.682832	1431.5
1585.192847	1433.0
1585.702809	1429.0
1586.212716	1420.5
1586.722569	1411.5
1587.232368	1434.0
1587.742113	1426.5
1588.251803	1428.0
1588.76144	1416.75
1589.271022	1421.0
1589.78055	1432.0
1590.290024	1430.5
1590.799444	1427.5
1591.30881	1412.75
1591.818121	1434.5
1592.327379	1429.25
