 1.042414189E+03	 1.854900000E+04
 1.042980685E+03	 1.870325000E+04
 1.043547124E+03	 1.858000000E+04
 1.044113505E+03	 1.866975000E+04
 1.044679828E+03	 1.865400000E+04
 1.045246093E+03	 1.866075000E+04
 1.045812300E+03	 1.876700000E+04
 1.046378449E+03	 1.882650000E+04
 1.046944540E+03	 1.871250000E+04
 1.047510573E+03	 1.884175000E+04
 1.048076548E+03	 1.882275000E+04
 1.048642465E+03	 1.893750000E+04
 1.049208325E+03	 1.886450000E+04
 1.049774126E+03	 1.892200000E+04
 1.050339869E+03	 1.895375000E+04
 1.050905555E+03	 1.901200000E+04
 1.051471183E+03	 1.888750000E+04
 1.052036752E+03	 1.904875000E+04
 1.052602264E+03	 1.893975000E+04
 1.053167718E+03	 1.907750000E+04
 1.053733114E+03	 1.905150000E+04
 1.054298452E+03	 1.917750000E+04
 1.054863733E+03	 1.906850000E+04
 1.055428955E+03	 1.916275000E+04
 1.055994119E+03	 1.912300000E+04
 1.056559226E+03	 1.929550000E+04
 1.057124275E+03	 1.922050000E+04
 1.057689266E+03	 1.931100000E+04
 1.058254199E+03	 1.918150000E+04
 1.058819074E+03	 1.932200000E+04
 1.059383891E+03	 1.922875000E+04
 1.059948650E+03	 1.942450000E+04
 1.060513352E+03	 1.923675000E+04
 1.061077996E+03	 1.939100000E+04
 1.061642582E+03	 1.938800000E+04
 1.062207110E+03	 1.947925000E+04
 1.062771580E+03	 1.931725000E+04
 1.063335992E+03	 1.945225000E+04
 1.063900347E+03	 1.939425000E+04
 1.064464643E+03	 1.940350000E+04
 1.065028882E+03	 1.949100000E+04
 1.065593063E+03	 1.963775000E+04
 1.066157187E+03	 1.953675000E+04
 1.066721252E+03	 1.963000000E+04
 1.067285260E+03	 1.959800000E+04
 1.067849210E+03	 1.974350000E+04
 1.068413102E+03	 1.952400000E+04
 1.068976936E+03	 1.965600000E+04
 1.069540713E+03	 1.970375000E+04
 1.070104431E+03	 1.977950000E+04
 1.070668092E+03	 1.967550000E+04
 1.071231696E+03	 1.981375000E+04
 1.071795241E+03	 1.976925000E+04
 1.072358729E+03	 1.992425000E+04
 1.072922159E+03	 1.973600000E+04
 1.073485531E+03	 1.985650000E+04
 1.074048845E+03	 1.982275000E+04
 1.074612102E+03	 1.986200000E+04
 1.075175301E+03	 1.988700000E+04
 1.075738442E+03	 1.995250000E+04
 1.076301525E+03	 1.988450000E+04
 1.076864551E+03	 1.991525000E+04
 1.077427519E+03	 1.994425000E+04
 1.077990429E+03	 2.008025000E+04
 1.078553281E+03	 1.996400000E+04
 1.079116076E+03	 2.004500000E+04
 1.079678813E+03	 1.996700000E+04
 1.080241492E+03	 2.001100000E+04
 1.080804114E+03	 2.003200000E+04
 1.081366678E+03	 2.015700000E+04
 1.081929184E+03	 2.001050000E+04
 1.082491633E+03	 2.018525000E+04
 1.083054024E+03	 2.004300000E+04
 1.083616357E+03	 2.014400000E+04
 1.084178632E+03	 2.011050000E+04
 1.084740850E+03	 2.022950000E+04
 1.085303010E+03	 2.011400000E+04
 1.085865113E+03	 2.023350000E+04
 1.086427158E+03	 2.018550000E+04
 1.086989145E+03	 2.033925000E+04
 1.087551074E+03	 2.020725000E+04
 1.088112946E+03	 2.045775000E+04
 1.088674760E+03	 2.028450000E+04
 1.089236517E+03	 2.040550000E+04
 1.089798216E+03	 2.031350000E+04
 1.090359857E+03	 2.036450000E+04
 1.090921440E+03	 2.025350000E+04
 1.091482966E+03	 2.051575000E+04
 1.092044435E+03	 2.036225000E+04
 1.092605845E+03	 2.047150000E+04
 1.093167199E+03	 2.035600000E+04
 1.093728494E+03	 2.050100000E+04
 1.094289732E+03	 2.035175000E+04
 1.094850912E+03	 2.055275000E+04
 1.095412035E+03	 2.037700000E+04
 1.095973100E+03	 2.064025000E+04
 1.096534107E+03	 2.047350000E+04
 1.097095057E+03	 2.057425000E+04
 1.097655950E+03	 2.044450000E+04
 1.098216784E+03	 2.064950000E+04
 1.098777561E+03	 2.059300000E+04
 1.099338281E+03	 2.071125000E+04
 1.099898943E+03	 2.062100000E+04
 1.100459547E+03	 2.078050000E+04
 1.101020094E+03	 2.061400000E+04
 1.101580584E+03	 2.061500000E+04
 1.102141015E+03	 2.053675000E+04
 1.102701389E+03	 2.076325000E+04
 1.103261706E+03	 2.059150000E+04
 1.103821965E+03	 2.080575000E+04
 1.104382167E+03	 2.057550000E+04
 1.104942311E+03	 2.081725000E+04
 1.105502397E+03	 2.065950000E+04
 1.106062426E+03	 2.071400000E+04
 1.106622398E+03	 2.077100000E+04
 1.107182312E+03	 2.087000000E+04
 1.107742168E+03	 2.063375000E+04
 1.108301967E+03	 2.087775000E+04
 1.108861708E+03	 2.079300000E+04
 1.109421392E+03	 2.089050000E+04
 1.109981019E+03	 2.075750000E+04
 1.110540587E+03	 2.093025000E+04
 1.111100099E+03	 2.098625000E+04
 1.111659553E+03	 2.100675000E+04
 1.112218949E+03	 2.098475000E+04
 1.112778288E+03	 2.094100000E+04
 1.113337570E+03	 2.094950000E+04
 1.113896794E+03	 2.105425000E+04
 1.114455960E+03	 2.093650000E+04
 1.115015069E+03	 2.103450000E+04
 1.115574121E+03	 2.110600000E+04
 1.116133115E+03	 2.118700000E+04
 1.116692052E+03	 2.111225000E+04
 1.117250931E+03	 2.123050000E+04
 1.117809753E+03	 2.108600000E+04
 1.118368517E+03	 2.117800000E+04
 1.118927224E+03	 2.130475000E+04
 1.119485873E+03	 2.128325000E+04
 1.120044465E+03	 2.117325000E+04
 1.120603000E+03	 2.136975000E+04
 1.121161477E+03	 2.133125000E+04
 1.121719897E+03	 2.135025000E+04
 1.122278259E+03	 2.130675000E+04
 1.122836564E+03	 2.144175000E+04
 1.123394812E+03	 2.134900000E+04
 1.123953002E+03	 2.143825000E+04
 1.124511135E+03	 2.146025000E+04
 1.125069210E+03	 2.158650000E+04
 1.125627228E+03	 2.143925000E+04
 1.126185189E+03	 2.153875000E+04
 1.126743092E+03	 2.150500000E+04
 1.127300938E+03	 2.169250000E+04
 1.127858726E+03	 2.149375000E+04
 1.128416457E+03	 2.158400000E+04
 1.128974131E+03	 2.163350000E+04
 1.129531748E+03	 2.177350000E+04
 1.130089307E+03	 2.168125000E+04
 1.130646808E+03	 2.179850000E+04
 1.131204252E+03	 2.167075000E+04
 1.131761639E+03	 2.188150000E+04
 1.132318969E+03	 2.172325000E+04
 1.132876241E+03	 2.197500000E+04
 1.133433456E+03	 2.182175000E+04
 1.133990614E+03	 2.186625000E+04
 1.134547714E+03	 2.187175000E+04
 1.135104757E+03	 2.197575000E+04
 1.135661743E+03	 2.200850000E+04
 1.136218671E+03	 2.210400000E+04
 1.136775542E+03	 2.204925000E+04
 1.137332356E+03	 2.220125000E+04
 1.137889112E+03	 2.211150000E+04
 1.138445811E+03	 2.223975000E+04
 1.139002453E+03	 2.218350000E+04
 1.139559037E+03	 2.228225000E+04
 1.140115565E+03	 2.238100000E+04
 1.140672035E+03	 2.233600000E+04
 1.141228447E+03	 2.237050000E+04
 1.141784803E+03	 2.244575000E+04
 1.142341101E+03	 2.242675000E+04
 1.142897342E+03	 2.250575000E+04
 1.143453525E+03	 2.240825000E+04
 1.144009651E+03	 2.258125000E+04
 1.144565721E+03	 2.253600000E+04
 1.145121732E+03	 2.264800000E+04
 1.145677687E+03	 2.254550000E+04
 1.146233584E+03	 2.273700000E+04
 1.146789424E+03	 2.267050000E+04
 1.147345207E+03	 2.272200000E+04
 1.147900933E+03	 2.275600000E+04
 1.148456601E+03	 2.281800000E+04
 1.149012212E+03	 2.273875000E+04
 1.149567766E+03	 2.288100000E+04
 1.150123263E+03	 2.283025000E+04
 1.150678702E+03	 2.302250000E+04
 1.151234085E+03	 2.293500000E+04
 1.151789410E+03	 2.305550000E+04
 1.152344678E+03	 2.307200000E+04
 1.152899888E+03	 2.310925000E+04
 1.153455042E+03	 2.303275000E+04
 1.154010138E+03	 2.306250000E+04
 1.154565177E+03	 2.314500000E+04
 1.155120159E+03	 2.311000000E+04
 1.155675084E+03	 2.322100000E+04
 1.156229951E+03	 2.326800000E+04
 1.156784762E+03	 2.331400000E+04
 1.157339515E+03	 2.338050000E+04
 1.157894211E+03	 2.332675000E+04
 1.158448850E+03	 2.335150000E+04
 1.159003432E+03	 2.345250000E+04
 1.159557956E+03	 2.343525000E+04
 1.160112424E+03	 2.344400000E+04
 1.160666834E+03	 2.342600000E+04
 1.161221187E+03	 2.352950000E+04
 1.161775483E+03	 2.349725000E+04
 1.162329722E+03	 2.357750000E+04
 1.162883904E+03	 2.365425000E+04
 1.163438029E+03	 2.372600000E+04
 1.163992096E+03	 2.365025000E+04
 1.164546107E+03	 2.367100000E+04
 1.165100060E+03	 2.370300000E+04
 1.165653956E+03	 2.376150000E+04
 1.166207795E+03	 2.373700000E+04
 1.166761577E+03	 2.374475000E+04
 1.167315302E+03	 2.381950000E+04
 1.167868970E+03	 2.392675000E+04
 1.168422581E+03	 2.383875000E+04
 1.168976134E+03	 2.392075000E+04
 1.169529631E+03	 2.391700000E+04
 1.170083070E+03	 2.405825000E+04
 1.170636453E+03	 2.392100000E+04
 1.171189778E+03	 2.396375000E+04
 1.171743046E+03	 2.406125000E+04
 1.172296257E+03	 2.407450000E+04
 1.172849412E+03	 2.403325000E+04
 1.173402509E+03	 2.406750000E+04
 1.173955549E+03	 2.397825000E+04
 1.174508532E+03	 2.417450000E+04
 1.175061458E+03	 2.411400000E+04
 1.175614327E+03	 2.421700000E+04
 1.176167138E+03	 2.416225000E+04
 1.176719893E+03	 2.424600000E+04
 1.177272591E+03	 2.430250000E+04
 1.177825232E+03	 2.438100000E+04
 1.178377816E+03	 2.442050000E+04
 1.178930342E+03	 2.441075000E+04
 1.179482812E+03	 2.418750000E+04
 1.180035225E+03	 2.435400000E+04
 1.180587581E+03	 2.446375000E+04
 1.181139879E+03	 2.445025000E+04
 1.181692121E+03	 2.444150000E+04
 1.182244306E+03	 2.450000000E+04
 1.182796434E+03	 2.451525000E+04
 1.183348504E+03	 2.454825000E+04
 1.183900518E+03	 2.455300000E+04
 1.184452475E+03	 2.453550000E+04
 1.185004375E+03	 2.461725000E+04
 1.185556218E+03	 2.449425000E+04
 1.186108004E+03	 2.463950000E+04
 1.186659733E+03	 2.451025000E+04
 1.187211405E+03	 2.471500000E+04
 1.187763020E+03	 2.462700000E+04
 1.188314578E+03	 2.476525000E+04
 1.188866079E+03	 2.467525000E+04
 1.189417523E+03	 2.486400000E+04
 1.189968910E+03	 2.489375000E+04
 1.190520241E+03	 2.490275000E+04
 1.191071514E+03	 2.475050000E+04
 1.191622731E+03	 2.496225000E+04
 1.192173890E+03	 2.494975000E+04
 1.192724993E+03	 2.493550000E+04
 1.193276039E+03	 2.503150000E+04
 1.193827027E+03	 2.501700000E+04
 1.194377959E+03	 2.505675000E+04
 1.194928834E+03	 2.498275000E+04
 1.195479653E+03	 2.495850000E+04
 1.196030414E+03	 2.495925000E+04
 1.196581118E+03	 2.513100000E+04
 1.197131766E+03	 2.504075000E+04
 1.197682356E+03	 2.515675000E+04
 1.198232890E+03	 2.508325000E+04
 1.198783367E+03	 2.507275000E+04
 1.199333786E+03	 2.506925000E+04
 1.199884150E+03	 2.523325000E+04
 1.200434456E+03	 2.516075000E+04
 1.200984705E+03	 2.523125000E+04
 1.201534898E+03	 2.516875000E+04
 1.202085033E+03	 2.526225000E+04
 1.202635112E+03	 2.522475000E+04
 1.203185134E+03	 2.521050000E+04
 1.203735099E+03	 2.526925000E+04
 1.204285007E+03	 2.535900000E+04
 1.204834859E+03	 2.530550000E+04
 1.205384653E+03	 2.545875000E+04
 1.205934391E+03	 2.537175000E+04
 1.206484072E+03	 2.552950000E+04
 1.207033696E+03	 2.536675000E+04
 1.207583263E+03	 2.536325000E+04
 1.208132774E+03	 2.538650000E+04
 1.208682228E+03	 2.546750000E+04
 1.209231624E+03	 2.545625000E+04
 1.209780965E+03	 2.552875000E+04
 1.210330248E+03	 2.552875000E+04
 1.210879474E+03	 2.555400000E+04
 1.211428644E+03	 2.554150000E+04
 1.211977757E+03	 2.549850000E+04
 1.212526813E+03	 2.558850000E+04
 1.213075813E+03	 2.567550000E+04
 1.213624755E+03	 2.563375000E+04
 1.214173641E+03	 2.574050000E+04
 1.214722470E+03	 2.564550000E+04
 1.215271242E+03	 2.566175000E+04
 1.215819958E+03	 2.579325000E+04
 1.216368617E+03	 2.576225000E+04
 1.216917219E+03	 2.580250000E+04
 1.217465764E+03	 2.566475000E+04
 1.218014253E+03	 2.581450000E+04
 1.218562685E+03	 2.570050000E+04
 1.219111060E+03	 2.581975000E+04
 1.219659378E+03	 2.584625000E+04
 1.220207640E+03	 2.583850000E+04
 1.220755845E+03	 2.587075000E+04
 1.221303993E+03	 2.588300000E+04
 1.221852085E+03	 2.586875000E+04
 1.222400119E+03	 2.594650000E+04
 1.222948097E+03	 2.584850000E+04
 1.223496019E+03	 2.610425000E+04
 1.224043883E+03	 2.594750000E+04
 1.224591691E+03	 2.603825000E+04
 1.225139443E+03	 2.599350000E+04
 1.225687137E+03	 2.610200000E+04
 1.226234775E+03	 2.608950000E+04
 1.226782357E+03	 2.614025000E+04
 1.227329881E+03	 2.605425000E+04
 1.227877349E+03	 2.622150000E+04
 1.228424760E+03	 2.620050000E+04
 1.228972115E+03	 2.632500000E+04
 1.229519413E+03	 2.619300000E+04
 1.230066654E+03	 2.617225000E+04
 1.230613839E+03	 2.626050000E+04
 1.231160967E+03	 2.633550000E+04
 1.231708038E+03	 2.633250000E+04
 1.232255053E+03	 2.625725000E+04
 1.232802011E+03	 2.639650000E+04
 1.233348912E+03	 2.631750000E+04
 1.233895757E+03	 2.651475000E+04
 1.234442545E+03	 2.636700000E+04
 1.234989277E+03	 2.650800000E+04
 1.235535951E+03	 2.636900000E+04
 1.236082570E+03	 2.653200000E+04
 1.236629131E+03	 2.637325000E+04
 1.237175636E+03	 2.661500000E+04
 1.237722085E+03	 2.653475000E+04
 1.238268477E+03	 2.658150000E+04
 1.238814812E+03	 2.663525000E+04
 1.239361091E+03	 2.663275000E+04
 1.239907313E+03	 2.645700000E+04
 1.240453478E+03	 2.670700000E+04
 1.240999587E+03	 2.669900000E+04
 1.241545640E+03	 2.666675000E+04
 1.242091636E+03	 2.666800000E+04
 1.242637575E+03	 2.674750000E+04
 1.243183457E+03	 2.675375000E+04
 1.243729284E+03	 2.681775000E+04
 1.244275053E+03	 2.680150000E+04
 1.244820766E+03	 2.683125000E+04
 1.245366423E+03	 2.685775000E+04
 1.245912022E+03	 2.683750000E+04
 1.246457566E+03	 2.695875000E+04
 1.247003053E+03	 2.696675000E+04
 1.247548483E+03	 2.695125000E+04
 1.248093857E+03	 2.687300000E+04
 1.248639174E+03	 2.692775000E+04
 1.249184435E+03	 2.707700000E+04
 1.249729639E+03	 2.703825000E+04
 1.250274787E+03	 2.698825000E+04
 1.250819878E+03	 2.708850000E+04
 1.251364912E+03	 2.705725000E+04
 1.251909891E+03	 2.716800000E+04
 1.252454812E+03	 2.709450000E+04
 1.252999677E+03	 2.720975000E+04
 1.253544486E+03	 2.703650000E+04
 1.254089238E+03	 2.726300000E+04
 1.254633934E+03	 2.723850000E+04
 1.255178573E+03	 2.737175000E+04
 1.255723156E+03	 2.713450000E+04
 1.256267682E+03	 2.740525000E+04
 1.256812152E+03	 2.725400000E+04
 1.257356565E+03	 2.741725000E+04
 1.257900922E+03	 2.731075000E+04
 1.258445223E+03	 2.749675000E+04
 1.258989467E+03	 2.733750000E+04
 1.259533654E+03	 2.751300000E+04
 1.260077785E+03	 2.750675000E+04
 1.260621860E+03	 2.739225000E+04
 1.261165878E+03	 2.742200000E+04
 1.261709840E+03	 2.739500000E+04
 1.262253745E+03	 2.755725000E+04
 1.262797594E+03	 2.756700000E+04
 1.263341386E+03	 2.753500000E+04
 1.263885123E+03	 2.755425000E+04
 1.264428802E+03	 2.761475000E+04
 1.264972425E+03	 2.757975000E+04
 1.265515992E+03	 2.759050000E+04
 1.266059503E+03	 2.760350000E+04
 1.266602957E+03	 2.768850000E+04
 1.267146354E+03	 2.759850000E+04
 1.267689696E+03	 2.771650000E+04
 1.268232980E+03	 2.770150000E+04
 1.268776209E+03	 2.784925000E+04
 1.269319381E+03	 2.764425000E+04
 1.269862497E+03	 2.785175000E+04
 1.270405556E+03	 2.769200000E+04
 1.270948559E+03	 2.783025000E+04
 1.271491506E+03	 2.778250000E+04
 1.272034396E+03	 2.782000000E+04
 1.272577230E+03	 2.788725000E+04
 1.273120007E+03	 2.791400000E+04
 1.273662728E+03	 2.797350000E+04
 1.274205393E+03	 2.798550000E+04
 1.274748002E+03	 2.791925000E+04
 1.275290554E+03	 2.806825000E+04
 1.275833050E+03	 2.801825000E+04
 1.276375489E+03	 2.807750000E+04
 1.276917872E+03	 2.810175000E+04
 1.277460199E+03	 2.812675000E+04
 1.278002470E+03	 2.808325000E+04
 1.278544684E+03	 2.811175000E+04
 1.279086842E+03	 2.814425000E+04
 1.279628943E+03	 2.818275000E+04
 1.280170989E+03	 2.803325000E+04
 1.280712978E+03	 2.814425000E+04
 1.281254910E+03	 2.827325000E+04
 1.281796787E+03	 2.822875000E+04
 1.282338607E+03	 2.832200000E+04
 1.282880371E+03	 2.834825000E+04
 1.283422078E+03	 2.851725000E+04
 1.283963729E+03	 2.836725000E+04
 1.284505324E+03	 2.876550000E+04
 1.285046863E+03	 2.894200000E+04
 1.285588345E+03	 2.895075000E+04
 1.286129772E+03	 2.857550000E+04
 1.286671142E+03	 2.846650000E+04
 1.287212455E+03	 2.846100000E+04
 1.287753713E+03	 2.861075000E+04
 1.288294914E+03	 2.841700000E+04
 1.288836059E+03	 2.852225000E+04
 1.289377147E+03	 2.832250000E+04
 1.289918180E+03	 2.864375000E+04
 1.290459156E+03	 2.850350000E+04
 1.291000076E+03	 2.856475000E+04
 1.291540940E+03	 2.845400000E+04
 1.292081747E+03	 2.849175000E+04
 1.292622499E+03	 2.856650000E+04
 1.293163194E+03	 2.857350000E+04
 1.293703833E+03	 2.862125000E+04
 1.294244415E+03	 2.859150000E+04
 1.294784942E+03	 2.869700000E+04
 1.295325412E+03	 2.864325000E+04
 1.295865826E+03	 2.862375000E+04
 1.296406184E+03	 2.866225000E+04
 1.296946486E+03	 2.880350000E+04
 1.297486731E+03	 2.878400000E+04
 1.298026921E+03	 2.880900000E+04
 1.298567054E+03	 2.869600000E+04
 1.299107131E+03	 2.877175000E+04
 1.299647152E+03	 2.872775000E+04
 1.300187116E+03	 2.887875000E+04
 1.300727025E+03	 2.880300000E+04
 1.301266877E+03	 2.891950000E+04
 1.301806673E+03	 2.877975000E+04
 1.302346413E+03	 2.893800000E+04
 1.302886097E+03	 2.891975000E+04
 1.303425725E+03	 2.910800000E+04
 1.303965297E+03	 2.892150000E+04
 1.304504812E+03	 2.895475000E+04
 1.305044272E+03	 2.896075000E+04
 1.305583675E+03	 2.912175000E+04
 1.306123022E+03	 2.899950000E+04
 1.306662313E+03	 2.910575000E+04
 1.307201548E+03	 2.902600000E+04
 1.307740727E+03	 2.915600000E+04
 1.308279849E+03	 2.907400000E+04
 1.308818916E+03	 2.906525000E+04
 1.309357926E+03	 2.919275000E+04
 1.309896881E+03	 2.909100000E+04
 1.310435779E+03	 2.926525000E+04
 1.310974621E+03	 2.912000000E+04
 1.311513407E+03	 2.924150000E+04
 1.312052137E+03	 2.918100000E+04
 1.312590811E+03	 2.934850000E+04
 1.313129429E+03	 2.906200000E+04
 1.313667991E+03	 2.946600000E+04
 1.314206497E+03	 2.922500000E+04
 1.314744946E+03	 2.941925000E+04
 1.315283340E+03	 2.924200000E+04
 1.315821678E+03	 2.938100000E+04
 1.316359959E+03	 2.945100000E+04
 1.316898184E+03	 2.945375000E+04
 1.317436354E+03	 2.949150000E+04
 1.317974467E+03	 2.945225000E+04
 1.318512525E+03	 2.930175000E+04
 1.319050526E+03	 2.944675000E+04
 1.319588471E+03	 2.956425000E+04
 1.320126360E+03	 2.952975000E+04
 1.320664194E+03	 2.967700000E+04
 1.321201971E+03	 2.956450000E+04
 1.321739692E+03	 2.973250000E+04
 1.322277357E+03	 2.953300000E+04
 1.322814967E+03	 2.965475000E+04
 1.323352520E+03	 2.959850000E+04
 1.323890017E+03	 2.972500000E+04
 1.324427458E+03	 2.965225000E+04
 1.324964843E+03	 2.973800000E+04
 1.325502173E+03	 2.963350000E+04
 1.326039446E+03	 2.983850000E+04
 1.326576663E+03	 2.966975000E+04
 1.327113824E+03	 2.985450000E+04
 1.327650930E+03	 2.977450000E+04
 1.328187979E+03	 2.987750000E+04
 1.328724972E+03	 2.977500000E+04
 1.329261910E+03	 2.988375000E+04
 1.329798791E+03	 2.977025000E+04
 1.330335617E+03	 2.988250000E+04
 1.330872386E+03	 2.985375000E+04
 1.331409100E+03	 2.992975000E+04
 1.331945758E+03	 2.998650000E+04
 1.332482360E+03	 2.988100000E+04
 1.333018905E+03	 2.997875000E+04
 1.333555395E+03	 2.991325000E+04
 1.334091829E+03	 3.006775000E+04
 1.334628207E+03	 2.999250000E+04
 1.335164529E+03	 3.005425000E+04
 1.335700796E+03	 2.997450000E+04
 1.336237006E+03	 3.009050000E+04
 1.336773160E+03	 2.999400000E+04
 1.337309259E+03	 3.023750000E+04
 1.337845301E+03	 3.029775000E+04
 1.338381288E+03	 3.040050000E+04
 1.338917219E+03	 3.018800000E+04
 1.339453094E+03	 3.027750000E+04
 1.339988913E+03	 3.028100000E+04
 1.340524676E+03	 3.022300000E+04
 1.341060383E+03	 3.026925000E+04
 1.341596034E+03	 3.033250000E+04
 1.342131630E+03	 3.023875000E+04
 1.342667170E+03	 3.035400000E+04
 1.343202653E+03	 3.030250000E+04
 1.343738081E+03	 3.036025000E+04
 1.344273453E+03	 3.051350000E+04
 1.344808770E+03	 3.029200000E+04
 1.345344030E+03	 3.046925000E+04
 1.345879235E+03	 3.035250000E+04
 1.346414383E+03	 3.050500000E+04
 1.346949476E+03	 3.047875000E+04
 1.347484513E+03	 3.060175000E+04
 1.348019494E+03	 3.036975000E+04
 1.348554420E+03	 3.057825000E+04
 1.349089289E+03	 3.057750000E+04
 1.349624103E+03	 3.061800000E+04
 1.350158861E+03	 3.059975000E+04
 1.350693563E+03	 3.067575000E+04
 1.351228209E+03	 3.058850000E+04
 1.351762800E+03	 3.076675000E+04
 1.352297334E+03	 3.073150000E+04
 1.352831813E+03	 3.068950000E+04
 1.353366236E+03	 3.077075000E+04
 1.353900604E+03	 3.074100000E+04
 1.354434915E+03	 3.076000000E+04
 1.354969171E+03	 3.067000000E+04
 1.355503371E+03	 3.066900000E+04
 1.356037515E+03	 3.068075000E+04
 1.356571604E+03	 3.090725000E+04
 1.357105636E+03	 3.069025000E+04
 1.357639613E+03	 3.096150000E+04
 1.358173535E+03	 3.075925000E+04
 1.358707400E+03	 3.096425000E+04
 1.359241210E+03	 3.087325000E+04
 1.359774964E+03	 3.103125000E+04
 1.360308662E+03	 3.079900000E+04
 1.360842304E+03	 3.101975000E+04
 1.361375891E+03	 3.108275000E+04
 1.361909422E+03	 3.103850000E+04
 1.362442897E+03	 3.103475000E+04
 1.362976317E+03	 3.115975000E+04
 1.363509680E+03	 3.122325000E+04
 1.364042989E+03	 3.113750000E+04
 1.364576241E+03	 3.122000000E+04
 1.365109438E+03	 3.106850000E+04
 1.365642579E+03	 3.128475000E+04
 1.366175664E+03	 3.118100000E+04
 1.366708693E+03	 3.134475000E+04
 1.367241667E+03	 3.114975000E+04
 1.367774585E+03	 3.142100000E+04
 1.368307448E+03	 3.114875000E+04
 1.368840255E+03	 3.145400000E+04
 1.369373006E+03	 3.114650000E+04
 1.369905701E+03	 3.146475000E+04
 1.370438341E+03	 3.138475000E+04
 1.370970925E+03	 3.143300000E+04
 1.371503454E+03	 3.138200000E+04
 1.372035926E+03	 3.146775000E+04
 1.372568344E+03	 3.142925000E+04
 1.373100705E+03	 3.130600000E+04
 1.373633011E+03	 3.156275000E+04
 1.374165261E+03	 3.145375000E+04
 1.374697456E+03	 3.170150000E+04
 1.375229595E+03	 3.145775000E+04
 1.375761678E+03	 3.164800000E+04
 1.376293705E+03	 3.153700000E+04
 1.376825677E+03	 3.178050000E+04
 1.377357594E+03	 3.156650000E+04
 1.377889455E+03	 3.178750000E+04
 1.378421260E+03	 3.163125000E+04
 1.378953009E+03	 3.188025000E+04
 1.379484703E+03	 3.173525000E+04
 1.380016342E+03	 3.168875000E+04
 1.380547924E+03	 3.175025000E+04
 1.381079452E+03	 3.192375000E+04
 1.381610923E+03	 3.200725000E+04
 1.382142339E+03	 3.176300000E+04
 1.382673699E+03	 3.190900000E+04
 1.383205004E+03	 3.190525000E+04
 1.383736253E+03	 3.204725000E+04
 1.384267447E+03	 3.182800000E+04
 1.384798585E+03	 3.215700000E+04
 1.385329668E+03	 3.179675000E+04
 1.385860695E+03	 3.210750000E+04
 1.386391666E+03	 3.189025000E+04
 1.386922582E+03	 3.230875000E+04
 1.387453442E+03	 3.219950000E+04
 1.387984247E+03	 3.273050000E+04
 1.388514996E+03	 3.331800000E+04
 1.389045690E+03	 3.323375000E+04
 1.389576328E+03	 3.251700000E+04
 1.390106910E+03	 3.221225000E+04
 1.390637437E+03	 3.219075000E+04
 1.391167909E+03	 3.213975000E+04
 1.391698325E+03	 3.232925000E+04
 1.392228685E+03	 3.214575000E+04
 1.392758990E+03	 3.247300000E+04
 1.393289240E+03	 3.224250000E+04
 1.393819434E+03	 3.238275000E+04
 1.394349572E+03	 3.224950000E+04
 1.394879655E+03	 3.253325000E+04
 1.395409683E+03	 3.225650000E+04
 1.395939655E+03	 3.242850000E+04
 1.396469571E+03	 3.242300000E+04
 1.396999432E+03	 3.241975000E+04
 1.397529237E+03	 3.244025000E+04
 1.398058987E+03	 3.247025000E+04
 1.398588682E+03	 3.250925000E+04
 1.399118321E+03	 3.253750000E+04
 1.399647905E+03	 3.270200000E+04
 1.400177433E+03	 3.247125000E+04
 1.400706906E+03	 3.274250000E+04
 1.401236323E+03	 3.255275000E+04
 1.401765685E+03	 3.279650000E+04
 1.402294991E+03	 3.260700000E+04
 1.402824242E+03	 3.282200000E+04
 1.403353437E+03	 3.274375000E+04
 1.403882577E+03	 3.288525000E+04
 1.404411662E+03	 3.268900000E+04
 1.404940691E+03	 3.297100000E+04
 1.405469665E+03	 3.286700000E+04
 1.405998583E+03	 3.288850000E+04
 1.406527446E+03	 3.289675000E+04
 1.407056253E+03	 3.297625000E+04
 1.407585005E+03	 3.313350000E+04
 1.408113702E+03	 3.297050000E+04
 1.408642343E+03	 3.307200000E+04
 1.409170929E+03	 3.301575000E+04
 1.409699460E+03	 3.317600000E+04
 1.410227935E+03	 3.310275000E+04
 1.410756354E+03	 3.332600000E+04
 1.411284719E+03	 3.300525000E+04
 1.411813028E+03	 3.317050000E+04
 1.412341281E+03	 3.312775000E+04
 1.412869479E+03	 3.321325000E+04
 1.413397622E+03	 3.320875000E+04
 1.413925710E+03	 3.322100000E+04
 1.414453742E+03	 3.325000000E+04
 1.414981718E+03	 3.332925000E+04
 1.415509640E+03	 3.331375000E+04
 1.416037506E+03	 3.325300000E+04
 1.416565316E+03	 3.326325000E+04
 1.417093072E+03	 3.320050000E+04
 1.417620772E+03	 3.347200000E+04
 1.418148416E+03	 3.324650000E+04
 1.418676005E+03	 3.342850000E+04
 1.419203539E+03	 3.341275000E+04
 1.419731018E+03	 3.351700000E+04
 1.420258441E+03	 3.337350000E+04
 1.420785809E+03	 3.359025000E+04
 1.421313122E+03	 3.353075000E+04
 1.421840379E+03	 3.367600000E+04
 1.422367582E+03	 3.349300000E+04
 1.422894728E+03	 3.356500000E+04
 1.423421820E+03	 3.361775000E+04
 1.423948856E+03	 3.366925000E+04
 1.424475837E+03	 3.374125000E+04
 1.425002762E+03	 3.375150000E+04
 1.425529633E+03	 3.393125000E+04
 1.426056448E+03	 3.374750000E+04
 1.426583207E+03	 3.386400000E+04
 1.427109912E+03	 3.376950000E+04
 1.427636561E+03	 3.385950000E+04
 1.428163155E+03	 3.387075000E+04
 1.428689694E+03	 3.390025000E+04
 1.429216177E+03	 3.388175000E+04
 1.429742605E+03	 3.403700000E+04
 1.430268978E+03	 3.396625000E+04
 1.430795296E+03	 3.392400000E+04
 1.431321558E+03	 3.397550000E+04
 1.431847765E+03	 3.402525000E+04
 1.432373917E+03	 3.395875000E+04
 1.432900014E+03	 3.396600000E+04
 1.433426056E+03	 3.392225000E+04
 1.433952042E+03	 3.390975000E+04
 1.434477973E+03	 3.405325000E+04
 1.435003849E+03	 3.389575000E+04
 1.435529669E+03	 3.416525000E+04
 1.436055435E+03	 3.390475000E+04
 1.436581145E+03	 3.405575000E+04
 1.437106800E+03	 3.405975000E+04
 1.437632399E+03	 3.410950000E+04
 1.438157944E+03	 3.407950000E+04
 1.438683433E+03	 3.412875000E+04
 1.439208868E+03	 3.406025000E+04
 1.439734247E+03	 3.416625000E+04
 1.440259570E+03	 3.425050000E+04
 1.440784839E+03	 3.420775000E+04
 1.441310053E+03	 3.416150000E+04
 1.441835211E+03	 3.420500000E+04
 1.442360314E+03	 3.422625000E+04
 1.442885362E+03	 3.424825000E+04
 1.443410355E+03	 3.437325000E+04
 1.443935292E+03	 3.416100000E+04
 1.444460175E+03	 3.427450000E+04
 1.444985002E+03	 3.423350000E+04
 1.445509774E+03	 3.430450000E+04
 1.446034491E+03	 3.423300000E+04
 1.446559153E+03	 3.425250000E+04
 1.447083760E+03	 3.434075000E+04
 1.447608312E+03	 3.438025000E+04
 1.448132808E+03	 3.427700000E+04
 1.448657250E+03	 3.435050000E+04
 1.449181636E+03	 3.431100000E+04
 1.449705967E+03	 3.439950000E+04
 1.450230243E+03	 3.459975000E+04
 1.450754464E+03	 3.432675000E+04
 1.451278630E+03	 3.436975000E+04
 1.451802741E+03	 3.436025000E+04
 1.452326797E+03	 3.439525000E+04
 1.452850797E+03	 3.434925000E+04
 1.453374743E+03	 3.443850000E+04
 1.453898633E+03	 3.443250000E+04
 1.454422468E+03	 3.457125000E+04
 1.454946249E+03	 3.449850000E+04
 1.455469974E+03	 3.462875000E+04
 1.455993644E+03	 3.456075000E+04
 1.456517259E+03	 3.464200000E+04
 1.457040819E+03	 3.454200000E+04
 1.457564324E+03	 3.457575000E+04
 1.458087773E+03	 3.451850000E+04
 1.458611168E+03	 3.455475000E+04
 1.459134508E+03	 3.458925000E+04
 1.459657793E+03	 3.459750000E+04
 1.460181022E+03	 3.459775000E+04
 1.460704197E+03	 3.460600000E+04
 1.461227316E+03	 3.473625000E+04
 1.461750381E+03	 3.458300000E+04
 1.462273390E+03	 3.480750000E+04
 1.462796345E+03	 3.464825000E+04
 1.463319244E+03	 3.473075000E+04
 1.463842089E+03	 3.468575000E+04
 1.464364878E+03	 3.468450000E+04
 1.464887613E+03	 3.478250000E+04
 1.465410292E+03	 3.471275000E+04
 1.465932916E+03	 3.474150000E+04
 1.466455486E+03	 3.464725000E+04
 1.466978000E+03	 3.485000000E+04
 1.467500460E+03	 3.467975000E+04
 1.468022864E+03	 3.471000000E+04
 1.468545214E+03	 3.466350000E+04
 1.469067508E+03	 3.488450000E+04
 1.469589748E+03	 3.487125000E+04
 1.470111932E+03	 3.479250000E+04
 1.470634062E+03	 3.474525000E+04
 1.471156136E+03	 3.477425000E+04
 1.471678156E+03	 3.482400000E+04
 1.472200120E+03	 3.470950000E+04
 1.472722030E+03	 3.482325000E+04
 1.473243885E+03	 3.482400000E+04
 1.473765685E+03	 3.489250000E+04
 1.474287430E+03	 3.487350000E+04
 1.474809120E+03	 3.503000000E+04
 1.475330755E+03	 3.489350000E+04
 1.475852335E+03	 3.484775000E+04
 1.476373860E+03	 3.481575000E+04
 1.476895330E+03	 3.487375000E+04
 1.477416745E+03	 3.486825000E+04
 1.477938106E+03	 3.486250000E+04
 1.478459411E+03	 3.482875000E+04
 1.478980662E+03	 3.484725000E+04
 1.479501857E+03	 3.490200000E+04
 1.480022998E+03	 3.489700000E+04
 1.480544084E+03	 3.499400000E+04
 1.481065115E+03	 3.481675000E+04
 1.481586091E+03	 3.486300000E+04
 1.482107012E+03	 3.479450000E+04
 1.482627878E+03	 3.482950000E+04
 1.483148690E+03	 3.486500000E+04
 1.483669446E+03	 3.481825000E+04
 1.484190148E+03	 3.488850000E+04
 1.484710794E+03	 3.483300000E+04
 1.485231386E+03	 3.496325000E+04
 1.485751923E+03	 3.498075000E+04
 1.486272406E+03	 3.492850000E+04
 1.486792833E+03	 3.481075000E+04
 1.487313205E+03	 3.493250000E+04
 1.487833523E+03	 3.480150000E+04
 1.488353786E+03	 3.490225000E+04
 1.488873994E+03	 3.487325000E+04
 1.489394147E+03	 3.492200000E+04
 1.489914245E+03	 3.490750000E+04
 1.490434288E+03	 3.494250000E+04
 1.490954277E+03	 3.491000000E+04
 1.491474211E+03	 3.480075000E+04
 1.491994090E+03	 3.487700000E+04
 1.492513914E+03	 3.489475000E+04
 1.493033683E+03	 3.482950000E+04
 1.493553398E+03	 3.503425000E+04
 1.494073057E+03	 3.489850000E+04
 1.494592662E+03	 3.504025000E+04
 1.495112212E+03	 3.482600000E+04
 1.495631708E+03	 3.493300000E+04
 1.496151148E+03	 3.481450000E+04
 1.496670534E+03	 3.497925000E+04
 1.497189865E+03	 3.503525000E+04
 1.497709141E+03	 3.505025000E+04
 1.498228362E+03	 3.501900000E+04
 1.498747529E+03	 3.509600000E+04
 1.499266641E+03	 3.503425000E+04
 1.499785698E+03	 3.509050000E+04
 1.500304700E+03	 3.510450000E+04
 1.500823648E+03	 3.494450000E+04
 1.501342540E+03	 3.506875000E+04
 1.501861379E+03	 3.497175000E+04
 1.502380162E+03	 3.514050000E+04
 1.502898890E+03	 3.508075000E+04
 1.503417564E+03	 3.514400000E+04
 1.503936183E+03	 3.494600000E+04
 1.504454748E+03	 3.508850000E+04
 1.504973257E+03	 3.510450000E+04
 1.505491712E+03	 3.523350000E+04
 1.506010112E+03	 3.501725000E+04
 1.506528458E+03	 3.479750000E+04
 1.507046748E+03	 3.503450000E+04
 1.507564984E+03	 3.477750000E+04
 1.508083166E+03	 3.512150000E+04
 1.508601292E+03	 3.487850000E+04
 1.509119364E+03	 3.512250000E+04
 1.509637381E+03	 3.507175000E+04
 1.510155344E+03	 3.500825000E+04
 1.510673252E+03	 3.503400000E+04
 1.511191105E+03	 3.493250000E+04
 1.511708903E+03	 3.518450000E+04
 1.512226647E+03	 3.500400000E+04
 1.512744336E+03	 3.510800000E+04
 1.513261971E+03	 3.502500000E+04
 1.513779550E+03	 3.517975000E+04
 1.514297076E+03	 3.509200000E+04
 1.514814546E+03	 3.529350000E+04
 1.515331962E+03	 3.505150000E+04
 1.515849323E+03	 3.516300000E+04
 1.516366629E+03	 3.515900000E+04
 1.516883881E+03	 3.512725000E+04
 1.517401078E+03	 3.514025000E+04
 1.517918221E+03	 3.511250000E+04
 1.518435309E+03	 3.542200000E+04
 1.518952342E+03	 3.517825000E+04
 1.519469321E+03	 3.536275000E+04
 1.519986245E+03	 3.503825000E+04
 1.520503114E+03	 3.533025000E+04
 1.521019929E+03	 3.497550000E+04
 1.521536689E+03	 3.523200000E+04
 1.522053395E+03	 3.504050000E+04
 1.522570046E+03	 3.520450000E+04
 1.523086642E+03	 3.525875000E+04
 1.523603184E+03	 3.523950000E+04
 1.524119671E+03	 3.529075000E+04
 1.524636103E+03	 3.521125000E+04
 1.525152481E+03	 3.531450000E+04
 1.525668805E+03	 3.502325000E+04
 1.526185073E+03	 3.539025000E+04
 1.526701288E+03	 3.517525000E+04
 1.527217447E+03	 3.539850000E+04
 1.527733552E+03	 3.522475000E+04
 1.528249603E+03	 3.535800000E+04
 1.528765599E+03	 3.536550000E+04
 1.529281540E+03	 3.525675000E+04
 1.529797427E+03	 3.536950000E+04
 1.530313259E+03	 3.512200000E+04
 1.530829037E+03	 3.555400000E+04
 1.531344760E+03	 3.518325000E+04
 1.531860429E+03	 3.553100000E+04
 1.532376043E+03	 3.525850000E+04
 1.532891602E+03	 3.545825000E+04
 1.533407107E+03	 3.532275000E+04
 1.533922558E+03	 3.542750000E+04
 1.534437954E+03	 3.540575000E+04
 1.534953295E+03	 3.535250000E+04
 1.535468582E+03	 3.534725000E+04
 1.535983815E+03	 3.537450000E+04
 1.536498993E+03	 3.546825000E+04
 1.537014116E+03	 3.524175000E+04
 1.537529185E+03	 3.553625000E+04
 1.538044199E+03	 3.535850000E+04
 1.538559159E+03	 3.562075000E+04
 1.539074064E+03	 3.536550000E+04
 1.539588915E+03	 3.542600000E+04
 1.540103712E+03	 3.555775000E+04
 1.540618454E+03	 3.549500000E+04
 1.541133141E+03	 3.541650000E+04
 1.541647774E+03	 3.535950000E+04
 1.542162353E+03	 3.564525000E+04
 1.542676877E+03	 3.539700000E+04
 1.543191346E+03	 3.585875000E+04
 1.543705761E+03	 3.549975000E+04
 1.544220122E+03	 3.559475000E+04
 1.544734428E+03	 3.542425000E+04
 1.545248680E+03	 3.564750000E+04
 1.545762877E+03	 3.548225000E+04
 1.546277020E+03	 3.549000000E+04
 1.546791109E+03	 3.574150000E+04
 1.547305143E+03	 3.555675000E+04
 1.547819122E+03	 3.570525000E+04
 1.548333047E+03	 3.527000000E+04
 1.548846918E+03	 3.566575000E+04
 1.549360734E+03	 3.545575000E+04
 1.549874496E+03	 3.574275000E+04
 1.550388204E+03	 3.547425000E+04
 1.550901857E+03	 3.562525000E+04
 1.551415455E+03	 3.563425000E+04
 1.551929000E+03	 3.542500000E+04
 1.552442489E+03	 3.572950000E+04
 1.552955925E+03	 3.546325000E+04
 1.553469306E+03	 3.570325000E+04
 1.553982632E+03	 3.551525000E+04
 1.554495905E+03	 3.580150000E+04
 1.555009123E+03	 3.548575000E+04
 1.555522286E+03	 3.567025000E+04
 1.556035395E+03	 3.545850000E+04
 1.556548450E+03	 3.567825000E+04
 1.557061450E+03	 3.566475000E+04
 1.557574396E+03	 3.557025000E+04
 1.558087288E+03	 3.572750000E+04
 1.558600125E+03	 3.549950000E+04
 1.559112908E+03	 3.580550000E+04
 1.559625637E+03	 3.543275000E+04
 1.560138311E+03	 3.582225000E+04
 1.560650931E+03	 3.544625000E+04
 1.561163497E+03	 3.581950000E+04
 1.561676008E+03	 3.562475000E+04
 1.562188465E+03	 3.565850000E+04
 1.562700867E+03	 3.567950000E+04
 1.563213216E+03	 3.557300000E+04
 1.563725509E+03	 3.571025000E+04
 1.564237749E+03	 3.549200000E+04
 1.564749934E+03	 3.585800000E+04
 1.565262065E+03	 3.556875000E+04
 1.565774142E+03	 3.576400000E+04
 1.566286164E+03	 3.530250000E+04
 1.566798132E+03	 3.578125000E+04
 1.567310046E+03	 3.561100000E+04
 1.567821906E+03	 3.561325000E+04
 1.568333711E+03	 3.554050000E+04
 1.568845462E+03	 3.555725000E+04
 1.569357158E+03	 3.570875000E+04
 1.569868801E+03	 3.539150000E+04
 1.570380389E+03	 3.579300000E+04
 1.570891922E+03	 3.551775000E+04
 1.571403402E+03	 3.593200000E+04
 1.571914827E+03	 3.550600000E+04
 1.572426198E+03	 3.569375000E+04
 1.572937515E+03	 3.559900000E+04
 1.573448777E+03	 3.562675000E+04
 1.573959985E+03	 3.577350000E+04
 1.574471139E+03	 3.555500000E+04
 1.574982239E+03	 3.588625000E+04
 1.575493285E+03	 3.539425000E+04
 1.576004276E+03	 3.604775000E+04
 1.576515213E+03	 3.544550000E+04
 1.577026096E+03	 3.589875000E+04
 1.577536924E+03	 3.563650000E+04
 1.578047698E+03	 3.569200000E+04
 1.578558419E+03	 3.571825000E+04
 1.579069084E+03	 3.549000000E+04
 1.579579696E+03	 3.563225000E+04
 1.580090254E+03	 3.543250000E+04
 1.580600757E+03	 3.571225000E+04
 1.581111206E+03	 3.538075000E+04
 1.581621601E+03	 3.574975000E+04
 1.582131941E+03	 3.542325000E+04
 1.582642228E+03	 3.568500000E+04
 1.583152460E+03	 3.558075000E+04
 1.583662638E+03	 3.556700000E+04
 1.584172762E+03	 3.563975000E+04
 1.584682832E+03	 3.546850000E+04
 1.585192847E+03	 3.582150000E+04
 1.585702809E+03	 3.555250000E+04
 1.586212716E+03	 3.585200000E+04
 1.586722569E+03	 3.534225000E+04
 1.587232368E+03	 3.578150000E+04
 1.587742113E+03	 3.543025000E+04
 1.588251803E+03	 3.579775000E+04
 1.588761440E+03	 3.547425000E+04
 1.589271022E+03	 3.556025000E+04
 1.589780550E+03	 3.560475000E+04
 1.590290024E+03	 3.532500000E+04
 1.590799444E+03	 3.578200000E+04
 1.591308810E+03	 3.538975000E+04
 1.591818121E+03	 3.585975000E+04
 1.592327379E+03	 3.533800000E+04
