 1.042414189E+03	 1.480700000E+04
 1.042980685E+03	 1.485575000E+04
 1.043547124E+03	 1.494750000E+04
 1.044113505E+03	 1.495625000E+04
 1.044679828E+03	 1.493775000E+04
 1.045246093E+03	 1.488725000E+04
 1.045812300E+03	 1.492800000E+04
 1.046378449E+03	 1.494225000E+04
 1.046944540E+03	 1.493325000E+04
 1.047510573E+03	 1.501100000E+04
 1.048076548E+03	 1.504325000E+04
 1.048642465E+03	 1.510175000E+04
 1.049208325E+03	 1.505225000E+04
 1.049774126E+03	 1.508200000E+04
 1.050339869E+03	 1.510675000E+04
 1.050905555E+03	 1.517825000E+04
 1.051471183E+03	 1.517100000E+04
 1.052036752E+03	 1.519400000E+04
 1.052602264E+03	 1.513075000E+04
 1.053167718E+03	 1.525275000E+04
 1.053733114E+03	 1.532025000E+04
 1.054298452E+03	 1.531925000E+04
 1.054863733E+03	 1.532550000E+04
 1.055428955E+03	 1.535200000E+04
 1.055994119E+03	 1.528650000E+04
 1.056559226E+03	 1.539200000E+04
 1.057124275E+03	 1.540825000E+04
 1.057689266E+03	 1.544000000E+04
 1.058254199E+03	 1.543325000E+04
 1.058819074E+03	 1.549325000E+04
 1.059383891E+03	 1.542800000E+04
 1.059948650E+03	 1.550525000E+04
 1.060513352E+03	 1.549600000E+04
 1.061077996E+03	 1.561700000E+04
 1.061642582E+03	 1.556250000E+04
 1.062207110E+03	 1.568125000E+04
 1.062771580E+03	 1.558300000E+04
 1.063335992E+03	 1.566525000E+04
 1.063900347E+03	 1.556250000E+04
 1.064464643E+03	 1.560900000E+04
 1.065028882E+03	 1.551750000E+04
 1.065593063E+03	 1.566150000E+04
 1.066157187E+03	 1.570625000E+04
 1.066721252E+03	 1.577750000E+04
 1.067285260E+03	 1.571850000E+04
 1.067849210E+03	 1.575350000E+04
 1.068413102E+03	 1.568400000E+04
 1.068976936E+03	 1.583875000E+04
 1.069540713E+03	 1.574925000E+04
 1.070104431E+03	 1.586150000E+04
 1.070668092E+03	 1.579825000E+04
 1.071231696E+03	 1.587850000E+04
 1.071795241E+03	 1.586825000E+04
 1.072358729E+03	 1.590575000E+04
 1.072922159E+03	 1.587175000E+04
 1.073485531E+03	 1.603625000E+04
 1.074048845E+03	 1.590850000E+04
 1.074612102E+03	 1.597875000E+04
 1.075175301E+03	 1.596650000E+04
 1.075738442E+03	 1.606700000E+04
 1.076301525E+03	 1.597375000E+04
 1.076864551E+03	 1.599500000E+04
 1.077427519E+03	 1.592225000E+04
 1.077990429E+03	 1.610450000E+04
 1.078553281E+03	 1.605050000E+04
 1.079116076E+03	 1.608225000E+04
 1.079678813E+03	 1.613200000E+04
 1.080241492E+03	 1.617350000E+04
 1.080804114E+03	 1.613800000E+04
 1.081366678E+03	 1.613075000E+04
 1.081929184E+03	 1.603200000E+04
 1.082491633E+03	 1.620625000E+04
 1.083054024E+03	 1.619200000E+04
 1.083616357E+03	 1.622400000E+04
 1.084178632E+03	 1.618625000E+04
 1.084740850E+03	 1.629525000E+04
 1.085303010E+03	 1.622025000E+04
 1.085865113E+03	 1.629450000E+04
 1.086427158E+03	 1.630475000E+04
 1.086989145E+03	 1.629825000E+04
 1.087551074E+03	 1.627800000E+04
 1.088112946E+03	 1.638625000E+04
 1.088674760E+03	 1.633325000E+04
 1.089236517E+03	 1.644050000E+04
 1.089798216E+03	 1.629200000E+04
 1.090359857E+03	 1.637800000E+04
 1.090921440E+03	 1.637525000E+04
 1.091482966E+03	 1.643475000E+04
 1.092044435E+03	 1.627950000E+04
 1.092605845E+03	 1.652325000E+04
 1.093167199E+03	 1.640750000E+04
 1.093728494E+03	 1.651225000E+04
 1.094289732E+03	 1.644150000E+04
 1.094850912E+03	 1.649800000E+04
 1.095412035E+03	 1.646300000E+04
 1.095973100E+03	 1.648725000E+04
 1.096534107E+03	 1.642525000E+04
 1.097095057E+03	 1.657100000E+04
 1.097655950E+03	 1.653250000E+04
 1.098216784E+03	 1.661250000E+04
 1.098777561E+03	 1.654025000E+04
 1.099338281E+03	 1.659675000E+04
 1.099898943E+03	 1.656625000E+04
 1.100459547E+03	 1.662525000E+04
 1.101020094E+03	 1.663950000E+04
 1.101580584E+03	 1.660500000E+04
 1.102141015E+03	 1.653425000E+04
 1.102701389E+03	 1.670650000E+04
 1.103261706E+03	 1.660100000E+04
 1.103821965E+03	 1.670000000E+04
 1.104382167E+03	 1.664725000E+04
 1.104942311E+03	 1.672700000E+04
 1.105502397E+03	 1.658400000E+04
 1.106062426E+03	 1.672400000E+04
 1.106622398E+03	 1.669875000E+04
 1.107182312E+03	 1.675950000E+04
 1.107742168E+03	 1.671525000E+04
 1.108301967E+03	 1.674825000E+04
 1.108861708E+03	 1.668050000E+04
 1.109421392E+03	 1.672225000E+04
 1.109981019E+03	 1.673525000E+04
 1.110540587E+03	 1.681475000E+04
 1.111100099E+03	 1.673750000E+04
 1.111659553E+03	 1.682100000E+04
 1.112218949E+03	 1.677325000E+04
 1.112778288E+03	 1.684875000E+04
 1.113337570E+03	 1.687575000E+04
 1.113896794E+03	 1.689400000E+04
 1.114455960E+03	 1.690050000E+04
 1.115015069E+03	 1.700175000E+04
 1.115574121E+03	 1.687775000E+04
 1.116133115E+03	 1.697725000E+04
 1.116692052E+03	 1.688700000E+04
 1.117250931E+03	 1.702475000E+04
 1.117809753E+03	 1.688650000E+04
 1.118368517E+03	 1.698600000E+04
 1.118927224E+03	 1.702700000E+04
 1.119485873E+03	 1.707750000E+04
 1.120044465E+03	 1.707525000E+04
 1.120603000E+03	 1.705600000E+04
 1.121161477E+03	 1.708550000E+04
 1.121719897E+03	 1.717450000E+04
 1.122278259E+03	 1.705575000E+04
 1.122836564E+03	 1.713175000E+04
 1.123394812E+03	 1.718175000E+04
 1.123953002E+03	 1.721325000E+04
 1.124511135E+03	 1.713050000E+04
 1.125069210E+03	 1.726525000E+04
 1.125627228E+03	 1.716150000E+04
 1.126185189E+03	 1.726275000E+04
 1.126743092E+03	 1.732775000E+04
 1.127300938E+03	 1.733000000E+04
 1.127858726E+03	 1.733275000E+04
 1.128416457E+03	 1.730750000E+04
 1.128974131E+03	 1.734875000E+04
 1.129531748E+03	 1.736975000E+04
 1.130089307E+03	 1.735725000E+04
 1.130646808E+03	 1.744300000E+04
 1.131204252E+03	 1.742750000E+04
 1.131761639E+03	 1.758150000E+04
 1.132318969E+03	 1.754575000E+04
 1.132876241E+03	 1.759850000E+04
 1.133433456E+03	 1.759500000E+04
 1.133990614E+03	 1.755725000E+04
 1.134547714E+03	 1.761950000E+04
 1.135104757E+03	 1.763650000E+04
 1.135661743E+03	 1.762775000E+04
 1.136218671E+03	 1.771725000E+04
 1.136775542E+03	 1.761050000E+04
 1.137332356E+03	 1.776400000E+04
 1.137889112E+03	 1.771175000E+04
 1.138445811E+03	 1.779800000E+04
 1.139002453E+03	 1.771075000E+04
 1.139559037E+03	 1.783175000E+04
 1.140115565E+03	 1.774150000E+04
 1.140672035E+03	 1.788200000E+04
 1.141228447E+03	 1.783825000E+04
 1.141784803E+03	 1.789825000E+04
 1.142341101E+03	 1.786150000E+04
 1.142897342E+03	 1.790950000E+04
 1.143453525E+03	 1.785750000E+04
 1.144009651E+03	 1.797975000E+04
 1.144565721E+03	 1.802525000E+04
 1.145121732E+03	 1.804250000E+04
 1.145677687E+03	 1.801350000E+04
 1.146233584E+03	 1.815175000E+04
 1.146789424E+03	 1.812600000E+04
 1.147345207E+03	 1.814025000E+04
 1.147900933E+03	 1.819600000E+04
 1.148456601E+03	 1.820975000E+04
 1.149012212E+03	 1.817750000E+04
 1.149567766E+03	 1.830775000E+04
 1.150123263E+03	 1.832425000E+04
 1.150678702E+03	 1.829825000E+04
 1.151234085E+03	 1.836400000E+04
 1.151789410E+03	 1.837725000E+04
 1.152344678E+03	 1.851900000E+04
 1.152899888E+03	 1.848500000E+04
 1.153455042E+03	 1.832650000E+04
 1.154010138E+03	 1.844225000E+04
 1.154565177E+03	 1.846150000E+04
 1.155120159E+03	 1.853650000E+04
 1.155675084E+03	 1.854650000E+04
 1.156229951E+03	 1.867275000E+04
 1.156784762E+03	 1.864925000E+04
 1.157339515E+03	 1.863625000E+04
 1.157894211E+03	 1.870500000E+04
 1.158448850E+03	 1.875700000E+04
 1.159003432E+03	 1.875225000E+04
 1.159557956E+03	 1.869925000E+04
 1.160112424E+03	 1.874975000E+04
 1.160666834E+03	 1.877350000E+04
 1.161221187E+03	 1.880975000E+04
 1.161775483E+03	 1.883150000E+04
 1.162329722E+03	 1.887800000E+04
 1.162883904E+03	 1.892550000E+04
 1.163438029E+03	 1.891450000E+04
 1.163992096E+03	 1.895475000E+04
 1.164546107E+03	 1.885275000E+04
 1.165100060E+03	 1.897550000E+04
 1.165653956E+03	 1.904175000E+04
 1.166207795E+03	 1.890150000E+04
 1.166761577E+03	 1.909225000E+04
 1.167315302E+03	 1.907925000E+04
 1.167868970E+03	 1.909925000E+04
 1.168422581E+03	 1.912300000E+04
 1.168976134E+03	 1.910525000E+04
 1.169529631E+03	 1.909600000E+04
 1.170083070E+03	 1.925425000E+04
 1.170636453E+03	 1.923225000E+04
 1.171189778E+03	 1.922000000E+04
 1.171743046E+03	 1.914775000E+04
 1.172296257E+03	 1.926250000E+04
 1.172849412E+03	 1.916975000E+04
 1.173402509E+03	 1.926725000E+04
 1.173955549E+03	 1.931425000E+04
 1.174508532E+03	 1.936800000E+04
 1.175061458E+03	 1.934525000E+04
 1.175614327E+03	 1.942525000E+04
 1.176167138E+03	 1.936275000E+04
 1.176719893E+03	 1.945875000E+04
 1.177272591E+03	 1.942550000E+04
 1.177825232E+03	 1.948075000E+04
 1.178377816E+03	 1.947800000E+04
 1.178930342E+03	 1.961750000E+04
 1.179482812E+03	 1.946750000E+04
 1.180035225E+03	 1.963700000E+04
 1.180587581E+03	 1.950700000E+04
 1.181139879E+03	 1.960900000E+04
 1.181692121E+03	 1.958750000E+04
 1.182244306E+03	 1.958325000E+04
 1.182796434E+03	 1.968275000E+04
 1.183348504E+03	 1.960550000E+04
 1.183900518E+03	 1.969925000E+04
 1.184452475E+03	 1.963900000E+04
 1.185004375E+03	 1.979050000E+04
 1.185556218E+03	 1.973625000E+04
 1.186108004E+03	 1.972725000E+04
 1.186659733E+03	 1.977150000E+04
 1.187211405E+03	 1.970150000E+04
 1.187763020E+03	 1.976825000E+04
 1.188314578E+03	 1.980875000E+04
 1.188866079E+03	 1.988500000E+04
 1.189417523E+03	 1.986625000E+04
 1.189968910E+03	 1.988750000E+04
 1.190520241E+03	 1.991625000E+04
 1.191071514E+03	 1.987925000E+04
 1.191622731E+03	 1.997050000E+04
 1.192173890E+03	 1.992450000E+04
 1.192724993E+03	 2.002950000E+04
 1.193276039E+03	 2.001100000E+04
 1.193827027E+03	 2.008875000E+04
 1.194377959E+03	 2.002150000E+04
 1.194928834E+03	 2.009350000E+04
 1.195479653E+03	 2.007475000E+04
 1.196030414E+03	 2.013300000E+04
 1.196581118E+03	 2.012575000E+04
 1.197131766E+03	 2.011150000E+04
 1.197682356E+03	 2.022475000E+04
 1.198232890E+03	 2.014775000E+04
 1.198783367E+03	 2.023100000E+04
 1.199333786E+03	 2.018850000E+04
 1.199884150E+03	 2.031875000E+04
 1.200434456E+03	 2.024150000E+04
 1.200984705E+03	 2.021950000E+04
 1.201534898E+03	 2.017100000E+04
 1.202085033E+03	 2.024350000E+04
 1.202635112E+03	 2.024500000E+04
 1.203185134E+03	 2.033375000E+04
 1.203735099E+03	 2.028475000E+04
 1.204285007E+03	 2.039450000E+04
 1.204834859E+03	 2.034350000E+04
 1.205384653E+03	 2.052050000E+04
 1.205934391E+03	 2.042725000E+04
 1.206484072E+03	 2.043775000E+04
 1.207033696E+03	 2.042375000E+04
 1.207583263E+03	 2.048375000E+04
 1.208132774E+03	 2.044625000E+04
 1.208682228E+03	 2.049250000E+04
 1.209231624E+03	 2.058525000E+04
 1.209780965E+03	 2.052900000E+04
 1.210330248E+03	 2.051300000E+04
 1.210879474E+03	 2.059175000E+04
 1.211428644E+03	 2.056925000E+04
 1.211977757E+03	 2.052000000E+04
 1.212526813E+03	 2.062850000E+04
 1.213075813E+03	 2.066200000E+04
 1.213624755E+03	 2.068550000E+04
 1.214173641E+03	 2.063825000E+04
 1.214722470E+03	 2.059825000E+04
 1.215271242E+03	 2.066975000E+04
 1.215819958E+03	 2.073025000E+04
 1.216368617E+03	 2.076575000E+04
 1.216917219E+03	 2.080925000E+04
 1.217465764E+03	 2.069400000E+04
 1.218014253E+03	 2.080775000E+04
 1.218562685E+03	 2.068875000E+04
 1.219111060E+03	 2.078325000E+04
 1.219659378E+03	 2.077900000E+04
 1.220207640E+03	 2.084150000E+04
 1.220755845E+03	 2.081875000E+04
 1.221303993E+03	 2.091125000E+04
 1.221852085E+03	 2.084650000E+04
 1.222400119E+03	 2.095025000E+04
 1.222948097E+03	 2.085500000E+04
 1.223496019E+03	 2.093500000E+04
 1.224043883E+03	 2.089300000E+04
 1.224591691E+03	 2.100850000E+04
 1.225139443E+03	 2.093825000E+04
 1.225687137E+03	 2.103575000E+04
 1.226234775E+03	 2.095350000E+04
 1.226782357E+03	 2.097725000E+04
 1.227329881E+03	 2.101125000E+04
 1.227877349E+03	 2.110025000E+04
 1.228424760E+03	 2.105700000E+04
 1.228972115E+03	 2.104700000E+04
 1.229519413E+03	 2.116975000E+04
 1.230066654E+03	 2.116850000E+04
 1.230613839E+03	 2.123225000E+04
 1.231160967E+03	 2.121950000E+04
 1.231708038E+03	 2.131250000E+04
 1.232255053E+03	 2.122750000E+04
 1.232802011E+03	 2.129225000E+04
 1.233348912E+03	 2.118950000E+04
 1.233895757E+03	 2.139675000E+04
 1.234442545E+03	 2.122625000E+04
 1.234989277E+03	 2.136300000E+04
 1.235535951E+03	 2.135475000E+04
 1.236082570E+03	 2.146475000E+04
 1.236629131E+03	 2.133600000E+04
 1.237175636E+03	 2.140250000E+04
 1.237722085E+03	 2.133775000E+04
 1.238268477E+03	 2.139100000E+04
 1.238814812E+03	 2.145300000E+04
 1.239361091E+03	 2.150425000E+04
 1.239907313E+03	 2.144725000E+04
 1.240453478E+03	 2.157175000E+04
 1.240999587E+03	 2.145150000E+04
 1.241545640E+03	 2.157425000E+04
 1.242091636E+03	 2.155350000E+04
 1.242637575E+03	 2.157725000E+04
 1.243183457E+03	 2.148600000E+04
 1.243729284E+03	 2.160675000E+04
 1.244275053E+03	 2.163375000E+04
 1.244820766E+03	 2.168900000E+04
 1.245366423E+03	 2.176275000E+04
 1.245912022E+03	 2.170100000E+04
 1.246457566E+03	 2.166950000E+04
 1.247003053E+03	 2.170025000E+04
 1.247548483E+03	 2.180325000E+04
 1.248093857E+03	 2.171575000E+04
 1.248639174E+03	 2.179150000E+04
 1.249184435E+03	 2.170100000E+04
 1.249729639E+03	 2.186075000E+04
 1.250274787E+03	 2.191525000E+04
 1.250819878E+03	 2.194650000E+04
 1.251364912E+03	 2.181400000E+04
 1.251909891E+03	 2.197425000E+04
 1.252454812E+03	 2.189175000E+04
 1.252999677E+03	 2.197650000E+04
 1.253544486E+03	 2.193200000E+04
 1.254089238E+03	 2.205350000E+04
 1.254633934E+03	 2.190425000E+04
 1.255178573E+03	 2.201850000E+04
 1.255723156E+03	 2.201875000E+04
 1.256267682E+03	 2.220150000E+04
 1.256812152E+03	 2.194600000E+04
 1.257356565E+03	 2.206475000E+04
 1.257900922E+03	 2.215100000E+04
 1.258445223E+03	 2.219175000E+04
 1.258989467E+03	 2.215275000E+04
 1.259533654E+03	 2.224800000E+04
 1.260077785E+03	 2.227725000E+04
 1.260621860E+03	 2.214125000E+04
 1.261165878E+03	 2.229525000E+04
 1.261709840E+03	 2.213575000E+04
 1.262253745E+03	 2.213500000E+04
 1.262797594E+03	 2.233025000E+04
 1.263341386E+03	 2.225175000E+04
 1.263885123E+03	 2.233250000E+04
 1.264428802E+03	 2.231000000E+04
 1.264972425E+03	 2.233975000E+04
 1.265515992E+03	 2.236775000E+04
 1.266059503E+03	 2.228925000E+04
 1.266602957E+03	 2.233950000E+04
 1.267146354E+03	 2.235325000E+04
 1.267689696E+03	 2.241150000E+04
 1.268232980E+03	 2.227225000E+04
 1.268776209E+03	 2.255225000E+04
 1.269319381E+03	 2.240325000E+04
 1.269862497E+03	 2.253450000E+04
 1.270405556E+03	 2.246350000E+04
 1.270948559E+03	 2.254900000E+04
 1.271491506E+03	 2.243400000E+04
 1.272034396E+03	 2.246175000E+04
 1.272577230E+03	 2.263550000E+04
 1.273120007E+03	 2.262875000E+04
 1.273662728E+03	 2.257725000E+04
 1.274205393E+03	 2.266175000E+04
 1.274748002E+03	 2.255700000E+04
 1.275290554E+03	 2.272200000E+04
 1.275833050E+03	 2.271300000E+04
 1.276375489E+03	 2.263000000E+04
 1.276917872E+03	 2.268450000E+04
 1.277460199E+03	 2.281850000E+04
 1.278002470E+03	 2.265400000E+04
 1.278544684E+03	 2.277375000E+04
 1.279086842E+03	 2.275450000E+04
 1.279628943E+03	 2.284575000E+04
 1.280170989E+03	 2.286400000E+04
 1.280712978E+03	 2.280550000E+04
 1.281254910E+03	 2.284200000E+04
 1.281796787E+03	 2.284575000E+04
 1.282338607E+03	 2.290625000E+04
 1.282880371E+03	 2.279575000E+04
 1.283422078E+03	 2.293850000E+04
 1.283963729E+03	 2.290300000E+04
 1.284505324E+03	 2.301075000E+04
 1.285046863E+03	 2.274500000E+04
 1.285588345E+03	 2.300550000E+04
 1.286129772E+03	 2.293225000E+04
 1.286671142E+03	 2.296500000E+04
 1.287212455E+03	 2.304250000E+04
 1.287753713E+03	 2.301350000E+04
 1.288294914E+03	 2.304900000E+04
 1.288836059E+03	 2.308275000E+04
 1.289377147E+03	 2.301725000E+04
 1.289918180E+03	 2.315425000E+04
 1.290459156E+03	 2.316625000E+04
 1.291000076E+03	 2.319075000E+04
 1.291540940E+03	 2.317825000E+04
 1.292081747E+03	 2.318000000E+04
 1.292622499E+03	 2.315400000E+04
 1.293163194E+03	 2.324300000E+04
 1.293703833E+03	 2.315600000E+04
 1.294244415E+03	 2.309850000E+04
 1.294784942E+03	 2.329425000E+04
 1.295325412E+03	 2.323700000E+04
 1.295865826E+03	 2.333700000E+04
 1.296406184E+03	 2.321350000E+04
 1.296946486E+03	 2.329400000E+04
 1.297486731E+03	 2.327575000E+04
 1.298026921E+03	 2.333575000E+04
 1.298567054E+03	 2.321075000E+04
 1.299107131E+03	 2.338275000E+04
 1.299647152E+03	 2.326300000E+04
 1.300187116E+03	 2.351175000E+04
 1.300727025E+03	 2.339500000E+04
 1.301266877E+03	 2.350600000E+04
 1.301806673E+03	 2.333650000E+04
 1.302346413E+03	 2.342675000E+04
 1.302886097E+03	 2.347375000E+04
 1.303425725E+03	 2.359325000E+04
 1.303965297E+03	 2.352600000E+04
 1.304504812E+03	 2.360850000E+04
 1.305044272E+03	 2.348275000E+04
 1.305583675E+03	 2.361375000E+04
 1.306123022E+03	 2.358900000E+04
 1.306662313E+03	 2.360150000E+04
 1.307201548E+03	 2.364775000E+04
 1.307740727E+03	 2.368025000E+04
 1.308279849E+03	 2.361325000E+04
 1.308818916E+03	 2.366200000E+04
 1.309357926E+03	 2.380400000E+04
 1.309896881E+03	 2.362825000E+04
 1.310435779E+03	 2.369775000E+04
 1.310974621E+03	 2.361950000E+04
 1.311513407E+03	 2.377650000E+04
 1.312052137E+03	 2.361075000E+04
 1.312590811E+03	 2.376800000E+04
 1.313129429E+03	 2.372025000E+04
 1.313667991E+03	 2.398675000E+04
 1.314206497E+03	 2.371175000E+04
 1.314744946E+03	 2.390750000E+04
 1.315283340E+03	 2.384125000E+04
 1.315821678E+03	 2.392075000E+04
 1.316359959E+03	 2.380025000E+04
 1.316898184E+03	 2.391600000E+04
 1.317436354E+03	 2.384525000E+04
 1.317974467E+03	 2.392275000E+04
 1.318512525E+03	 2.393075000E+04
 1.319050526E+03	 2.391200000E+04
 1.319588471E+03	 2.397175000E+04
 1.320126360E+03	 2.390900000E+04
 1.320664194E+03	 2.410275000E+04
 1.321201971E+03	 2.391050000E+04
 1.321739692E+03	 2.415950000E+04
 1.322277357E+03	 2.391825000E+04
 1.322814967E+03	 2.414750000E+04
 1.323352520E+03	 2.398050000E+04
 1.323890017E+03	 2.411975000E+04
 1.324427458E+03	 2.403325000E+04
 1.324964843E+03	 2.420725000E+04
 1.325502173E+03	 2.410100000E+04
 1.326039446E+03	 2.429250000E+04
 1.326576663E+03	 2.413600000E+04
 1.327113824E+03	 2.427975000E+04
 1.327650930E+03	 2.421075000E+04
 1.328187979E+03	 2.411725000E+04
 1.328724972E+03	 2.412875000E+04
 1.329261910E+03	 2.421775000E+04
 1.329798791E+03	 2.424825000E+04
 1.330335617E+03	 2.425325000E+04
 1.330872386E+03	 2.434500000E+04
 1.331409100E+03	 2.419400000E+04
 1.331945758E+03	 2.430425000E+04
 1.332482360E+03	 2.424525000E+04
 1.333018905E+03	 2.440625000E+04
 1.333555395E+03	 2.425075000E+04
 1.334091829E+03	 2.449000000E+04
 1.334628207E+03	 2.430250000E+04
 1.335164529E+03	 2.446000000E+04
 1.335700796E+03	 2.432375000E+04
 1.336237006E+03	 2.445975000E+04
 1.336773160E+03	 2.432975000E+04
 1.337309259E+03	 2.459575000E+04
 1.337845301E+03	 2.452475000E+04
 1.338381288E+03	 2.461550000E+04
 1.338917219E+03	 2.464300000E+04
 1.339453094E+03	 2.447050000E+04
 1.339988913E+03	 2.454650000E+04
 1.340524676E+03	 2.451275000E+04
 1.341060383E+03	 2.455100000E+04
 1.341596034E+03	 2.438275000E+04
 1.342131630E+03	 2.450625000E+04
 1.342667170E+03	 2.448450000E+04
 1.343202653E+03	 2.459125000E+04
 1.343738081E+03	 2.454875000E+04
 1.344273453E+03	 2.467100000E+04
 1.344808770E+03	 2.448775000E+04
 1.345344030E+03	 2.469950000E+04
 1.345879235E+03	 2.459725000E+04
 1.346414383E+03	 2.478450000E+04
 1.346949476E+03	 2.462225000E+04
 1.347484513E+03	 2.479850000E+04
 1.348019494E+03	 2.454700000E+04
 1.348554420E+03	 2.479550000E+04
 1.349089289E+03	 2.474575000E+04
 1.349624103E+03	 2.474200000E+04
 1.350158861E+03	 2.480675000E+04
 1.350693563E+03	 2.476675000E+04
 1.351228209E+03	 2.480025000E+04
 1.351762800E+03	 2.484300000E+04
 1.352297334E+03	 2.486275000E+04
 1.352831813E+03	 2.487800000E+04
 1.353366236E+03	 2.485475000E+04
 1.353900604E+03	 2.485650000E+04
 1.354434915E+03	 2.489750000E+04
 1.354969171E+03	 2.476100000E+04
 1.355503371E+03	 2.490325000E+04
 1.356037515E+03	 2.482250000E+04
 1.356571604E+03	 2.510375000E+04
 1.357105636E+03	 2.477850000E+04
 1.357639613E+03	 2.506750000E+04
 1.358173535E+03	 2.490750000E+04
 1.358707400E+03	 2.506525000E+04
 1.359241210E+03	 2.500900000E+04
 1.359774964E+03	 2.505550000E+04
 1.360308662E+03	 2.492775000E+04
 1.360842304E+03	 2.498100000E+04
 1.361375891E+03	 2.502275000E+04
 1.361909422E+03	 2.495650000E+04
 1.362442897E+03	 2.505800000E+04
 1.362976317E+03	 2.503750000E+04
 1.363509680E+03	 2.516275000E+04
 1.364042989E+03	 2.499575000E+04
 1.364576241E+03	 2.512050000E+04
 1.365109438E+03	 2.504650000E+04
 1.365642579E+03	 2.515625000E+04
 1.366175664E+03	 2.508175000E+04
 1.366708693E+03	 2.521725000E+04
 1.367241667E+03	 2.511125000E+04
 1.367774585E+03	 2.525950000E+04
 1.368307448E+03	 2.514375000E+04
 1.368840255E+03	 2.531775000E+04
 1.369373006E+03	 2.521275000E+04
 1.369905701E+03	 2.528625000E+04
 1.370438341E+03	 2.533475000E+04
 1.370970925E+03	 2.516800000E+04
 1.371503454E+03	 2.522175000E+04
 1.372035926E+03	 2.525350000E+04
 1.372568344E+03	 2.526725000E+04
 1.373100705E+03	 2.520125000E+04
 1.373633011E+03	 2.541525000E+04
 1.374165261E+03	 2.522500000E+04
 1.374697456E+03	 2.542850000E+04
 1.375229595E+03	 2.521075000E+04
 1.375761678E+03	 2.545200000E+04
 1.376293705E+03	 2.531100000E+04
 1.376825677E+03	 2.547925000E+04
 1.377357594E+03	 2.535425000E+04
 1.377889455E+03	 2.551425000E+04
 1.378421260E+03	 2.535025000E+04
 1.378953009E+03	 2.543525000E+04
 1.379484703E+03	 2.544250000E+04
 1.380016342E+03	 2.544600000E+04
 1.380547924E+03	 2.545900000E+04
 1.381079452E+03	 2.541875000E+04
 1.381610923E+03	 2.558625000E+04
 1.382142339E+03	 2.539450000E+04
 1.382673699E+03	 2.568050000E+04
 1.383205004E+03	 2.547650000E+04
 1.383736253E+03	 2.564000000E+04
 1.384267447E+03	 2.555300000E+04
 1.384798585E+03	 2.565725000E+04
 1.385329668E+03	 2.545700000E+04
 1.385860695E+03	 2.576825000E+04
 1.386391666E+03	 2.545850000E+04
 1.386922582E+03	 2.574550000E+04
 1.387453442E+03	 2.550250000E+04
 1.387984247E+03	 2.573025000E+04
 1.388514996E+03	 2.569500000E+04
 1.389045690E+03	 2.574125000E+04
 1.389576328E+03	 2.567600000E+04
 1.390106910E+03	 2.554675000E+04
 1.390637437E+03	 2.582300000E+04
 1.391167909E+03	 2.566825000E+04
 1.391698325E+03	 2.592175000E+04
 1.392228685E+03	 2.565750000E+04
 1.392758990E+03	 2.595275000E+04
 1.393289240E+03	 2.561025000E+04
 1.393819434E+03	 2.591850000E+04
 1.394349572E+03	 2.579150000E+04
 1.394879655E+03	 2.592950000E+04
 1.395409683E+03	 2.590025000E+04
 1.395939655E+03	 2.596175000E+04
 1.396469571E+03	 2.592925000E+04
 1.396999432E+03	 2.600875000E+04
 1.397529237E+03	 2.596425000E+04
 1.398058987E+03	 2.592000000E+04
 1.398588682E+03	 2.591800000E+04
 1.399118321E+03	 2.577900000E+04
 1.399647905E+03	 2.617900000E+04
 1.400177433E+03	 2.593875000E+04
 1.400706906E+03	 2.609275000E+04
 1.401236323E+03	 2.590700000E+04
 1.401765685E+03	 2.616725000E+04
 1.402294991E+03	 2.597500000E+04
 1.402824242E+03	 2.618075000E+04
 1.403353437E+03	 2.613475000E+04
 1.403882577E+03	 2.609150000E+04
 1.404411662E+03	 2.613050000E+04
 1.404940691E+03	 2.624275000E+04
 1.405469665E+03	 2.619475000E+04
 1.405998583E+03	 2.619350000E+04
 1.406527446E+03	 2.627750000E+04
 1.407056253E+03	 2.619250000E+04
 1.407585005E+03	 2.632700000E+04
 1.408113702E+03	 2.620775000E+04
 1.408642343E+03	 2.631625000E+04
 1.409170929E+03	 2.620625000E+04
 1.409699460E+03	 2.639650000E+04
 1.410227935E+03	 2.620600000E+04
 1.410756354E+03	 2.639750000E+04
 1.411284719E+03	 2.625300000E+04
 1.411813028E+03	 2.637400000E+04
 1.412341281E+03	 2.634525000E+04
 1.412869479E+03	 2.638275000E+04
 1.413397622E+03	 2.631375000E+04
 1.413925710E+03	 2.641400000E+04
 1.414453742E+03	 2.638975000E+04
 1.414981718E+03	 2.645000000E+04
 1.415509640E+03	 2.645825000E+04
 1.416037506E+03	 2.635125000E+04
 1.416565316E+03	 2.646575000E+04
 1.417093072E+03	 2.649250000E+04
 1.417620772E+03	 2.650500000E+04
 1.418148416E+03	 2.641800000E+04
 1.418676005E+03	 2.650100000E+04
 1.419203539E+03	 2.645875000E+04
 1.419731018E+03	 2.668525000E+04
 1.420258441E+03	 2.652275000E+04
 1.420785809E+03	 2.672925000E+04
 1.421313122E+03	 2.667450000E+04
 1.421840379E+03	 2.668825000E+04
 1.422367582E+03	 2.665550000E+04
 1.422894728E+03	 2.665375000E+04
 1.423421820E+03	 2.667150000E+04
 1.423948856E+03	 2.664875000E+04
 1.424475837E+03	 2.676650000E+04
 1.425002762E+03	 2.673475000E+04
 1.425529633E+03	 2.692400000E+04
 1.426056448E+03	 2.674525000E+04
 1.426583207E+03	 2.687300000E+04
 1.427109912E+03	 2.672075000E+04
 1.427636561E+03	 2.685650000E+04
 1.428163155E+03	 2.669250000E+04
 1.428689694E+03	 2.679975000E+04
 1.429216177E+03	 2.685075000E+04
 1.429742605E+03	 2.682575000E+04
 1.430268978E+03	 2.684875000E+04
 1.430795296E+03	 2.688625000E+04
 1.431321558E+03	 2.690425000E+04
 1.431847765E+03	 2.688225000E+04
 1.432373917E+03	 2.695525000E+04
 1.432900014E+03	 2.685100000E+04
 1.433426056E+03	 2.692400000E+04
 1.433952042E+03	 2.680300000E+04
 1.434477973E+03	 2.694575000E+04
 1.435003849E+03	 2.692925000E+04
 1.435529669E+03	 2.698750000E+04
 1.436055435E+03	 2.687800000E+04
 1.436581145E+03	 2.688675000E+04
 1.437106800E+03	 2.689750000E+04
 1.437632399E+03	 2.695950000E+04
 1.438157944E+03	 2.695450000E+04
 1.438683433E+03	 2.703650000E+04
 1.439208868E+03	 2.693075000E+04
 1.439734247E+03	 2.697825000E+04
 1.440259570E+03	 2.690800000E+04
 1.440784839E+03	 2.699900000E+04
 1.441310053E+03	 2.705375000E+04
 1.441835211E+03	 2.712300000E+04
 1.442360314E+03	 2.704725000E+04
 1.442885362E+03	 2.698775000E+04
 1.443410355E+03	 2.712075000E+04
 1.443935292E+03	 2.694550000E+04
 1.444460175E+03	 2.706875000E+04
 1.444985002E+03	 2.710325000E+04
 1.445509774E+03	 2.703200000E+04
 1.446034491E+03	 2.706175000E+04
 1.446559153E+03	 2.706750000E+04
 1.447083760E+03	 2.716250000E+04
 1.447608312E+03	 2.711875000E+04
 1.448132808E+03	 2.695400000E+04
 1.448657250E+03	 2.709450000E+04
 1.449181636E+03	 2.705800000E+04
 1.449705967E+03	 2.710950000E+04
 1.450230243E+03	 2.712325000E+04
 1.450754464E+03	 2.709750000E+04
 1.451278630E+03	 2.711900000E+04
 1.451802741E+03	 2.713550000E+04
 1.452326797E+03	 2.708850000E+04
 1.452850797E+03	 2.711300000E+04
 1.453374743E+03	 2.718800000E+04
 1.453898633E+03	 2.721975000E+04
 1.454422468E+03	 2.723325000E+04
 1.454946249E+03	 2.712450000E+04
 1.455469974E+03	 2.714800000E+04
 1.455993644E+03	 2.720375000E+04
 1.456517259E+03	 2.725600000E+04
 1.457040819E+03	 2.728800000E+04
 1.457564324E+03	 2.732125000E+04
 1.458087773E+03	 2.731625000E+04
 1.458611168E+03	 2.718525000E+04
 1.459134508E+03	 2.732000000E+04
 1.459657793E+03	 2.718900000E+04
 1.460181022E+03	 2.724400000E+04
 1.460704197E+03	 2.726900000E+04
 1.461227316E+03	 2.728300000E+04
 1.461750381E+03	 2.732000000E+04
 1.462273390E+03	 2.738250000E+04
 1.462796345E+03	 2.714350000E+04
 1.463319244E+03	 2.735875000E+04
 1.463842089E+03	 2.732150000E+04
 1.464364878E+03	 2.722625000E+04
 1.464887613E+03	 2.729475000E+04
 1.465410292E+03	 2.727625000E+04
 1.465932916E+03	 2.730150000E+04
 1.466455486E+03	 2.717900000E+04
 1.466978000E+03	 2.738675000E+04
 1.467500460E+03	 2.728625000E+04
 1.468022864E+03	 2.724075000E+04
 1.468545214E+03	 2.728975000E+04
 1.469067508E+03	 2.736625000E+04
 1.469589748E+03	 2.732600000E+04
 1.470111932E+03	 2.739075000E+04
 1.470634062E+03	 2.734675000E+04
 1.471156136E+03	 2.734425000E+04
 1.471678156E+03	 2.734275000E+04
 1.472200120E+03	 2.729975000E+04
 1.472722030E+03	 2.742725000E+04
 1.473243885E+03	 2.732325000E+04
 1.473765685E+03	 2.743175000E+04
 1.474287430E+03	 2.733825000E+04
 1.474809120E+03	 2.739100000E+04
 1.475330755E+03	 2.739750000E+04
 1.475852335E+03	 2.724750000E+04
 1.476373860E+03	 2.729250000E+04
 1.476895330E+03	 2.741450000E+04
 1.477416745E+03	 2.738150000E+04
 1.477938106E+03	 2.726250000E+04
 1.478459411E+03	 2.734575000E+04
 1.478980662E+03	 2.728075000E+04
 1.479501857E+03	 2.731425000E+04
 1.480022998E+03	 2.740400000E+04
 1.480544084E+03	 2.743225000E+04
 1.481065115E+03	 2.735725000E+04
 1.481586091E+03	 2.739100000E+04
 1.482107012E+03	 2.731350000E+04
 1.482627878E+03	 2.730925000E+04
 1.483148690E+03	 2.736575000E+04
 1.483669446E+03	 2.728275000E+04
 1.484190148E+03	 2.743300000E+04
 1.484710794E+03	 2.736425000E+04
 1.485231386E+03	 2.738175000E+04
 1.485751923E+03	 2.731675000E+04
 1.486272406E+03	 2.745025000E+04
 1.486792833E+03	 2.744150000E+04
 1.487313205E+03	 2.741625000E+04
 1.487833523E+03	 2.735125000E+04
 1.488353786E+03	 2.735325000E+04
 1.488873994E+03	 2.742300000E+04
 1.489394147E+03	 2.741600000E+04
 1.489914245E+03	 2.736150000E+04
 1.490434288E+03	 2.740875000E+04
 1.490954277E+03	 2.736100000E+04
 1.491474211E+03	 2.739100000E+04
 1.491994090E+03	 2.743400000E+04
 1.492513914E+03	 2.738325000E+04
 1.493033683E+03	 2.741125000E+04
 1.493553398E+03	 2.751100000E+04
 1.494073057E+03	 2.747150000E+04
 1.494592662E+03	 2.741925000E+04
 1.495112212E+03	 2.733925000E+04
 1.495631708E+03	 2.741850000E+04
 1.496151148E+03	 2.725500000E+04
 1.496670534E+03	 2.738125000E+04
 1.497189865E+03	 2.752475000E+04
 1.497709141E+03	 2.749075000E+04
 1.498228362E+03	 2.738650000E+04
 1.498747529E+03	 2.749400000E+04
 1.499266641E+03	 2.754050000E+04
 1.499785698E+03	 2.747375000E+04
 1.500304700E+03	 2.752950000E+04
 1.500823648E+03	 2.748825000E+04
 1.501342540E+03	 2.748800000E+04
 1.501861379E+03	 2.739725000E+04
 1.502380162E+03	 2.748100000E+04
 1.502898890E+03	 2.768300000E+04
 1.503417564E+03	 2.752625000E+04
 1.503936183E+03	 2.745800000E+04
 1.504454748E+03	 2.757825000E+04
 1.504973257E+03	 2.764225000E+04
 1.505491712E+03	 2.758675000E+04
 1.506010112E+03	 2.746225000E+04
 1.506528458E+03	 2.740550000E+04
 1.507046748E+03	 2.748950000E+04
 1.507564984E+03	 2.750575000E+04
 1.508083166E+03	 2.754675000E+04
 1.508601292E+03	 2.753875000E+04
 1.509119364E+03	 2.757375000E+04
 1.509637381E+03	 2.744825000E+04
 1.510155344E+03	 2.749050000E+04
 1.510673252E+03	 2.764000000E+04
 1.511191105E+03	 2.748375000E+04
 1.511708903E+03	 2.759050000E+04
 1.512226647E+03	 2.747600000E+04
 1.512744336E+03	 2.755225000E+04
 1.513261971E+03	 2.758600000E+04
 1.513779550E+03	 2.768775000E+04
 1.514297076E+03	 2.754925000E+04
 1.514814546E+03	 2.787600000E+04
 1.515331962E+03	 2.762725000E+04
 1.515849323E+03	 2.761400000E+04
 1.516366629E+03	 2.754600000E+04
 1.516883881E+03	 2.757275000E+04
 1.517401078E+03	 2.755650000E+04
 1.517918221E+03	 2.759300000E+04
 1.518435309E+03	 2.772400000E+04
 1.518952342E+03	 2.758725000E+04
 1.519469321E+03	 2.763875000E+04
 1.519986245E+03	 2.756000000E+04
 1.520503114E+03	 2.769025000E+04
 1.521019929E+03	 2.750750000E+04
 1.521536689E+03	 2.771125000E+04
 1.522053395E+03	 2.768900000E+04
 1.522570046E+03	 2.779975000E+04
 1.523086642E+03	 2.773175000E+04
 1.523603184E+03	 2.770925000E+04
 1.524119671E+03	 2.770200000E+04
 1.524636103E+03	 2.760075000E+04
 1.525152481E+03	 2.787850000E+04
 1.525668805E+03	 2.757200000E+04
 1.526185073E+03	 2.793100000E+04
 1.526701288E+03	 2.772950000E+04
 1.527217447E+03	 2.788725000E+04
 1.527733552E+03	 2.772975000E+04
 1.528249603E+03	 2.778050000E+04
 1.528765599E+03	 2.783125000E+04
 1.529281540E+03	 2.779000000E+04
 1.529797427E+03	 2.789500000E+04
 1.530313259E+03	 2.772350000E+04
 1.530829037E+03	 2.798025000E+04
 1.531344760E+03	 2.778925000E+04
 1.531860429E+03	 2.808650000E+04
 1.532376043E+03	 2.774900000E+04
 1.532891602E+03	 2.795675000E+04
 1.533407107E+03	 2.782375000E+04
 1.533922558E+03	 2.789575000E+04
 1.534437954E+03	 2.782600000E+04
 1.534953295E+03	 2.790675000E+04
 1.535468582E+03	 2.796675000E+04
 1.535983815E+03	 2.786950000E+04
 1.536498993E+03	 2.793200000E+04
 1.537014116E+03	 2.786375000E+04
 1.537529185E+03	 2.810600000E+04
 1.538044199E+03	 2.803300000E+04
 1.538559159E+03	 2.795975000E+04
 1.539074064E+03	 2.787575000E+04
 1.539588915E+03	 2.799850000E+04
 1.540103712E+03	 2.800750000E+04
 1.540618454E+03	 2.793175000E+04
 1.541133141E+03	 2.807850000E+04
 1.541647774E+03	 2.798675000E+04
 1.542162353E+03	 2.813775000E+04
 1.542676877E+03	 2.790500000E+04
 1.543191346E+03	 2.818050000E+04
 1.543705761E+03	 2.798150000E+04
 1.544220122E+03	 2.808875000E+04
 1.544734428E+03	 2.798125000E+04
 1.545248680E+03	 2.816475000E+04
 1.545762877E+03	 2.803300000E+04
 1.546277020E+03	 2.811975000E+04
 1.546791109E+03	 2.820100000E+04
 1.547305143E+03	 2.804650000E+04
 1.547819122E+03	 2.841400000E+04
 1.548333047E+03	 2.795600000E+04
 1.548846918E+03	 2.815250000E+04
 1.549360734E+03	 2.796900000E+04
 1.549874496E+03	 2.827275000E+04
 1.550388204E+03	 2.808425000E+04
 1.550901857E+03	 2.812950000E+04
 1.551415455E+03	 2.816175000E+04
 1.551929000E+03	 2.808850000E+04
 1.552442489E+03	 2.826050000E+04
 1.552955925E+03	 2.797750000E+04
 1.553469306E+03	 2.829050000E+04
 1.553982632E+03	 2.813225000E+04
 1.554495905E+03	 2.831900000E+04
 1.555009123E+03	 2.803975000E+04
 1.555522286E+03	 2.822150000E+04
 1.556035395E+03	 2.805750000E+04
 1.556548450E+03	 2.827400000E+04
 1.557061450E+03	 2.825675000E+04
 1.557574396E+03	 2.816700000E+04
 1.558087288E+03	 2.845175000E+04
 1.558600125E+03	 2.806900000E+04
 1.559112908E+03	 2.841300000E+04
 1.559625637E+03	 2.802850000E+04
 1.560138311E+03	 2.831550000E+04
 1.560650931E+03	 2.808575000E+04
 1.561163497E+03	 2.831375000E+04
 1.561676008E+03	 2.814975000E+04
 1.562188465E+03	 2.820025000E+04
 1.562700867E+03	 2.822375000E+04
 1.563213216E+03	 2.822175000E+04
 1.563725509E+03	 2.833150000E+04
 1.564237749E+03	 2.807500000E+04
 1.564749934E+03	 2.834575000E+04
 1.565262065E+03	 2.810425000E+04
 1.565774142E+03	 2.825700000E+04
 1.566286164E+03	 2.808075000E+04
 1.566798132E+03	 2.831875000E+04
 1.567310046E+03	 2.829675000E+04
 1.567821906E+03	 2.815925000E+04
 1.568333711E+03	 2.828700000E+04
 1.568845462E+03	 2.815250000E+04
 1.569357158E+03	 2.836650000E+04
 1.569868801E+03	 2.807250000E+04
 1.570380389E+03	 2.841950000E+04
 1.570891922E+03	 2.823350000E+04
 1.571403402E+03	 2.852950000E+04
 1.571914827E+03	 2.812075000E+04
 1.572426198E+03	 2.830750000E+04
 1.572937515E+03	 2.832625000E+04
 1.573448777E+03	 2.827750000E+04
 1.573959985E+03	 2.837725000E+04
 1.574471139E+03	 2.820225000E+04
 1.574982239E+03	 2.847075000E+04
 1.575493285E+03	 2.816075000E+04
 1.576004276E+03	 2.848925000E+04
 1.576515213E+03	 2.822025000E+04
 1.577026096E+03	 2.838250000E+04
 1.577536924E+03	 2.818175000E+04
 1.578047698E+03	 2.838600000E+04
 1.578558419E+03	 2.819375000E+04
 1.579069084E+03	 2.814700000E+04
 1.579579696E+03	 2.844300000E+04
 1.580090254E+03	 2.811075000E+04
 1.580600757E+03	 2.840950000E+04
 1.581111206E+03	 2.799675000E+04
 1.581621601E+03	 2.841800000E+04
 1.582131941E+03	 2.808750000E+04
 1.582642228E+03	 2.829075000E+04
 1.583152460E+03	 2.824200000E+04
 1.583662638E+03	 2.823000000E+04
 1.584172762E+03	 2.825150000E+04
 1.584682832E+03	 2.821225000E+04
 1.585192847E+03	 2.848800000E+04
 1.585702809E+03	 2.820125000E+04
 1.586212716E+03	 2.840350000E+04
 1.586722569E+03	 2.809200000E+04
 1.587232368E+03	 2.840775000E+04
 1.587742113E+03	 2.823550000E+04
 1.588251803E+03	 2.831300000E+04
 1.588761440E+03	 2.829700000E+04
 1.589271022E+03	 2.831825000E+04
 1.589780550E+03	 2.835700000E+04
 1.590290024E+03	 2.809350000E+04
 1.590799444E+03	 2.840150000E+04
 1.591308810E+03	 2.813250000E+04
 1.591818121E+03	 2.842900000E+04
 1.592327379E+03	 2.804300000E+04
