1043.547124	14947.5
1044.113505	14956.25
1044.679828	14937.75
1045.246093	14887.25
1045.8123	14928.0
1046.378449	14942.25
1046.94454	14933.25
1047.510573	15011.0
1048.076548	15043.25
1048.642465	15101.75
1049.208325	15052.25
1049.774126	15082.0
1050.339869	15106.75
1050.905555	15178.25
1051.471183	15171.0
1052.036752	15194.0
1052.602264	15130.75
1053.167718	15252.75
1053.733114	15320.25
1054.298452	15319.25
1054.863733	15325.5
1055.428955	15352.0
1055.994119	15286.5
1056.559226	15392.0
1057.124275	15408.25
1057.689266	15440.0
1058.254199	15433.25
1058.819074	15493.25
1059.383891	15428.0
1059.94865	15505.25
1060.513352	15496.0
1061.077996	15617.0
1061.642582	15562.5
1062.20711	15681.25
1062.77158	15583.0
1063.335992	15665.25
1063.900347	15562.5
1064.464643	15609.0
1065.028882	15517.5
1065.593063	15661.5
1066.157187	15706.25
1066.721252	15777.5
1067.28526	15718.5
1067.84921	15753.5
1068.413102	15684.0
1068.976936	15838.75
1069.540713	15749.25
1070.104431	15861.5
1070.668092	15798.25
1071.231696	15878.5
1071.795241	15868.25
1072.358729	15905.75
1072.922159	15871.75
1073.485531	16036.25
1074.048845	15908.5
1074.612102	15978.75
1075.175301	15966.5
1075.738442	16067.0
1076.301525	15973.75
1076.864551	15995.0
1077.427519	15922.25
1077.990429	16104.5
1078.553281	16050.5
1079.116076	16082.25
1079.678813	16132.0
1080.241492	16173.5
1080.804114	16138.0
1081.366678	16130.75
1081.929184	16032.0
1082.491633	16206.25
1083.054024	16192.0
1083.616357	16224.0
1084.178632	16186.25
1084.74085	16295.25
1085.30301	16220.25
1085.865113	16294.5
1086.427158	16304.75
1086.989145	16298.25
1087.551074	16278.0
1088.112946	16386.25
1088.67476	16333.25
1089.236517	16440.5
1089.798216	16292.0
1090.359857	16378.0
1090.92144	16375.25
1091.482966	16434.75
1092.044435	16279.5
1092.605845	16523.25
1093.167199	16407.5
1093.728494	16512.25
1094.289732	16441.5
1094.850912	16498.0
1095.412035	16463.0
1095.9731	16487.25
1096.534107	16425.25
1097.095057	16571.0
1097.65595	16532.5
1098.216784	16612.5
1098.777561	16540.25
1099.338281	16596.75
1099.898943	16566.25
1100.459547	16625.25
1101.020094	16639.5
1101.580584	16605.0
1102.141015	16534.25
1102.701389	16706.5
1103.261706	16601.0
1103.821965	16700.0
1104.382167	16647.25
1104.942311	16727.0
1105.502397	16584.0
1106.062426	16724.0
1106.622398	16698.75
1107.182312	16759.5
1107.742168	16715.25
1108.301967	16748.25
1108.861708	16680.5
1109.421392	16722.25
1109.981019	16735.25
1110.540587	16814.75
1111.100099	16737.5
1111.659553	16821.0
1112.218949	16773.25
1112.778288	16848.75
1113.33757	16875.75
1113.896794	16894.0
1114.45596	16900.5
1115.015069	17001.75
1115.574121	16877.75
1116.133115	16977.25
1116.692052	16887.0
1117.250931	17024.75
1117.809753	16886.5
1118.368517	16986.0
1118.927224	17027.0
1119.485873	17077.5
1120.044465	17075.25
1120.603	17056.0
1121.161477	17085.5
1121.719897	17174.5
1122.278259	17055.75
1122.836564	17131.75
1123.394812	17181.75
1123.953002	17213.25
1124.511135	17130.5
1125.06921	17265.25
1125.627228	17161.5
1126.185189	17262.75
1126.743092	17327.75
1127.300938	17330.0
1127.858726	17332.75
1128.416457	17307.5
1128.974131	17348.75
1129.531748	17369.75
1130.089307	17357.25
1130.646808	17443.0
1131.204252	17427.5
1131.761639	17581.5
1132.318969	17545.75
1132.876241	17598.5
1133.433456	17595.0
1133.990614	17557.25
1134.547714	17619.5
1135.104757	17636.5
1135.661743	17627.75
1136.218671	17717.25
1136.775542	17610.5
1137.332356	17764.0
1137.889112	17711.75
1138.445811	17798.0
1139.002453	17710.75
1139.559037	17831.75
1140.115565	17741.5
1140.672035	17882.0
1141.228447	17838.25
1141.784803	17898.25
1142.341101	17861.5
1142.897342	17909.5
1143.453525	17857.5
1144.009651	17979.75
1144.565721	18025.25
1145.121732	18042.5
1145.677687	18013.5
1146.233584	18151.75
1146.789424	18126.0
1147.345207	18140.25
1147.900933	18196.0
1148.456601	18209.75
1149.012212	18177.5
1149.567766	18307.75
1150.123263	18324.25
1150.678702	18298.25
1151.234085	18364.0
1151.78941	18377.25
1152.344678	18519.0
1152.899888	18485.0
1153.455042	18326.5
1154.010138	18442.25
1154.565177	18461.5
1155.120159	18536.5
1155.675084	18546.5
1156.229951	18672.75
1156.784762	18649.25
1157.339515	18636.25
1157.894211	18705.0
1158.44885	18757.0
1159.003432	18752.25
1159.557956	18699.25
1160.112424	18749.75
1160.666834	18773.5
1161.221187	18809.75
1161.775483	18831.5
1162.329722	18878.0
1162.883904	18925.5
1163.438029	18914.5
1163.992096	18954.75
1164.546107	18852.75
1165.10006	18975.5
1165.653956	19041.75
1166.207795	18901.5
1166.761577	19092.25
1167.315302	19079.25
1167.86897	19099.25
1168.422581	19123.0
1168.976134	19105.25
1169.529631	19096.0
1170.08307	19254.25
1170.636453	19232.25
1171.189778	19220.0
1171.743046	19147.75
1172.296257	19262.5
1172.849412	19169.75
1173.402509	19267.25
1173.955549	19314.25
1174.508532	19368.0
1175.061458	19345.25
1175.614327	19425.25
1176.167138	19362.75
1176.719893	19458.75
1177.272591	19425.5
1177.825232	19480.75
1178.377816	19478.0
1178.930342	19617.5
1179.482812	19467.5
1180.035225	19637.0
1180.587581	19507.0
1181.139879	19609.0
1181.692121	19587.5
1182.244306	19583.25
1182.796434	19682.75
1183.348504	19605.5
1183.900518	19699.25
1184.452475	19639.0
1185.004375	19790.5
1185.556218	19736.25
1186.108004	19727.25
1186.659733	19771.5
1187.211405	19701.5
1187.76302	19768.25
1188.314578	19808.75
1188.866079	19885.0
1189.417523	19866.25
1189.96891	19887.5
1190.520241	19916.25
1191.071514	19879.25
1191.622731	19970.5
1192.17389	19924.5
1192.724993	20029.5
1193.276039	20011.0
1193.827027	20088.75
1194.377959	20021.5
1194.928834	20093.5
1195.479653	20074.75
1196.030414	20133.0
1196.581118	20125.75
1197.131766	20111.5
1197.682356	20224.75
1198.23289	20147.75
1198.783367	20231.0
1199.333786	20188.5
1199.88415	20318.75
1200.434456	20241.5
1200.984705	20219.5
1201.534898	20171.0
1202.085033	20243.5
1202.635112	20245.0
1203.185134	20333.75
1203.735099	20284.75
1204.285007	20394.5
1204.834859	20343.5
1205.384653	20520.5
1205.934391	20427.25
1206.484072	20437.75
1207.033696	20423.75
1207.583263	20483.75
1208.132774	20446.25
1208.682228	20492.5
1209.231624	20585.25
1209.780965	20529.0
1210.330248	20513.0
1210.879474	20591.75
1211.428644	20569.25
1211.977757	20520.0
1212.526813	20628.5
1213.075813	20662.0
1213.624755	20685.5
1214.173641	20638.25
1214.72247	20598.25
1215.271242	20669.75
1215.819958	20730.25
1216.368617	20765.75
1216.917219	20809.25
1217.465764	20694.0
1218.014253	20807.75
1218.562685	20688.75
1219.11106	20783.25
1219.659378	20779.0
1220.20764	20841.5
1220.755845	20818.75
1221.303993	20911.25
1221.852085	20846.5
1222.400119	20950.25
1222.948097	20855.0
1223.496019	20935.0
1224.043883	20893.0
1224.591691	21008.5
1225.139443	20938.25
1225.687137	21035.75
1226.234775	20953.5
1226.782357	20977.25
1227.329881	21011.25
1227.877349	21100.25
1228.42476	21057.0
1228.972115	21047.0
1229.519413	21169.75
1230.066654	21168.5
1230.613839	21232.25
1231.160967	21219.5
1231.708038	21312.5
1232.255053	21227.5
1232.802011	21292.25
1233.348912	21189.5
1233.895757	21396.75
1234.442545	21226.25
1234.989277	21363.0
1235.535951	21354.75
1236.08257	21464.75
1236.629131	21336.0
1237.175636	21402.5
1237.722085	21337.75
1238.268477	21391.0
1238.814812	21453.0
1239.361091	21504.25
1239.907313	21447.25
1240.453478	21571.75
1240.999587	21451.5
1241.54564	21574.25
1242.091636	21553.5
1242.637575	21577.25
1243.183457	21486.0
1243.729284	21606.75
1244.275053	21633.75
1244.820766	21689.0
1245.366423	21762.75
1245.912022	21701.0
1246.457566	21669.5
1247.003053	21700.25
1247.548483	21803.25
1248.093857	21715.75
1248.639174	21791.5
1249.184435	21701.0
1249.729639	21860.75
1250.274787	21915.25
1250.819878	21946.5
1251.364912	21814.0
1251.909891	21974.25
1252.454812	21891.75
1252.999677	21976.5
1253.544486	21932.0
1254.089238	22053.5
1254.633934	21904.25
1255.178573	22018.5
1255.723156	22018.75
1256.267682	22201.5
1256.812152	21946.0
1257.356565	22064.75
1257.900922	22151.0
1258.445223	22191.75
1258.989467	22152.75
1259.533654	22248.0
1260.077785	22277.25
1260.62186	22141.25
1261.165878	22295.25
1261.70984	22135.75
1262.253745	22135.0
1262.797594	22330.25
1263.341386	22251.75
1263.885123	22332.5
1264.428802	22310.0
1264.972425	22339.75
1265.515992	22367.75
1266.059503	22289.25
1266.602957	22339.5
1267.146354	22353.25
1267.689696	22411.5
1268.23298	22272.25
1268.776209	22552.25
1269.319381	22403.25
1269.862497	22534.5
1270.405556	22463.5
1270.948559	22549.0
1271.491506	22434.0
1272.034396	22461.75
1272.57723	22635.5
1273.120007	22628.75
1273.662728	22577.25
1274.205393	22661.75
1274.748002	22557.0
1275.290554	22722.0
1275.83305	22713.0
1276.375489	22630.0
1276.917872	22684.5
1277.460199	22818.5
1278.00247	22654.0
1278.544684	22773.75
1279.086842	22754.5
1279.628943	22845.75
1280.170989	22864.0
1280.712978	22805.5
1281.25491	22842.0
1281.796787	22845.75
1282.338607	22906.25
1282.880371	22795.75
1283.422078	22938.5
1283.963729	22903.0
1284.505324	23010.75
1285.046863	22745.0
1285.588345	23005.5
1286.129772	22932.25
1286.671142	22965.0
1287.212455	23042.5
1287.753713	23013.5
1288.294914	23049.0
1288.836059	23082.75
1289.377147	23017.25
1289.91818	23154.25
1290.459156	23166.25
1291.000076	23190.75
1291.54094	23178.25
1292.081747	23180.0
1292.622499	23154.0
1293.163194	23243.0
1293.703833	23156.0
1294.244415	23098.5
1294.784942	23294.25
1295.325412	23237.0
1295.865826	23337.0
1296.406184	23213.5
1296.946486	23294.0
1297.486731	23275.75
1298.026921	23335.75
1298.567054	23210.75
1299.107131	23382.75
1299.647152	23263.0
1300.187116	23511.75
1300.727025	23395.0
1301.266877	23506.0
1301.806673	23336.5
1302.346413	23426.75
1302.886097	23473.75
1303.425725	23593.25
1303.965297	23526.0
1304.504812	23608.5
1305.044272	23482.75
1305.583675	23613.75
1306.123022	23589.0
1306.662313	23601.5
1307.201548	23647.75
1307.740727	23680.25
1308.279849	23613.25
1308.818916	23662.0
1309.357926	23804.0
1309.896881	23628.25
1310.435779	23697.75
1310.974621	23619.5
1311.513407	23776.5
1312.052137	23610.75
1312.590811	23768.0
1313.129429	23720.25
1313.667991	23986.75
1314.206497	23711.75
1314.744946	23907.5
1315.28334	23841.25
1315.821678	23920.75
1316.359959	23800.25
1316.898184	23916.0
1317.436354	23845.25
1317.974467	23922.75
1318.512525	23930.75
1319.050526	23912.0
1319.588471	23971.75
1320.12636	23909.0
1320.664194	24102.75
1321.201971	23910.5
1321.739692	24159.5
1322.277357	23918.25
1322.814967	24147.5
1323.35252	23980.5
1323.890017	24119.75
1324.427458	24033.25
1324.964843	24207.25
1325.502173	24101.0
1326.039446	24292.5
1326.576663	24136.0
1327.113824	24279.75
1327.65093	24210.75
1328.187979	24117.25
1328.724972	24128.75
1329.26191	24217.75
1329.798791	24248.25
1330.335617	24253.25
1330.872386	24345.0
1331.4091	24194.0
1331.945758	24304.25
1332.48236	24245.25
1333.018905	24406.25
1333.555395	24250.75
1334.091829	24490.0
1334.628207	24302.5
1335.164529	24460.0
1335.700796	24323.75
1336.237006	24459.75
1336.77316	24329.75
1337.309259	24595.75
1337.845301	24524.75
1338.381288	24615.5
1338.917219	24643.0
1339.453094	24470.5
1339.988913	24546.5
1340.524676	24512.75
1341.060383	24551.0
1341.596034	24382.75
1342.13163	24506.25
1342.66717	24484.5
1343.202653	24591.25
1343.738081	24548.75
1344.273453	24671.0
1344.80877	24487.75
1345.34403	24699.5
1345.879235	24597.25
1346.414383	24784.5
1346.949476	24622.25
1347.484513	24798.5
1348.019494	24547.0
1348.55442	24795.5
1349.089289	24745.75
1349.624103	24742.0
1350.158861	24806.75
1350.693563	24766.75
1351.228209	24800.25
1351.7628	24843.0
1352.297334	24862.75
1352.831813	24878.0
1353.366236	24854.75
1353.900604	24856.5
1354.434915	24897.5
1354.969171	24761.0
1355.503371	24903.25
1356.037515	24822.5
1356.571604	25103.75
1357.105636	24778.5
1357.639613	25067.5
1358.173535	24907.5
1358.7074	25065.25
1359.24121	25009.0
1359.774964	25055.5
1360.308662	24927.75
1360.842304	24981.0
1361.375891	25022.75
1361.909422	24956.5
1362.442897	25058.0
1362.976317	25037.5
1363.50968	25162.75
1364.042989	24995.75
1364.576241	25120.5
1365.109438	25046.5
1365.642579	25156.25
1366.175664	25081.75
1366.708693	25217.25
1367.241667	25111.25
1367.774585	25259.5
1368.307448	25143.75
1368.840255	25317.75
1369.373006	25212.75
1369.905701	25286.25
1370.438341	25334.75
1370.970925	25168.0
1371.503454	25221.75
1372.035926	25253.5
1372.568344	25267.25
1373.100705	25201.25
1373.633011	25415.25
1374.165261	25225.0
1374.697456	25428.5
1375.229595	25210.75
1375.761678	25452.0
1376.293705	25311.0
1376.825677	25479.25
1377.357594	25354.25
1377.889455	25514.25
1378.42126	25350.25
1378.953009	25435.25
1379.484703	25442.5
1380.016342	25446.0
1380.547924	25459.0
1381.079452	25418.75
1381.610923	25586.25
1382.142339	25394.5
1382.673699	25680.5
1383.205004	25476.5
1383.736253	25640.0
1384.267447	25553.0
1384.798585	25657.25
1385.329668	25457.0
1385.860695	25768.25
1386.391666	25458.5
1386.922582	25745.5
1387.453442	25502.5
1387.984247	25730.25
1388.514996	25695.0
1389.04569	25741.25
1389.576328	25676.0
1390.10691	25546.75
1390.637437	25823.0
1391.167909	25668.25
1391.698325	25921.75
1392.228685	25657.5
1392.75899	25952.75
1393.28924	25610.25
1393.819434	25918.5
1394.349572	25791.5
1394.879655	25929.5
1395.409683	25900.25
1395.939655	25961.75
1396.469571	25929.25
1396.999432	26008.75
1397.529237	25964.25
1398.058987	25920.0
1398.588682	25918.0
1399.118321	25779.0
1399.647905	26179.0
1400.177433	25938.75
1400.706906	26092.75
1401.236323	25907.0
1401.765685	26167.25
1402.294991	25975.0
1402.824242	26180.75
1403.353437	26134.75
1403.882577	26091.5
1404.411662	26130.5
1404.940691	26242.75
1405.469665	26194.75
1405.998583	26193.5
1406.527446	26277.5
1407.056253	26192.5
1407.585005	26327.0
1408.113702	26207.75
1408.642343	26316.25
1409.170929	26206.25
1409.69946	26396.5
1410.227935	26206.0
1410.756354	26397.5
1411.284719	26253.0
1411.813028	26374.0
1412.341281	26345.25
1412.869479	26382.75
1413.397622	26313.75
1413.92571	26414.0
1414.453742	26389.75
1414.981718	26450.0
1415.50964	26458.25
1416.037506	26351.25
1416.565316	26465.75
1417.093072	26492.5
1417.620772	26505.0
1418.148416	26418.0
1418.676005	26501.0
1419.203539	26458.75
1419.731018	26685.25
1420.258441	26522.75
1420.785809	26729.25
1421.313122	26674.5
1421.840379	26688.25
1422.367582	26655.5
1422.894728	26653.75
1423.42182	26671.5
1423.948856	26648.75
1424.475837	26766.5
1425.002762	26734.75
1425.529633	26924.0
1426.056448	26745.25
1426.583207	26873.0
1427.109912	26720.75
1427.636561	26856.5
1428.163155	26692.5
1428.689694	26799.75
1429.216177	26850.75
1429.742605	26825.75
1430.268978	26848.75
1430.795296	26886.25
1431.321558	26904.25
1431.847765	26882.25
1432.373917	26955.25
1432.900014	26851.0
1433.426056	26924.0
1433.952042	26803.0
1434.477973	26945.75
1435.003849	26929.25
1435.529669	26987.5
1436.055435	26878.0
1436.581145	26886.75
1437.1068	26897.5
1437.632399	26959.5
1438.157944	26954.5
1438.683433	27036.5
1439.208868	26930.75
1439.734247	26978.25
1440.25957	26908.0
1440.784839	26999.0
1441.310053	27053.75
1441.835211	27123.0
1442.360314	27047.25
1442.885362	26987.75
1443.410355	27120.75
1443.935292	26945.5
1444.460175	27068.75
1444.985002	27103.25
1445.509774	27032.0
1446.034491	27061.75
1446.559153	27067.5
1447.08376	27162.5
1447.608312	27118.75
1448.132808	26954.0
1448.65725	27094.5
1449.181636	27058.0
1449.705967	27109.5
1450.230243	27123.25
1450.754464	27097.5
1451.27863	27119.0
1451.802741	27135.5
1452.326797	27088.5
1452.850797	27113.0
1453.374743	27188.0
1453.898633	27219.75
1454.422468	27233.25
1454.946249	27124.5
1455.469974	27148.0
1455.993644	27203.75
1456.517259	27256.0
1457.040819	27288.0
1457.564324	27321.25
1458.087773	27316.25
1458.611168	27185.25
1459.134508	27320.0
1459.657793	27189.0
1460.181022	27244.0
1460.704197	27269.0
1461.227316	27283.0
1461.750381	27320.0
1462.27339	27382.5
1462.796345	27143.5
1463.319244	27358.75
1463.842089	27321.5
1464.364878	27226.25
1464.887613	27294.75
1465.410292	27276.25
1465.932916	27301.5
1466.455486	27179.0
1466.978	27386.75
1467.50046	27286.25
1468.022864	27240.75
1468.545214	27289.75
1469.067508	27366.25
1469.589748	27326.0
1470.111932	27390.75
1470.634062	27346.75
1471.156136	27344.25
1471.678156	27342.75
1472.20012	27299.75
1472.72203	27427.25
1473.243885	27323.25
1473.765685	27431.75
1474.28743	27338.25
1474.80912	27391.0
1475.330755	27397.5
1475.852335	27247.5
1476.37386	27292.5
1476.89533	27414.5
1477.416745	27381.5
1477.938106	27262.5
1478.459411	27345.75
1478.980662	27280.75
1479.501857	27314.25
1480.022998	27404.0
1480.544084	27432.25
1481.065115	27357.25
1481.586091	27391.0
1482.107012	27313.5
1482.627878	27309.25
1483.14869	27365.75
1483.669446	27282.75
1484.190148	27433.0
1484.710794	27364.25
1485.231386	27381.75
1485.751923	27316.75
1486.272406	27450.25
1486.792833	27441.5
1487.313205	27416.25
1487.833523	27351.25
1488.353786	27353.25
1488.873994	27423.0
1489.394147	27416.0
1489.914245	27361.5
1490.434288	27408.75
1490.954277	27361.0
1491.474211	27391.0
1491.99409	27434.0
1492.513914	27383.25
1493.033683	27411.25
1493.553398	27511.0
1494.073057	27471.5
1494.592662	27419.25
1495.112212	27339.25
1495.631708	27418.5
1496.151148	27255.0
1496.670534	27381.25
1497.189865	27524.75
1497.709141	27490.75
1498.228362	27386.5
1498.747529	27494.0
1499.266641	27540.5
1499.785698	27473.75
1500.3047	27529.5
1500.823648	27488.25
1501.34254	27488.0
1501.861379	27397.25
1502.380162	27481.0
1502.89889	27683.0
1503.417564	27526.25
1503.936183	27458.0
1504.454748	27578.25
1504.973257	27642.25
1505.491712	27586.75
1506.010112	27462.25
1506.528458	27405.5
1507.046748	27489.5
1507.564984	27505.75
1508.083166	27546.75
1508.601292	27538.75
1509.119364	27573.75
1509.637381	27448.25
1510.155344	27490.5
1510.673252	27640.0
1511.191105	27483.75
1511.708903	27590.5
1512.226647	27476.0
1512.744336	27552.25
1513.261971	27586.0
1513.77955	27687.75
1514.297076	27549.25
1514.814546	27876.0
1515.331962	27627.25
1515.849323	27614.0
1516.366629	27546.0
1516.883881	27572.75
1517.401078	27556.5
1517.918221	27593.0
1518.435309	27724.0
1518.952342	27587.25
1519.469321	27638.75
1519.986245	27560.0
1520.503114	27690.25
1521.019929	27507.5
1521.536689	27711.25
1522.053395	27689.0
1522.570046	27799.75
1523.086642	27731.75
1523.603184	27709.25
1524.119671	27702.0
1524.636103	27600.75
1525.152481	27878.5
1525.668805	27572.0
1526.185073	27931.0
1526.701288	27729.5
1527.217447	27887.25
1527.733552	27729.75
1528.249603	27780.5
1528.765599	27831.25
1529.28154	27790.0
1529.797427	27895.0
1530.313259	27723.5
1530.829037	27980.25
1531.34476	27789.25
1531.860429	28086.5
1532.376043	27749.0
1532.891602	27956.75
1533.407107	27823.75
1533.922558	27895.75
1534.437954	27826.0
1534.953295	27906.75
1535.468582	27966.75
1535.983815	27869.5
1536.498993	27932.0
1537.014116	27863.75
1537.529185	28106.0
1538.044199	28033.0
1538.559159	27959.75
1539.074064	27875.75
1539.588915	27998.5
1540.103712	28007.5
1540.618454	27931.75
1541.133141	28078.5
1541.647774	27986.75
1542.162353	28137.75
1542.676877	27905.0
1543.191346	28180.5
1543.705761	27981.5
1544.220122	28088.75
1544.734428	27981.25
1545.24868	28164.75
1545.762877	28033.0
1546.27702	28119.75
1546.791109	28201.0
1547.305143	28046.5
1547.819122	28414.0
1548.333047	27956.0
1548.846918	28152.5
1549.360734	27969.0
1549.874496	28272.75
1550.388204	28084.25
1550.901857	28129.5
1551.415455	28161.75
1551.929	28088.5
1552.442489	28260.5
1552.955925	27977.5
1553.469306	28290.5
1553.982632	28132.25
1554.495905	28319.0
1555.009123	28039.75
1555.522286	28221.5
1556.035395	28057.5
1556.54845	28274.0
1557.06145	28256.75
1557.574396	28167.0
1558.087288	28451.75
1558.600125	28069.0
1559.112908	28413.0
1559.625637	28028.5
1560.138311	28315.5
1560.650931	28085.75
1561.163497	28313.75
1561.676008	28149.75
1562.188465	28200.25
1562.700867	28223.75
1563.213216	28221.75
1563.725509	28331.5
1564.237749	28075.0
1564.749934	28345.75
1565.262065	28104.25
1565.774142	28257.0
1566.286164	28080.75
1566.798132	28318.75
1567.310046	28296.75
1567.821906	28159.25
1568.333711	28287.0
1568.845462	28152.5
1569.357158	28366.5
1569.868801	28072.5
1570.380389	28419.5
1570.891922	28233.5
1571.403402	28529.5
1571.914827	28120.75
1572.426198	28307.5
1572.937515	28326.25
1573.448777	28277.5
1573.959985	28377.25
1574.471139	28202.25
1574.982239	28470.75
1575.493285	28160.75
1576.004276	28489.25
1576.515213	28220.25
1577.026096	28382.5
1577.536924	28181.75
1578.047698	28386.0
1578.558419	28193.75
1579.069084	28147.0
1579.579696	28443.0
1580.090254	28110.75
1580.600757	28409.5
1581.111206	27996.75
1581.621601	28418.0
1582.131941	28087.5
1582.642228	28290.75
1583.15246	28242.0
1583.662638	28230.0
1584.172762	28251.5
1584.682832	28212.25
1585.192847	28488.0
1585.702809	28201.25
1586.212716	28403.5
1586.722569	28092.0
1587.232368	28407.75
1587.742113	28235.5
1588.251803	28313.0
1588.76144	28297.0
1589.271022	28318.25
1589.78055	28357.0
1590.290024	28093.5
1590.799444	28401.5
1591.30881	28132.5
1591.818121	28429.0
1592.327379	28043.0
