1042.414189	832.5
1042.980685	842.25
1043.547124	838.25
1044.113505	832.5
1044.679828	832.5
1045.246093	829.0
1045.8123	826.0
1046.378449	829.0
1046.94454	819.25
1047.510573	822.75
1048.076548	814.25
1048.642465	825.25
1049.208325	817.5
1049.774126	814.5
1050.339869	815.25
1050.905555	815.75
1051.471183	815.0
1052.036752	818.25
1052.602264	817.5
1053.167718	819.0
1053.733114	814.0
1054.298452	814.0
1054.863733	805.25
1055.428955	814.0
1055.994119	814.75
1056.559226	811.75
1057.124275	805.25
1057.689266	812.25
1058.254199	803.5
1058.819074	814.25
1059.383891	801.75
1059.94865	805.25
1060.513352	800.75
1061.077996	807.0
1061.642582	803.75
1062.20711	796.25
1062.77158	799.75
1063.335992	809.5
1063.900347	805.5
1064.464643	800.25
1065.028882	794.5
1065.593063	803.0
1066.157187	808.5
1066.721252	800.75
1067.28526	805.75
1067.84921	801.5
1068.413102	802.75
1068.976936	797.0
1069.540713	794.75
1070.104431	810.75
1070.668092	803.0
1071.231696	797.0
1071.795241	795.5
1072.358729	803.0
1072.922159	794.25
1073.485531	799.75
1074.048845	792.75
1074.612102	796.25
1075.175301	799.25
1075.738442	798.5
1076.301525	800.25
1076.864551	798.25
1077.427519	806.25
1077.990429	796.5
1078.553281	794.0
1079.116076	796.0
1079.678813	796.75
1080.241492	795.75
1080.804114	795.5
1081.366678	796.0
1081.929184	789.0
1082.491633	799.25
1083.054024	793.0
1083.616357	806.75
1084.178632	799.75
1084.74085	804.0
1085.30301	792.75
1085.865113	807.25
1086.427158	802.25
1086.989145	794.0
1087.551074	797.25
1088.112946	805.0
1088.67476	792.5
1089.236517	808.5
1089.798216	796.0
1090.359857	798.0
1090.92144	804.25
1091.482966	808.0
1092.044435	803.5
1092.605845	802.0
1093.167199	813.25
1093.728494	799.25
1094.289732	804.0
1094.850912	801.0
1095.412035	817.0
1095.9731	806.0
1096.534107	798.5
1097.095057	805.0
1097.65595	795.75
1098.216784	795.25
1098.777561	797.0
1099.338281	791.25
1099.898943	789.25
1100.459547	788.25
1101.020094	781.0
1101.580584	790.75
1102.141015	792.75
1102.701389	788.75
1103.261706	784.75
1103.821965	787.0
1104.382167	791.5
1104.942311	784.75
1105.502397	782.75
1106.062426	787.75
1106.622398	782.25
1107.182312	774.5
1107.742168	774.25
1108.301967	781.75
1108.861708	778.0
1109.421392	779.5
1109.981019	778.75
1110.540587	780.75
1111.100099	779.5
1111.659553	780.0
1112.218949	778.75
1112.778288	778.25
1113.33757	781.5
1113.896794	778.75
1114.45596	776.25
1115.015069	780.75
1115.574121	783.5
1116.133115	775.75
1116.692052	773.75
1117.250931	781.75
1117.809753	774.25
1118.368517	773.5
1118.927224	776.5
1119.485873	773.25
1120.044465	778.25
1120.603	777.5
1121.161477	777.5
1121.719897	771.75
1122.278259	772.25
1122.836564	774.0
1123.394812	770.5
1123.953002	775.5
1124.511135	773.25
1125.06921	772.5
1125.627228	776.25
1126.185189	773.5
1126.743092	774.5
1127.300938	780.25
1127.858726	773.25
1128.416457	777.25
1128.974131	773.25
1129.531748	770.25
1130.089307	773.75
1130.646808	778.25
1131.204252	776.75
1131.761639	770.5
1132.318969	776.0
1132.876241	776.25
1133.433456	774.0
1133.990614	772.75
1134.547714	769.75
1135.104757	769.5
1135.661743	775.5
1136.218671	778.25
1136.775542	768.25
1137.332356	772.75
1137.889112	772.75
1138.445811	778.75
1139.002453	771.75
1139.559037	769.75
1140.115565	778.25
1140.672035	775.75
1141.228447	773.75
1141.784803	774.5
1142.341101	765.25
1142.897342	776.0
1143.453525	777.75
1144.009651	774.75
1144.565721	775.5
1145.121732	773.25
1145.677687	777.5
1146.233584	773.5
1146.789424	771.5
1147.345207	780.25
1147.900933	766.5
1148.456601	769.75
1149.012212	771.5
1149.567766	778.0
1150.123263	775.0
1150.678702	774.75
1151.234085	775.5
1151.78941	762.5
1152.344678	774.0
1152.899888	767.25
1153.455042	776.25
1154.010138	774.5
1154.565177	777.0
1155.120159	775.75
1155.675084	767.5
1156.229951	773.25
1156.784762	772.5
1157.339515	771.5
1157.894211	763.0
1158.44885	775.0
1159.003432	770.25
1159.557956	774.5
1160.112424	759.25
1160.666834	773.75
1161.221187	775.25
1161.775483	767.75
1162.329722	772.25
1162.883904	776.0
1163.438029	766.5
1163.992096	775.0
1164.546107	773.0
1165.10006	778.0
1165.653956	784.0
1166.207795	777.0
1166.761577	776.25
1167.315302	777.0
1167.86897	774.75
1168.422581	777.5
1168.976134	773.25
1169.529631	772.75
1170.08307	770.0
1170.636453	776.25
1171.189778	773.0
1171.743046	772.75
1172.296257	766.5
1172.849412	773.75
1173.402509	767.25
1173.955549	774.0
1174.508532	767.75
1175.061458	767.75
1175.614327	773.5
1176.167138	766.0
1176.719893	775.0
1177.272591	776.75
1177.825232	771.25
1178.377816	776.25
1178.930342	772.75
1179.482812	767.75
1180.035225	775.5
1180.587581	778.75
1181.139879	769.25
1181.692121	769.75
1182.244306	772.25
1182.796434	771.25
1183.348504	769.75
1183.900518	773.0
1184.452475	774.25
1185.004375	761.25
1185.556218	764.75
1186.108004	772.0
1186.659733	772.25
1187.211405	771.25
1187.76302	768.0
1188.314578	769.25
1188.866079	768.75
1189.417523	769.0
1189.96891	770.75
1190.520241	764.5
1191.071514	763.5
1191.622731	774.0
1192.17389	771.25
1192.724993	773.75
1193.276039	800.5
1193.827027	773.5
1194.377959	777.0
1194.928834	773.0
1195.479653	765.75
1196.030414	770.25
1196.581118	775.0
1197.131766	770.5
1197.682356	767.0
1198.23289	770.0
1198.783367	771.0
1199.333786	770.75
1199.88415	766.5
1200.434456	769.75
1200.984705	769.75
1201.534898	765.75
1202.085033	767.0
1202.635112	769.5
1203.185134	770.0
1203.735099	769.5
1204.285007	772.25
1204.834859	768.75
1205.384653	770.25
1205.934391	768.5
1206.484072	775.75
1207.033696	773.0
1207.583263	771.0
1208.132774	775.5
1208.682228	766.0
1209.231624	770.0
1209.780965	771.0
1210.330248	773.25
1210.879474	773.5
1211.428644	766.75
1211.977757	771.5
1212.526813	770.75
1213.075813	768.75
1213.624755	767.5
1214.173641	770.25
1214.72247	772.5
1215.271242	771.25
1215.819958	768.75
1216.368617	767.0
1216.917219	769.5
1217.465764	761.5
1218.014253	766.0
1218.562685	769.25
1219.11106	771.5
1219.659378	774.25
1220.20764	771.5
1220.755845	768.25
1221.303993	772.5
1221.852085	770.0
1222.400119	774.0
1222.948097	775.75
1223.496019	778.5
1224.043883	775.0
1224.591691	770.0
1225.139443	773.5
1225.687137	772.5
1226.234775	770.25
1226.782357	775.5
1227.329881	767.0
1227.877349	769.5
1228.42476	767.75
1228.972115	776.0
1229.519413	774.0
1230.066654	774.75
1230.613839	774.75
1231.160967	773.0
1231.708038	778.75
1232.255053	774.75
1232.802011	779.25
1233.348912	774.0
1233.895757	774.5
1234.442545	772.0
1234.989277	770.0
1235.535951	773.5
1236.08257	780.75
1236.629131	777.25
1237.175636	772.25
1237.722085	770.75
1238.268477	773.5
1238.814812	770.0
1239.361091	767.25
1239.907313	766.75
1240.453478	773.5
1240.999587	766.25
1241.54564	770.25
1242.091636	783.0
1242.637575	773.25
1243.183457	768.75
1243.729284	771.5
1244.275053	772.75
1244.820766	779.0
1245.366423	775.5
1245.912022	770.0
1246.457566	777.0
1247.003053	777.5
1247.548483	774.25
1248.093857	776.5
1248.639174	770.5
1249.184435	773.75
1249.729639	782.5
1250.274787	770.5
1250.819878	785.25
1251.364912	771.75
1251.909891	773.25
1252.454812	773.25
1252.999677	772.0
1253.544486	771.25
1254.089238	773.25
1254.633934	775.5
1255.178573	774.0
1255.723156	776.5
1256.267682	778.25
1256.812152	776.0
1257.356565	772.75
1257.900922	775.75
1258.445223	780.0
1258.989467	787.0
1259.533654	776.0
1260.62186	776.0
1261.165878	774.5
1261.70984	781.25
1262.253745	774.25
1262.797594	784.25
1263.341386	779.0
1263.885123	794.25
1264.428802	792.75
1264.972425	800.0
1265.515992	810.0
1266.059503	796.25
1266.602957	785.0
1267.146354	791.5
1267.689696	784.25
1268.23298	787.5
1268.776209	775.5
1269.319381	778.5
1269.862497	776.75
1270.405556	782.75
1270.948559	778.0
1271.491506	777.5
1272.034396	780.5
1272.57723	786.25
1273.120007	779.75
1273.662728	779.0
1274.205393	779.25
1274.748002	780.25
1275.290554	780.75
1275.83305	782.75
1276.375489	783.25
1276.917872	775.25
1277.460199	789.75
1278.00247	779.75
1278.544684	784.25
1279.086842	790.0
1279.628943	788.25
1280.170989	780.0
1280.712978	781.25
1281.25491	787.5
1281.796787	791.5
1282.338607	796.75
1282.880371	800.25
1283.422078	814.5
1283.963729	837.0
1284.505324	929.75
1285.046863	1115.75
1285.588345	1225.75
1286.129772	1032.25
1286.671142	871.25
1287.212455	811.75
1287.753713	799.25
1288.294914	787.75
1288.836059	796.5
1289.377147	786.75
1289.91818	784.75
1290.459156	784.5
1291.000076	785.0
1291.54094	788.75
1292.081747	786.25
1292.622499	787.75
1293.163194	784.75
1293.703833	787.0
1294.244415	788.5
1294.784942	785.5
1295.325412	778.5
1295.865826	784.25
1296.406184	778.5
1296.946486	787.5
1297.486731	780.25
1298.026921	782.0
1298.567054	786.25
1299.107131	785.75
1299.647152	781.25
1300.187116	786.75
1300.727025	781.75
1301.266877	782.0
1301.806673	787.75
1302.346413	778.5
1302.886097	781.0
1303.425725	784.0
1303.965297	787.25
1304.504812	780.25
1305.044272	779.25
1305.583675	782.0
1306.123022	776.75
1306.662313	780.75
1307.201548	779.75
1307.740727	781.75
1308.279849	786.5
1308.818916	783.25
1309.357926	788.5
1309.896881	776.5
1310.435779	775.75
1310.974621	790.0
1311.513407	784.25
1312.052137	777.0
1312.590811	788.0
1313.129429	779.5
1313.667991	782.0
1314.206497	786.75
1314.744946	781.0
1315.28334	785.25
1315.821678	786.75
1316.359959	775.25
1316.898184	781.25
1317.436354	784.75
1317.974467	786.5
1318.512525	782.5
1319.050526	783.75
1319.588471	788.75
1320.12636	779.0
1320.664194	780.5
1321.201971	780.25
1321.739692	778.25
1322.277357	779.25
1322.814967	776.75
1323.35252	779.5
1323.890017	790.0
1324.427458	788.75
1324.964843	775.5
1325.502173	783.25
1326.039446	774.5
1326.576663	778.75
1327.113824	788.75
1327.65093	774.0
1328.187979	782.25
1328.724972	784.25
1329.26191	781.75
1329.798791	785.25
1330.335617	783.75
1330.872386	778.75
1331.4091	780.5
1331.945758	792.75
1332.48236	775.0
1333.018905	781.25
1333.555395	778.5
1334.091829	775.5
1334.628207	784.75
1335.164529	782.25
1335.700796	782.0
1336.237006	783.25
1336.77316	788.25
1337.309259	777.75
1337.845301	778.5
1338.381288	775.25
1338.917219	788.75
1339.453094	788.5
1339.988913	780.25
1340.524676	785.75
1341.060383	784.25
1341.596034	778.75
1342.13163	785.5
1342.66717	782.75
1343.202653	782.25
1343.738081	777.0
1344.273453	781.5
1344.80877	786.75
1345.34403	779.5
1345.879235	778.25
1346.414383	787.0
1346.949476	788.25
1347.484513	797.25
1348.019494	786.25
1348.55442	781.75
1349.089289	783.25
1349.624103	788.0
1350.158861	781.5
1350.693563	790.0
1351.228209	782.75
1351.7628	779.75
1352.297334	787.75
1352.831813	787.5
1353.366236	776.5
1353.900604	783.25
1354.434915	785.5
1354.969171	781.25
1355.503371	787.5
1356.037515	779.0
1356.571604	783.5
1357.105636	778.75
1357.639613	783.25
1358.173535	789.75
1358.7074	787.25
1359.24121	780.25
1359.774964	788.0
1360.308662	788.0
1360.842304	782.25
1361.375891	780.25
1361.909422	781.75
1362.442897	789.75
1362.976317	787.5
1363.50968	791.5
1364.042989	780.5
1364.576241	783.25
1365.109438	784.0
1365.642579	783.25
1366.175664	788.25
1366.708693	778.5
1367.241667	785.5
1367.774585	790.25
1368.307448	789.0
1368.840255	784.75
1369.373006	782.25
1369.905701	789.0
1370.438341	787.0
1370.970925	794.5
1371.503454	791.0
1372.035926	782.25
1372.568344	786.5
1373.100705	791.25
1373.633011	786.5
1374.165261	789.0
1374.697456	783.5
1375.229595	790.75
1375.761678	780.75
1376.293705	785.0
1376.825677	792.75
1377.357594	784.25
1377.889455	784.0
1378.42126	788.75
1378.953009	787.5
1379.484703	792.25
1380.016342	789.75
1380.547924	790.25
1381.079452	797.75
1381.610923	782.25
1382.142339	783.75
1382.673699	792.25
1383.205004	783.25
1383.736253	790.5
1384.267447	799.75
1384.798585	797.5
1385.329668	794.0
1385.860695	802.5
1386.391666	817.5
1386.922582	826.75
1387.453442	862.0
1387.984247	981.5
1388.514996	1358.25
1389.04569	1633.75
1389.576328	1140.25
1390.10691	878.75
1390.637437	831.25
1391.167909	805.75
1391.698325	801.25
1392.228685	800.5
1392.75899	793.75
1393.28924	788.25
1393.819434	796.0
1394.349572	787.5
1394.879655	795.0
1395.409683	789.25
1395.939655	792.75
1396.469571	789.25
1396.999432	793.0
1397.529237	785.75
1398.058987	792.0
1398.588682	794.0
1399.118321	789.0
1399.647905	786.5
1400.177433	791.0
1400.706906	783.0
1401.236323	794.75
1401.765685	791.0
1402.294991	795.75
1402.824242	788.25
1403.353437	784.25
1403.882577	787.75
1404.411662	782.5
1404.940691	793.75
1405.469665	789.5
1405.998583	789.25
1406.527446	789.5
1407.056253	790.5
1407.585005	795.5
1408.113702	795.25
1408.642343	796.5
1409.170929	804.0
1409.69946	827.5
1410.227935	851.5
1410.756354	841.0
1411.284719	806.25
1411.813028	799.75
1412.341281	794.25
1412.869479	792.0
1413.397622	785.75
1413.92571	794.0
1414.453742	789.5
1414.981718	789.75
1415.50964	803.0
1416.037506	786.0
1416.565316	790.0
1417.093072	791.25
1417.620772	788.0
1418.148416	782.5
1418.676005	785.5
1419.203539	786.5
1419.731018	787.75
1420.258441	792.25
1420.785809	785.0
1421.313122	793.0
1421.840379	793.75
1422.367582	786.0
1422.894728	784.0
1423.42182	788.75
1423.948856	794.5
1424.475837	788.25
1425.002762	797.25
1425.529633	790.0
1426.056448	793.5
1426.583207	794.5
1427.109912	789.5
1427.636561	789.0
1428.163155	787.5
1428.689694	793.0
1429.216177	791.5
1429.742605	794.0
1430.268978	791.0
1430.795296	790.0
1431.321558	793.25
1431.847765	790.25
1432.373917	781.5
1432.900014	792.0
1433.426056	788.75
1433.952042	781.5
1434.477973	788.0
1435.003849	782.75
1435.529669	786.5
1436.055435	788.75
1436.581145	791.25
1437.1068	792.75
1437.632399	785.75
1438.157944	784.0
1438.683433	787.75
1439.208868	786.75
1439.734247	782.5
1440.25957	782.0
1440.784839	783.5
1441.310053	790.0
1441.835211	790.0
1442.360314	795.25
1442.885362	791.0
1443.410355	785.75
1443.935292	790.0
1444.460175	793.75
1444.985002	789.0
1445.509774	792.25
1446.034491	794.0
1446.559153	788.5
1447.08376	794.75
1447.608312	787.75
1448.132808	795.25
1448.65725	783.25
1449.181636	788.75
1449.705967	783.5
1450.230243	791.5
1450.754464	792.75
1451.27863	785.0
1451.802741	791.0
1452.326797	785.5
1452.850797	787.25
1453.374743	789.75
1453.898633	789.75
1454.422468	790.5
1454.946249	782.25
1455.469974	785.25
1455.993644	786.5
1456.517259	791.0
1457.040819	781.5
1457.564324	785.75
1458.087773	787.25
1458.611168	787.25
1459.134508	788.25
1459.657793	790.0
1460.181022	783.5
1460.704197	791.0
1461.227316	793.25
1461.750381	792.5
1462.27339	785.75
1462.796345	803.5
1463.319244	817.0
1463.842089	803.0
1464.364878	791.75
1464.887613	784.25
1465.410292	786.75
1465.932916	788.5
1466.455486	784.0
1466.978	783.75
1467.50046	786.25
1468.022864	788.75
1468.545214	781.5
1469.067508	793.0
1469.589748	782.5
1470.111932	790.5
1470.634062	788.75
1471.156136	791.25
1471.678156	790.5
1472.20012	783.25
1472.72203	789.25
1473.243885	785.25
1473.765685	789.75
1474.28743	782.5
1474.80912	787.75
1475.330755	791.0
1475.852335	785.5
1476.37386	788.5
1476.89533	789.0
1477.416745	786.25
1477.938106	787.25
1478.459411	782.75
1478.980662	788.5
1479.501857	787.75
1480.022998	789.25
1480.544084	780.75
1481.065115	779.25
1481.586091	784.75
1482.107012	792.0
1482.627878	795.0
1483.14869	785.25
1483.669446	794.25
1484.190148	785.25
1484.710794	776.0
1485.231386	791.75
1485.751923	790.25
1486.272406	788.75
1486.792833	788.0
1487.313205	790.5
1487.833523	786.25
1488.353786	789.0
1488.873994	790.5
1489.394147	783.5
1489.914245	782.75
1490.434288	789.5
1490.954277	786.25
1491.474211	787.25
1491.99409	781.5
1492.513914	787.25
1493.033683	791.5
1493.553398	782.75
1494.073057	786.25
1494.592662	788.5
1495.112212	785.0
1495.631708	786.5
1496.151148	786.0
1496.670534	788.5
1497.189865	784.0
1497.709141	782.0
1498.228362	783.75
1498.747529	789.0
1499.266641	790.75
1499.785698	793.25
1500.3047	791.25
1500.823648	784.5
1501.34254	787.0
1501.861379	786.0
1502.380162	784.0
1502.89889	793.0
1503.417564	781.75
1503.936183	779.75
1504.454748	786.0
1504.973257	785.25
1505.491712	786.0
1506.010112	788.5
1506.528458	787.5
1507.046748	789.75
1507.564984	784.25
1508.083166	785.25
1508.601292	786.0
1509.119364	784.0
1509.637381	787.25
1510.155344	790.0
1510.673252	797.75
1511.191105	777.75
1511.708903	791.5
1512.226647	785.25
1512.744336	782.5
1513.261971	787.75
1513.77955	784.0
1514.297076	781.75
1514.814546	784.75
1515.331962	786.0
1515.849323	784.0
1516.366629	779.75
1516.883881	784.5
1517.401078	783.5
1517.918221	791.25
1518.435309	793.0
1518.952342	789.75
1519.469321	789.0
1519.986245	791.5
1520.503114	778.5
1521.019929	787.0
1521.536689	789.25
1522.053395	785.75
1522.570046	791.25
1523.086642	785.0
1523.603184	793.75
1524.119671	786.5
1524.636103	786.5
1525.152481	790.0
1525.668805	797.75
1526.185073	810.75
1526.701288	797.75
1527.217447	791.0
1527.733552	782.5
1528.249603	788.75
1528.765599	783.75
1529.28154	792.0
1529.797427	791.0
1530.313259	781.5
1530.829037	787.5
1531.34476	788.0
1531.860429	790.25
1532.376043	785.5
1532.891602	795.0
1533.407107	789.25
1533.922558	795.5
1534.437954	784.0
1534.953295	784.75
1535.468582	789.0
1535.983815	788.25
1536.498993	786.0
1537.014116	798.75
1537.529185	792.75
1538.044199	786.5
1538.559159	790.5
1539.074064	787.5
1539.588915	787.75
1540.103712	785.5
1540.618454	779.5
1541.133141	786.5
1541.647774	782.75
1542.162353	792.25
1542.676877	795.75
1543.191346	791.0
1543.705761	782.25
1544.220122	792.75
1544.734428	777.5
1545.24868	789.25
1545.762877	791.0
1546.27702	789.5
1546.791109	789.75
1547.305143	792.25
1547.819122	785.75
1548.333047	790.0
1548.846918	789.25
1549.360734	788.5
1549.874496	789.5
1550.388204	788.25
1550.901857	780.25
1551.415455	796.5
1551.929	791.5
1552.442489	788.25
1552.955925	791.75
1553.469306	786.0
1553.982632	788.75
1554.495905	789.25
1555.009123	790.25
1555.522286	790.5
1556.035395	791.25
1556.54845	791.75
1557.06145	786.25
1557.574396	787.25
1558.087288	790.5
1558.600125	792.5
1559.112908	791.5
1559.625637	790.75
1560.138311	794.25
1560.650931	785.5
1561.163497	789.25
1561.676008	785.25
1562.188465	796.5
1562.700867	788.5
1563.213216	785.75
1563.725509	790.25
1564.237749	789.25
1564.749934	793.5
1565.262065	792.5
1565.774142	790.75
1566.286164	795.75
1566.798132	797.5
1567.310046	789.25
1567.821906	793.0
1568.333711	791.75
1568.845462	784.5
1569.357158	789.5
1569.868801	788.5
1570.380389	796.0
1570.891922	783.75
1571.403402	787.5
1571.914827	786.0
1572.426198	790.75
1572.937515	792.75
1573.448777	791.0
1573.959985	798.0
1574.471139	785.25
1574.982239	792.5
1575.493285	789.0
1576.004276	788.0
1576.515213	789.0
1577.026096	791.25
1577.536924	792.25
1578.047698	793.5
1578.558419	796.5
1579.069084	796.75
1579.579696	789.25
1580.090254	796.75
1580.600757	791.5
1581.111206	788.0
1581.621601	792.5
1582.131941	791.5
1582.642228	790.75
1583.15246	786.0
1583.662638	794.75
1584.172762	794.75
1584.682832	795.5
1585.192847	782.75
1585.702809	790.0
1586.212716	793.0
1586.722569	790.25
1587.232368	794.25
1587.742113	791.25
1588.251803	790.75
1588.76144	797.25
1589.271022	789.75
1589.78055	786.75
1590.290024	790.25
1590.799444	785.75
1591.30881	788.5
1591.818121	795.5
1592.327379	790.0
