1042.414189	732.0
1042.980685	744.0
1043.547124	742.75
1044.113505	734.75
1044.679828	733.0
1045.246093	732.0
1045.8123	735.75
1046.378449	731.25
1046.94454	727.25
1047.510573	721.5
1048.076548	728.0
1048.642465	724.5
1049.208325	725.25
1049.774126	721.75
1050.339869	724.25
1050.905555	723.25
1051.471183	721.75
1052.036752	721.75
1052.602264	715.5
1053.167718	719.0
1053.733114	716.5
1054.298452	723.25
1054.863733	715.5
1055.428955	715.0
1055.994119	713.5
1056.559226	713.5
1057.124275	713.75
1057.689266	715.5
1058.254199	708.0
1058.819074	714.0
1059.383891	709.0
1059.94865	715.75
1060.513352	712.0
1061.077996	710.75
1061.642582	710.75
1062.20711	710.75
1062.77158	710.0
1063.335992	711.5
1063.900347	709.25
1064.464643	711.0
1065.028882	709.25
1065.593063	708.0
1066.157187	706.75
1066.721252	711.75
1067.28526	706.25
1067.84921	710.0
1068.413102	702.75
1068.976936	708.25
1069.540713	704.0
1070.104431	717.0
1070.668092	710.25
1071.231696	707.5
1071.795241	708.75
1072.358729	705.5
1072.922159	703.75
1073.485531	705.5
1074.048845	705.0
1074.612102	707.25
1075.175301	707.0
1075.738442	705.75
1076.301525	706.0
1076.864551	706.5
1077.427519	703.0
1077.990429	707.75
1078.553281	707.25
1079.116076	706.0
1079.678813	706.5
1080.241492	706.25
1080.804114	705.25
1081.366678	709.5
1081.929184	707.5
1082.491633	707.25
1083.054024	704.0
1083.616357	708.0
1084.178632	705.75
1084.74085	709.25
1085.30301	710.5
1085.865113	706.25
1086.427158	705.5
1086.989145	702.25
1087.551074	710.0
1088.112946	705.25
1088.67476	708.25
1089.236517	709.0
1089.798216	708.5
1090.359857	711.0
1090.92144	709.75
1091.482966	706.75
1092.044435	705.5
1092.605845	712.5
1093.167199	705.0
1093.728494	707.5
1094.289732	707.75
1094.850912	710.5
1095.412035	719.0
1095.9731	711.0
1096.534107	709.0
1097.095057	716.0
1097.65595	707.0
1098.216784	704.5
1098.777561	705.75
1099.338281	705.75
1099.898943	707.25
1100.459547	703.25
1101.020094	698.25
1101.580584	709.75
1102.141015	702.25
1102.701389	704.25
1103.261706	703.75
1103.821965	704.75
1104.382167	699.25
1104.942311	697.0
1105.502397	703.5
1106.062426	704.0
1106.622398	697.5
1107.182312	704.5
1107.742168	699.75
1108.301967	698.0
1108.861708	701.75
1109.421392	702.5
1109.981019	696.5
1110.540587	701.0
1111.100099	699.0
1111.659553	703.25
1112.218949	703.0
1112.778288	697.5
1113.33757	697.0
1113.896794	702.25
1114.45596	700.75
1115.015069	696.25
1115.574121	698.75
1116.133115	693.75
1116.692052	699.0
1117.250931	700.5
1117.809753	694.0
1118.368517	698.0
1118.927224	698.0
1119.485873	698.75
1120.044465	693.75
1120.603	696.75
1121.161477	694.5
1121.719897	699.75
1122.278259	700.25
1122.836564	696.25
1123.394812	696.0
1123.953002	693.25
1124.511135	696.0
1125.06921	697.75
1125.627228	697.75
1126.185189	703.0
1126.743092	692.0
1127.300938	697.25
1127.858726	700.25
1128.416457	695.25
1128.974131	694.5
1129.531748	693.25
1130.089307	696.75
1130.646808	694.0
1131.204252	699.0
1131.761639	695.5
1132.318969	697.25
1132.876241	693.75
1133.433456	694.25
1133.990614	701.0
1134.547714	695.0
1135.104757	694.0
1135.661743	695.0
1136.218671	694.75
1136.775542	699.75
1137.332356	694.0
1137.889112	697.75
1138.445811	696.0
1139.002453	696.0
1139.559037	694.75
1140.115565	692.75
1140.672035	694.5
1141.228447	698.25
1141.784803	697.5
1142.341101	697.5
1142.897342	694.25
1143.453525	693.75
1144.009651	695.5
1144.565721	696.5
1145.121732	697.0
1145.677687	697.25
1146.233584	699.5
1146.789424	696.75
1147.345207	695.5
1147.900933	699.0
1148.456601	698.5
1149.012212	694.0
1149.567766	697.25
1150.123263	694.25
1150.678702	695.5
1151.234085	699.0
1151.78941	699.75
1152.344678	693.0
1152.899888	701.5
1153.455042	701.0
1154.010138	691.5
1154.565177	693.25
1155.120159	696.75
1155.675084	692.5
1156.229951	694.25
1156.784762	691.75
1157.339515	693.25
1157.894211	696.25
1158.44885	696.5
1159.003432	694.5
1159.557956	695.5
1160.112424	693.75
1160.666834	695.75
1161.221187	694.5
1161.775483	694.0
1162.329722	694.5
1162.883904	698.75
1163.438029	696.25
1163.992096	697.25
1164.546107	693.25
1165.10006	695.25
1165.653956	697.0
1166.207795	697.25
1166.761577	694.25
1167.315302	695.75
1167.86897	693.25
1168.422581	697.5
1168.976134	698.25
1169.529631	693.25
1170.08307	697.5
1170.636453	699.5
1171.189778	690.25
1171.743046	697.5
1172.296257	695.5
1172.849412	693.75
1173.402509	690.5
1173.955549	694.0
1174.508532	693.5
1175.061458	692.25
1175.614327	693.0
1176.167138	696.25
1176.719893	694.25
1177.272591	693.5
1177.825232	695.5
1178.377816	695.75
1178.930342	692.75
1179.482812	691.25
1180.035225	695.25
1180.587581	696.75
1181.139879	694.25
1181.692121	696.5
1182.244306	690.0
1182.796434	694.25
1183.348504	687.5
1183.900518	696.5
1184.452475	695.0
1185.004375	693.25
1185.556218	694.75
1186.108004	693.75
1186.659733	694.0
1187.211405	692.25
1187.76302	696.5
1188.314578	696.75
1188.866079	694.75
1189.417523	699.25
1189.96891	695.0
1190.520241	692.75
1191.071514	691.5
1191.622731	695.0
1192.17389	691.75
1192.724993	700.5
1193.276039	711.25
1193.827027	689.5
1194.377959	689.75
1194.928834	695.75
1195.479653	694.75
1196.030414	694.25
1196.581118	695.0
1197.131766	690.0
1197.682356	692.25
1198.23289	696.25
1198.783367	696.75
1199.333786	694.0
1199.88415	692.75
1200.434456	696.0
1200.984705	695.5
1201.534898	690.5
1202.085033	693.5
1202.635112	694.75
1203.185134	694.25
1203.735099	694.25
1204.285007	691.5
1204.834859	693.25
1205.384653	692.0
1205.934391	694.0
1206.484072	690.75
1207.033696	696.5
1207.583263	689.5
1208.132774	697.5
1208.682228	692.0
1209.231624	690.25
1209.780965	691.0
1210.330248	687.75
1210.879474	695.75
1211.428644	694.5
1211.977757	693.25
1212.526813	691.25
1213.075813	697.5
1213.624755	692.75
1214.173641	695.5
1214.72247	692.25
1215.271242	693.0
1215.819958	694.5
1216.368617	693.25
1216.917219	694.0
1217.465764	695.5
1218.014253	695.5
1218.562685	693.75
1219.11106	696.5
1219.659378	695.25
1220.20764	694.5
1220.755845	694.75
1221.303993	693.25
1221.852085	695.25
1222.400119	692.75
1222.948097	691.75
1223.496019	698.0
1224.043883	690.25
1224.591691	691.25
1225.139443	692.75
1225.687137	691.25
1226.234775	693.5
1226.782357	697.75
1227.329881	697.0
1227.877349	696.0
1228.42476	692.0
1228.972115	695.75
1229.519413	697.25
1230.066654	697.5
1230.613839	692.25
1231.160967	696.5
1231.708038	698.75
1232.255053	690.5
1232.802011	691.75
1233.348912	696.0
1233.895757	698.75
1234.442545	694.75
1234.989277	691.25
1235.535951	697.0
1236.08257	696.0
1236.629131	693.0
1237.175636	689.25
1237.722085	694.25
1238.268477	695.0
1238.814812	694.0
1239.361091	697.75
1239.907313	695.25
1240.453478	696.25
1240.999587	692.25
1241.54564	692.75
1242.091636	693.75
1242.637575	696.25
1243.183457	699.0
1243.729284	697.25
1244.275053	696.5
1244.820766	696.0
1245.366423	693.5
1245.912022	695.25
1246.457566	693.25
1247.003053	695.0
1247.548483	697.0
1248.093857	698.25
1248.639174	699.25
1249.184435	692.0
1249.729639	695.75
1250.274787	695.75
1250.819878	699.75
1251.364912	695.75
1251.909891	696.75
1252.454812	696.25
1252.999677	700.25
1253.544486	695.25
1254.089238	696.25
1254.633934	694.0
1255.178573	695.5
1255.723156	694.5
1256.267682	694.75
1256.812152	694.25
1257.356565	696.0
1257.900922	698.0
1258.445223	691.5
1258.989467	697.5
1259.533654	699.75
1260.62186	697.25
1261.165878	696.5
1261.70984	698.75
1262.253745	695.75
1262.797594	697.0
1263.341386	699.5
1263.885123	705.75
1264.428802	703.0
1264.972425	711.0
1265.515992	707.0
1266.059503	700.75
1266.602957	703.75
1267.146354	699.0
1267.689696	695.5
1268.23298	697.75
1268.776209	697.5
1269.319381	697.5
1269.862497	696.0
1270.405556	697.25
1270.948559	696.0
1271.491506	702.0
1272.034396	699.0
1272.57723	695.75
1273.120007	696.25
1273.662728	696.0
1274.205393	695.0
1274.748002	696.0
1275.290554	697.0
1275.83305	699.25
1276.375489	701.75
1276.917872	697.25
1277.460199	697.5
1278.00247	693.5
1278.544684	699.0
1279.086842	694.25
1279.628943	696.75
1280.170989	697.5
1280.712978	705.25
1281.25491	703.25
1281.796787	697.75
1282.338607	707.5
1282.880371	701.0
1283.422078	715.25
1283.963729	727.5
1284.505324	783.75
1285.046863	861.25
1285.588345	885.75
1286.129772	789.0
1286.671142	735.25
1287.212455	711.0
1287.753713	706.75
1288.294914	707.0
1288.836059	700.75
1289.377147	706.5
1289.91818	700.5
1290.459156	697.0
1291.000076	696.5
1291.54094	696.75
1292.081747	700.25
1292.622499	700.75
1293.163194	695.75
1293.703833	695.25
1294.244415	698.75
1294.784942	696.0
1295.325412	692.5
1295.865826	700.5
1296.406184	695.5
1296.946486	700.0
1297.486731	695.5
1298.026921	700.25
1298.567054	700.0
1299.107131	701.0
1299.647152	697.0
1300.187116	698.0
1300.727025	696.5
1301.266877	699.25
1301.806673	699.25
1302.346413	694.5
1302.886097	696.75
1303.425725	698.5
1303.965297	699.25
1304.504812	694.5
1305.044272	700.0
1305.583675	693.5
1306.123022	700.25
1306.662313	701.75
1307.201548	698.0
1307.740727	700.5
1308.279849	695.5
1308.818916	698.5
1309.357926	698.5
1309.896881	696.75
1310.435779	694.75
1310.974621	694.75
1311.513407	695.5
1312.052137	700.25
1312.590811	698.5
1313.129429	693.25
1313.667991	699.25
1314.206497	696.75
1314.744946	694.25
1315.28334	697.25
1315.821678	697.25
1316.359959	697.0
1316.898184	698.0
1317.436354	697.5
1317.974467	693.0
1318.512525	698.75
1319.050526	693.0
1319.588471	699.75
1320.12636	694.25
1320.664194	696.0
1321.201971	698.75
1321.739692	695.75
1322.277357	699.25
1322.814967	695.25
1323.35252	695.0
1323.890017	706.25
1324.427458	695.75
1324.964843	697.75
1325.502173	694.5
1326.039446	696.25
1326.576663	699.25
1327.113824	694.0
1327.65093	696.25
1328.187979	696.25
1328.724972	694.25
1329.26191	693.5
1329.798791	693.0
1330.335617	690.25
1330.872386	695.0
1331.4091	691.75
1331.945758	696.75
1332.48236	698.25
1333.018905	699.5
1333.555395	699.25
1334.091829	693.25
1334.628207	694.25
1335.164529	696.75
1335.700796	696.25
1336.237006	697.25
1336.77316	696.0
1337.309259	694.5
1337.845301	692.5
1338.381288	697.75
1338.917219	693.0
1339.453094	699.0
1339.988913	695.5
1340.524676	694.75
1341.060383	694.25
1341.596034	697.0
1342.13163	698.25
1342.66717	694.0
1343.202653	693.5
1343.738081	701.0
1344.273453	698.5
1344.80877	695.5
1345.34403	698.5
1345.879235	693.25
1346.414383	696.0
1346.949476	695.75
1347.484513	698.25
1348.019494	688.5
1348.55442	695.5
1349.089289	692.0
1349.624103	698.25
1350.158861	693.0
1350.693563	701.75
1351.228209	697.25
1351.7628	698.75
1352.297334	695.75
1352.831813	698.75
1353.366236	696.5
1353.900604	699.0
1354.434915	702.0
1354.969171	700.25
1355.503371	698.75
1356.037515	696.0
1356.571604	695.75
1357.105636	695.5
1357.639613	697.0
1358.173535	695.75
1358.7074	695.5
1359.24121	696.5
1359.774964	697.5
1360.308662	700.75
1360.842304	695.5
1361.375891	701.0
1361.909422	696.5
1362.442897	695.0
1362.976317	697.25
1363.50968	696.75
1364.042989	695.75
1364.576241	697.75
1365.109438	695.0
1365.642579	698.0
1366.175664	702.25
1366.708693	696.75
1367.241667	699.25
1367.774585	696.5
1368.307448	699.5
1368.840255	698.25
1369.373006	700.75
1369.905701	701.25
1370.438341	703.5
1370.970925	706.0
1371.503454	698.0
1372.035926	699.0
1372.568344	697.5
1373.100705	698.5
1373.633011	697.25
1374.165261	698.5
1374.697456	700.0
1375.229595	700.25
1375.761678	692.5
1376.293705	700.25
1376.825677	702.0
1377.357594	698.75
1377.889455	699.75
1378.42126	697.5
1378.953009	692.25
1379.484703	698.0
1380.016342	696.0
1380.547924	698.0
1381.079452	701.75
1381.610923	694.75
1382.142339	699.5
1382.673699	701.5
1383.205004	698.5
1383.736253	697.5
1384.267447	697.5
1384.798585	705.0
1385.329668	700.5
1385.860695	708.0
1386.391666	708.0
1386.922582	716.75
1387.453442	736.75
1387.984247	793.0
1388.514996	981.5
1389.04569	1069.25
1389.576328	846.5
1390.10691	742.5
1390.637437	710.25
1391.167909	709.25
1391.698325	702.0
1392.228685	701.0
1392.75899	700.0
1393.28924	697.0
1393.819434	701.0
1394.349572	703.5
1394.879655	697.75
1395.409683	696.5
1395.939655	702.5
1396.469571	695.25
1396.999432	698.5
1397.529237	696.0
1398.058987	701.0
1398.588682	696.0
1399.118321	702.75
1399.647905	697.0
1400.177433	694.75
1400.706906	700.75
1401.236323	697.75
1401.765685	695.25
1402.294991	699.0
1402.824242	699.0
1403.353437	699.75
1403.882577	700.0
1404.411662	700.25
1404.940691	700.75
1405.469665	693.5
1405.998583	703.25
1406.527446	695.75
1407.056253	699.5
1407.585005	702.25
1408.113702	699.5
1408.642343	708.5
1409.170929	703.25
1409.69946	714.0
1410.227935	730.0
1410.756354	714.75
1411.284719	706.25
1411.813028	699.25
1412.341281	700.0
1412.869479	699.25
1413.397622	695.25
1413.92571	697.75
1414.453742	698.5
1414.981718	692.5
1415.50964	710.0
1416.037506	697.0
1416.565316	703.5
1417.093072	697.75
1417.620772	695.5
1418.148416	701.5
1418.676005	697.5
1419.203539	696.75
1419.731018	698.0
1420.258441	702.25
1420.785809	699.5
1421.313122	698.25
1421.840379	697.25
1422.367582	695.5
1422.894728	701.0
1423.42182	695.5
1423.948856	700.25
1424.475837	698.0
1425.002762	697.5
1425.529633	698.5
1426.056448	698.0
1426.583207	700.0
1427.109912	694.75
1427.636561	694.5
1428.163155	696.5
1428.689694	698.5
1429.216177	698.5
1429.742605	695.25
1430.268978	701.75
1430.795296	696.75
1431.321558	698.5
1431.847765	698.0
1432.373917	694.5
1432.900014	696.0
1433.426056	697.5
1433.952042	702.75
1434.477973	697.25
1435.003849	699.25
1435.529669	697.5
1436.055435	698.5
1436.581145	697.0
1437.1068	697.75
1437.632399	701.0
1438.157944	695.75
1438.683433	696.25
1439.208868	695.75
1439.734247	697.0
1440.25957	691.75
1440.784839	699.25
1441.310053	697.75
1441.835211	702.5
1442.360314	700.25
1442.885362	696.5
1443.410355	698.0
1443.935292	694.25
1444.460175	698.0
1444.985002	700.25
1445.509774	699.5
1446.034491	695.0
1446.559153	695.5
1447.08376	696.25
1447.608312	696.75
1448.132808	694.0
1448.65725	696.5
1449.181636	695.75
1449.705967	697.0
1450.230243	698.0
1450.754464	699.5
1451.27863	694.0
1451.802741	698.5
1452.326797	701.75
1452.850797	698.0
1453.374743	696.5
1453.898633	699.0
1454.422468	696.0
1454.946249	700.0
1455.469974	694.75
1455.993644	696.75
1456.517259	699.75
1457.040819	697.5
1457.564324	698.0
1458.087773	696.0
1458.611168	702.25
1459.134508	702.25
1459.657793	696.5
1460.181022	701.5
1460.704197	697.25
1461.227316	697.0
1461.750381	698.75
1462.27339	702.75
1462.796345	705.5
1463.319244	725.75
1463.842089	708.5
1464.364878	700.0
1464.887613	697.25
1465.410292	696.0
1465.932916	695.75
1466.455486	693.5
1466.978	695.75
1467.50046	699.0
1468.022864	700.0
1468.545214	702.75
1469.067508	698.25
1469.589748	695.75
1470.111932	699.5
1470.634062	700.5
1471.156136	698.5
1471.678156	697.75
1472.20012	700.25
1472.72203	698.75
1473.243885	698.25
1473.765685	692.25
1474.28743	698.25
1474.80912	696.25
1475.330755	693.0
1475.852335	695.5
1476.37386	699.25
1476.89533	699.0
1477.416745	697.0
1477.938106	697.5
1478.459411	695.25
1478.980662	698.0
1479.501857	691.75
1480.022998	700.75
1480.544084	694.0
1481.065115	695.75
1481.586091	697.0
1482.107012	694.75
1482.627878	697.25
1483.14869	696.75
1483.669446	698.25
1484.190148	696.75
1484.710794	695.25
1485.231386	697.0
1485.751923	696.25
1486.272406	699.5
1486.792833	693.75
1487.313205	696.75
1487.833523	695.0
1488.353786	698.25
1488.873994	700.0
1489.394147	696.75
1489.914245	696.25
1490.434288	694.25
1490.954277	697.5
1491.474211	690.5
1491.99409	697.5
1492.513914	695.75
1493.033683	692.5
1493.553398	694.25
1494.073057	699.25
1494.592662	698.75
1495.112212	695.75
1495.631708	695.25
1496.151148	697.75
1496.670534	700.25
1497.189865	696.0
1497.709141	698.0
1498.228362	693.0
1498.747529	698.25
1499.266641	695.75
1499.785698	709.25
1500.3047	698.25
1500.823648	696.5
1501.34254	694.25
1501.861379	693.25
1502.380162	695.25
1502.89889	694.5
1503.417564	694.25
1503.936183	697.25
1504.454748	695.75
1504.973257	695.75
1505.491712	698.25
1506.010112	695.5
1506.528458	696.25
1507.046748	695.75
1507.564984	695.0
1508.083166	698.0
1508.601292	698.75
1509.119364	695.0
1509.637381	698.5
1510.155344	693.75
1510.673252	702.5
1511.191105	694.5
1511.708903	694.0
1512.226647	696.75
1512.744336	696.5
1513.261971	699.5
1513.77955	699.5
1514.297076	694.5
1514.814546	696.5
1515.331962	695.0
1515.849323	694.25
1516.366629	695.0
1516.883881	693.25
1517.401078	697.25
1517.918221	697.5
1518.435309	696.75
1518.952342	695.75
1519.469321	697.0
1519.986245	694.75
1520.503114	695.0
1521.019929	698.5
1521.536689	701.5
1522.053395	690.0
1522.570046	698.25
1523.086642	693.75
1523.603184	695.0
1524.119671	690.25
1524.636103	699.25
1525.152481	694.25
1525.668805	700.5
1526.185073	718.0
1526.701288	710.25
1527.217447	698.75
1527.733552	697.75
1528.249603	697.5
1528.765599	694.25
1529.28154	697.0
1529.797427	699.75
1530.313259	696.75
1530.829037	695.0
1531.34476	692.75
1531.860429	698.75
1532.376043	695.75
1532.891602	701.5
1533.407107	694.5
1533.922558	696.75
1534.437954	698.5
1534.953295	700.5
1535.468582	697.0
1535.983815	697.75
1536.498993	696.25
1537.014116	697.5
1537.529185	698.25
1538.044199	697.25
1538.559159	695.0
1539.074064	696.75
1539.588915	692.5
1540.103712	697.5
1540.618454	694.5
1541.133141	696.0
1541.647774	695.5
1542.162353	703.5
1542.676877	698.5
1543.191346	695.25
1543.705761	694.5
1544.220122	698.5
1544.734428	696.75
1545.24868	697.25
1545.762877	698.75
1546.27702	695.75
1546.791109	699.5
1547.305143	698.25
1547.819122	699.25
1548.333047	702.25
1548.846918	695.25
1549.360734	696.25
1549.874496	693.75
1550.388204	697.25
1550.901857	697.25
1551.415455	699.5
1551.929	697.25
1552.442489	696.75
1552.955925	701.0
1553.469306	698.75
1553.982632	697.25
1554.495905	698.75
1555.009123	702.0
1555.522286	700.5
1556.035395	698.0
1556.54845	698.75
1557.06145	697.75
1557.574396	702.0
1558.087288	699.0
1558.600125	697.25
1559.112908	693.0
1559.625637	692.5
1560.138311	696.75
1560.650931	700.0
1561.163497	700.25
1561.676008	696.5
1562.188465	696.25
1562.700867	700.25
1563.213216	701.5
1563.725509	700.0
1564.237749	699.0
1564.749934	700.5
1565.262065	697.75
1565.774142	703.25
1566.286164	701.75
1566.798132	697.5
1567.310046	704.25
1567.821906	699.5
1568.333711	698.5
1568.845462	697.0
1569.357158	695.0
1569.868801	699.25
1570.380389	697.25
1570.891922	701.25
1571.403402	697.25
1571.914827	696.5
1572.426198	700.25
1572.937515	696.75
1573.448777	695.5
1573.959985	700.0
1574.471139	697.5
1574.982239	698.0
1575.493285	697.25
1576.004276	699.75
1576.515213	698.5
1577.026096	698.75
1577.536924	696.75
1578.047698	698.5
1578.558419	698.0
1579.069084	702.0
1579.579696	698.0
1580.090254	702.0
1580.600757	694.75
1581.111206	700.75
1581.621601	696.25
1582.131941	699.5
1582.642228	699.25
1583.15246	696.0
1583.662638	703.25
1584.172762	700.5
1584.682832	697.75
1585.192847	700.25
1585.702809	702.5
1586.212716	699.0
1586.722569	702.0
1587.232368	695.25
1587.742113	699.25
1588.251803	697.5
1588.76144	695.5
1589.271022	701.25
1589.78055	698.5
1590.290024	697.0
1590.799444	699.0
1591.30881	699.0
1591.818121	697.75
1592.327379	695.0
