1042.414189	733.25
1042.980685	734.75
1043.547124	726.25
1044.113505	733.75
1044.679828	728.5
1045.246093	726.0
1045.8123	728.0
1046.378449	725.5
1046.94454	722.75
1047.510573	721.0
1048.076548	720.0
1048.642465	714.0
1049.208325	720.5
1049.774126	720.0
1050.339869	720.25
1050.905555	712.25
1051.471183	720.25
1052.036752	716.5
1052.602264	715.5
1053.167718	714.5
1053.733114	714.0
1054.298452	710.0
1054.863733	708.75
1055.428955	708.5
1055.994119	708.5
1056.559226	706.75
1057.124275	707.25
1057.689266	710.25
1058.254199	708.5
1058.819074	706.25
1059.383891	707.25
1059.94865	704.5
1060.513352	702.75
1061.077996	706.0
1061.642582	706.5
1062.20711	705.25
1062.77158	706.0
1063.335992	705.25
1063.900347	705.75
1064.464643	703.0
1065.028882	706.5
1065.593063	704.5
1066.157187	701.25
1066.721252	702.25
1067.28526	703.25
1067.84921	708.5
1068.413102	701.5
1068.976936	704.0
1069.540713	705.5
1070.104431	716.25
1070.668092	705.5
1071.231696	700.5
1071.795241	703.75
1072.358729	709.75
1072.922159	700.0
1073.485531	703.25
1074.048845	704.75
1074.612102	704.5
1075.175301	702.5
1075.738442	700.25
1076.301525	707.5
1076.864551	706.5
1077.427519	707.75
1077.990429	707.25
1078.553281	701.25
1079.116076	702.75
1079.678813	704.5
1080.241492	707.75
1080.804114	704.25
1081.366678	703.75
1081.929184	706.75
1082.491633	707.0
1083.054024	703.0
1083.616357	709.25
1084.178632	704.5
1084.74085	708.0
1085.30301	707.0
1085.865113	709.75
1086.427158	710.5
1086.989145	707.75
1087.551074	709.75
1088.112946	710.0
1088.67476	710.0
1089.236517	709.75
1089.798216	712.25
1090.359857	716.5
1090.92144	715.0
1091.482966	717.75
1092.044435	718.25
1092.605845	717.25
1093.167199	716.5
1093.728494	713.5
1094.289732	716.5
1094.850912	719.75
1095.412035	724.25
1095.9731	720.5
1096.534107	715.5
1097.095057	719.0
1097.65595	711.5
1098.216784	714.25
1098.777561	708.5
1099.338281	709.0
1099.898943	707.0
1100.459547	706.5
1101.020094	704.75
1101.580584	708.25
1102.141015	702.25
1102.701389	701.5
1103.261706	704.0
1103.821965	697.75
1104.382167	699.0
1104.942311	693.5
1105.502397	700.5
1106.062426	703.0
1106.622398	698.25
1107.182312	695.25
1107.742168	696.75
1108.301967	695.5
1108.861708	697.0
1109.421392	694.75
1109.981019	697.5
1110.540587	699.25
1111.100099	695.75
1111.659553	701.75
1112.218949	700.5
1112.778288	698.0
1113.33757	692.25
1113.896794	695.0
1114.45596	701.5
1115.015069	692.25
1115.574121	690.5
1116.133115	690.0
1116.692052	693.5
1117.250931	694.75
1117.809753	691.5
1118.368517	692.25
1118.927224	690.0
1119.485873	692.75
1120.044465	690.5
1120.603	694.5
1121.161477	691.75
1121.719897	693.0
1122.278259	690.0
1122.836564	695.25
1123.394812	690.75
1123.953002	691.75
1124.511135	689.25
1125.06921	691.0
1125.627228	695.25
1126.185189	692.0
1126.743092	692.25
1127.300938	694.5
1127.858726	690.75
1128.416457	690.25
1128.974131	691.75
1129.531748	689.5
1130.089307	689.25
1130.646808	690.5
1131.204252	689.0
1131.761639	692.75
1132.318969	687.0
1132.876241	692.25
1133.433456	689.75
1133.990614	693.5
1134.547714	696.0
1135.104757	692.5
1135.661743	689.75
1136.218671	692.25
1136.775542	696.5
1137.332356	690.25
1137.889112	690.25
1138.445811	690.75
1139.002453	695.0
1139.559037	693.75
1140.115565	691.75
1140.672035	693.75
1141.228447	691.5
1141.784803	688.5
1142.341101	689.25
1142.897342	690.75
1143.453525	692.25
1144.009651	690.75
1144.565721	693.0
1145.121732	693.0
1145.677687	691.0
1146.233584	689.25
1146.789424	693.25
1147.345207	684.75
1147.900933	690.25
1148.456601	688.0
1149.012212	690.0
1149.567766	688.75
1150.123263	691.0
1150.678702	691.0
1151.234085	692.75
1151.78941	691.75
1152.344678	690.5
1152.899888	689.5
1153.455042	688.75
1154.010138	691.0
1154.565177	689.0
1155.120159	689.75
1155.675084	687.75
1156.229951	691.0
1156.784762	692.5
1157.339515	689.5
1157.894211	691.0
1158.44885	687.5
1159.003432	688.75
1159.557956	688.0
1160.112424	687.5
1160.666834	690.5
1161.221187	686.25
1161.775483	691.5
1162.329722	690.25
1162.883904	690.75
1163.438029	693.5
1163.992096	690.75
1164.546107	690.75
1165.10006	690.75
1165.653956	688.5
1166.207795	688.75
1166.761577	693.25
1167.315302	697.75
1167.86897	690.0
1168.422581	689.5
1168.976134	688.25
1169.529631	687.25
1170.08307	692.5
1170.636453	688.5
1171.189778	693.25
1171.743046	686.5
1172.296257	686.25
1172.849412	690.5
1173.402509	691.75
1173.955549	686.25
1174.508532	692.5
1175.061458	688.0
1175.614327	691.25
1176.167138	694.0
1176.719893	690.0
1177.272591	690.75
1177.825232	693.5
1178.377816	691.0
1178.930342	689.0
1179.482812	691.5
1180.035225	690.0
1180.587581	689.5
1181.139879	689.5
1181.692121	692.5
1182.244306	692.75
1182.796434	688.5
1183.348504	691.0
1183.900518	687.5
1184.452475	690.0
1185.004375	689.0
1185.556218	688.5
1186.108004	686.75
1186.659733	691.5
1187.211405	685.5
1187.76302	688.0
1188.314578	689.25
1188.866079	690.5
1189.417523	690.5
1189.96891	692.0
1190.520241	685.5
1191.071514	689.25
1191.622731	691.25
1192.17389	685.75
1192.724993	690.75
1193.276039	710.5
1193.827027	686.75
1194.377959	693.0
1194.928834	688.25
1195.479653	693.0
1196.030414	689.25
1196.581118	694.5
1197.131766	689.0
1197.682356	688.25
1198.23289	685.5
1198.783367	685.25
1199.333786	687.0
1199.88415	692.5
1200.434456	690.5
1200.984705	688.75
1201.534898	689.5
1202.085033	689.5
1202.635112	687.25
1203.185134	686.75
1203.735099	690.0
1204.285007	688.0
1204.834859	688.75
1205.384653	688.75
1205.934391	685.0
1206.484072	689.0
1207.033696	692.25
1207.583263	690.25
1208.132774	690.25
1208.682228	690.75
1209.231624	688.0
1209.780965	688.75
1210.330248	685.75
1210.879474	689.75
1211.428644	688.5
1211.977757	689.5
1212.526813	689.5
1213.075813	691.75
1213.624755	684.0
1214.173641	685.75
1214.72247	690.5
1215.271242	690.25
1215.819958	686.0
1216.368617	687.75
1216.917219	687.5
1217.465764	689.25
1218.014253	688.0
1218.562685	686.25
1219.11106	693.25
1219.659378	686.5
1220.20764	688.5
1220.755845	684.5
1221.303993	686.25
1221.852085	690.0
1222.400119	697.25
1222.948097	686.0
1223.496019	692.5
1224.043883	689.75
1224.591691	689.25
1225.139443	690.0
1225.687137	688.5
1226.234775	686.75
1226.782357	691.75
1227.329881	688.75
1227.877349	690.75
1228.42476	688.5
1228.972115	692.0
1229.519413	692.75
1230.066654	691.5
1230.613839	688.0
1231.160967	689.25
1231.708038	693.5
1232.255053	691.5
1232.802011	688.5
1233.348912	691.75
1233.895757	689.25
1234.442545	692.25
1234.989277	690.75
1235.535951	692.25
1236.08257	693.5
1236.629131	692.0
1237.175636	688.0
1237.722085	688.25
1238.268477	691.25
1238.814812	692.25
1239.361091	686.25
1239.907313	691.25
1240.453478	687.75
1240.999587	688.0
1241.54564	691.5
1242.091636	694.25
1242.637575	689.25
1243.183457	691.75
1243.729284	688.25
1244.275053	692.0
1244.820766	692.0
1245.366423	689.75
1245.912022	691.0
1246.457566	691.5
1247.003053	694.5
1247.548483	692.0
1248.093857	690.25
1248.639174	687.5
1249.184435	686.5
1249.729639	688.25
1250.274787	689.0
1250.819878	691.25
1251.364912	692.75
1251.909891	690.75
1252.454812	689.25
1252.999677	690.5
1253.544486	689.5
1254.089238	692.0
1254.633934	688.75
1255.178573	688.5
1255.723156	687.0
1256.267682	689.25
1256.812152	692.5
1257.356565	692.75
1257.900922	691.0
1258.445223	689.25
1258.989467	686.25
1259.533654	691.25
1260.077785	712.5
1260.62186	692.25
1261.165878	690.75
1261.70984	691.5
1262.253745	692.75
1262.797594	692.5
1263.341386	695.0
1263.885123	693.75
1264.428802	696.0
1264.972425	698.75
1265.515992	704.0
1266.059503	695.0
1266.602957	690.5
1267.146354	687.5
1267.689696	693.25
1268.23298	694.75
1268.776209	691.75
1269.319381	689.25
1269.862497	691.5
1270.405556	691.25
1270.948559	691.75
1271.491506	690.75
1272.034396	691.25
1272.57723	691.0
1273.120007	694.75
1273.662728	692.0
1274.205393	689.0
1274.748002	690.75
1275.290554	690.0
1275.83305	692.0
1276.375489	691.5
1276.917872	692.25
1277.460199	693.0
1278.00247	693.0
1278.544684	694.0
1279.086842	690.0
1279.628943	691.25
1280.170989	695.5
1280.712978	695.0
1281.25491	693.5
1281.796787	698.0
1282.338607	696.0
1282.880371	693.5
1283.422078	708.25
1283.963729	717.0
1284.505324	747.5
1285.046863	811.75
1285.588345	823.5
1286.129772	772.25
1286.671142	718.25
1287.212455	700.5
1287.753713	693.75
1288.294914	694.25
1288.836059	691.5
1289.377147	690.0
1289.91818	698.5
1290.459156	694.25
1291.000076	690.5
1291.54094	693.75
1292.081747	693.0
1292.622499	689.75
1293.163194	691.75
1293.703833	697.75
1294.244415	691.75
1294.784942	694.25
1295.325412	695.25
1295.865826	689.75
1296.406184	691.5
1296.946486	695.0
1297.486731	690.5
1298.026921	694.25
1298.567054	694.5
1299.107131	692.0
1299.647152	693.0
1300.187116	694.75
1300.727025	692.0
1301.266877	693.5
1301.806673	688.0
1302.346413	691.5
1302.886097	698.0
1303.425725	691.25
1303.965297	687.0
1304.504812	696.0
1305.044272	688.25
1305.583675	692.25
1306.123022	695.75
1306.662313	687.5
1307.201548	692.75
1307.740727	694.5
1308.279849	693.5
1308.818916	691.75
1309.357926	691.5
1309.896881	689.0
1310.435779	692.25
1310.974621	690.25
1311.513407	690.75
1312.052137	692.5
1312.590811	693.75
1313.129429	689.0
1313.667991	688.75
1314.206497	690.0
1314.744946	689.75
1315.28334	690.25
1315.821678	687.25
1316.359959	689.25
1316.898184	693.0
1317.436354	691.75
1317.974467	694.25
1318.512525	690.5
1319.050526	693.0
1319.588471	691.5
1320.12636	689.5
1320.664194	688.0
1321.201971	686.0
1321.739692	688.75
1322.277357	688.5
1322.814967	688.5
1323.35252	693.0
1323.890017	694.0
1324.427458	690.25
1324.964843	693.5
1325.502173	693.5
1326.039446	694.25
1326.576663	690.25
1327.113824	691.75
1327.65093	690.25
1328.187979	690.75
1328.724972	689.25
1329.26191	692.75
1329.798791	692.25
1330.335617	686.25
1330.872386	691.0
1331.4091	694.0
1331.945758	688.75
1332.48236	689.0
1333.018905	690.25
1333.555395	692.75
1334.091829	690.0
1334.628207	690.25
1335.164529	690.5
1335.700796	687.25
1336.237006	688.0
1336.77316	688.75
1337.309259	688.75
1337.845301	688.25
1338.381288	691.75
1338.917219	689.25
1339.453094	693.25
1339.988913	690.25
1340.524676	686.25
1341.060383	687.5
1341.596034	693.25
1342.13163	690.75
1342.66717	691.5
1343.202653	691.5
1343.738081	684.5
1344.273453	689.75
1344.80877	692.25
1345.34403	689.25
1345.879235	691.5
1346.414383	689.25
1346.949476	695.5
1347.484513	694.75
1348.019494	688.25
1348.55442	689.25
1349.089289	687.25
1349.624103	692.0
1350.158861	688.75
1350.693563	688.75
1351.228209	688.5
1351.7628	689.75
1352.297334	694.25
1352.831813	689.5
1353.366236	690.25
1353.900604	688.0
1354.434915	690.75
1354.969171	689.5
1355.503371	694.75
1356.037515	690.25
1356.571604	687.75
1357.105636	691.75
1357.639613	692.5
1358.173535	691.25
1358.7074	691.0
1359.24121	688.25
1359.774964	690.25
1360.308662	690.0
1360.842304	690.5
1361.375891	688.0
1361.909422	693.0
1362.442897	688.75
1362.976317	688.5
1363.50968	691.75
1364.042989	690.75
1364.576241	690.75
1365.109438	691.25
1365.642579	693.0
1366.175664	690.25
1366.708693	692.0
1367.241667	694.0
1367.774585	693.75
1368.307448	691.5
1368.840255	691.25
1369.373006	692.0
1369.905701	692.0
1370.438341	692.5
1370.970925	697.0
1371.503454	693.25
1372.035926	691.75
1372.568344	692.5
1373.100705	694.25
1373.633011	693.0
1374.165261	693.25
1374.697456	694.5
1375.229595	690.5
1375.761678	695.5
1376.293705	692.5
1376.825677	691.0
1377.357594	689.25
1377.889455	692.5
1378.42126	692.5
1378.953009	689.0
1379.484703	693.5
1380.016342	688.5
1380.547924	694.5
1381.079452	692.5
1381.610923	690.5
1382.142339	691.25
1382.673699	694.25
1383.205004	694.25
1383.736253	696.75
1384.267447	695.5
1384.798585	692.5
1385.329668	695.5
1385.860695	695.0
1386.391666	701.25
1386.922582	704.75
1387.453442	717.25
1387.984247	768.75
1388.514996	893.0
1389.04569	969.25
1389.576328	794.0
1390.10691	722.75
1390.637437	703.25
1391.167909	701.75
1391.698325	699.25
1392.228685	695.5
1392.75899	694.75
1393.28924	693.0
1393.819434	697.75
1394.349572	689.25
1394.879655	691.5
1395.409683	693.0
1395.939655	695.5
1396.469571	691.25
1396.999432	690.5
1397.529237	691.25
1398.058987	691.75
1398.588682	695.0
1399.118321	691.75
1399.647905	691.25
1400.177433	692.75
1400.706906	693.0
1401.236323	691.75
1401.765685	689.5
1402.294991	689.25
1402.824242	695.75
1403.353437	696.5
1403.882577	690.0
1404.411662	693.0
1404.940691	693.75
1405.469665	694.5
1405.998583	693.0
1406.527446	693.5
1407.056253	695.25
1407.585005	690.0
1408.113702	698.5
1408.642343	692.0
1409.170929	697.5
1409.69946	704.75
1410.227935	713.5
1410.756354	703.75
1411.284719	696.75
1411.813028	697.75
1412.341281	695.25
1412.869479	689.5
1413.397622	693.5
1413.92571	694.25
1414.453742	690.25
1414.981718	689.0
1415.50964	705.75
1416.037506	693.5
1416.565316	692.5
1417.093072	687.75
1417.620772	694.5
1418.148416	693.0
1418.676005	691.25
1419.203539	692.5
1419.731018	696.0
1420.258441	694.25
1420.785809	694.0
1421.313122	690.5
1421.840379	688.25
1422.367582	689.75
1422.894728	693.5
1423.42182	691.0
1423.948856	689.5
1424.475837	692.25
1425.002762	691.25
1425.529633	689.25
1426.056448	691.75
1426.583207	692.5
1427.109912	691.75
1427.636561	694.25
1428.163155	686.75
1428.689694	692.75
1429.216177	693.0
1429.742605	695.0
1430.268978	690.25
1430.795296	690.0
1431.321558	694.25
1431.847765	689.5
1432.373917	694.0
1432.900014	689.75
1433.426056	689.0
1433.952042	693.0
1434.477973	691.0
1435.003849	689.0
1435.529669	688.75
1436.055435	695.0
1436.581145	694.75
1437.1068	693.25
1437.632399	690.0
1438.157944	694.0
1438.683433	693.25
1439.208868	692.5
1439.734247	694.5
1440.25957	692.75
1440.784839	693.75
1441.310053	695.5
1441.835211	692.25
1442.360314	692.0
1442.885362	688.25
1443.410355	692.5
1443.935292	691.0
1444.460175	690.0
1444.985002	688.25
1445.509774	691.5
1446.034491	693.0
1446.559153	690.5
1447.08376	694.75
1447.608312	689.25
1448.132808	694.0
1448.65725	693.5
1449.181636	690.5
1449.705967	689.25
1450.230243	698.25
1450.754464	697.0
1451.27863	691.0
1451.802741	696.25
1452.326797	689.25
1452.850797	691.5
1453.374743	691.5
1453.898633	690.75
1454.422468	691.5
1454.946249	687.5
1455.469974	691.5
1455.993644	691.0
1456.517259	691.75
1457.040819	691.5
1457.564324	691.5
1458.087773	696.25
1458.611168	691.0
1459.134508	689.0
1459.657793	690.0
1460.181022	692.25
1460.704197	690.5
1461.227316	690.25
1461.750381	690.75
1462.27339	694.25
1462.796345	701.5
1463.319244	723.5
1463.842089	703.75
1464.364878	692.5
1464.887613	692.75
1465.410292	693.5
1465.932916	689.75
1466.455486	691.0
1466.978	690.75
1467.50046	687.25
1468.022864	691.0
1468.545214	690.5
1469.067508	695.75
1469.589748	690.5
1470.111932	693.5
1470.634062	691.75
1471.156136	690.75
1471.678156	690.0
1472.20012	691.25
1472.72203	690.5
1473.243885	689.25
1473.765685	690.5
1474.28743	694.5
1474.80912	693.0
1475.330755	692.5
1475.852335	692.75
1476.37386	687.5
1476.89533	691.25
1477.416745	690.0
1477.938106	692.75
1478.459411	689.5
1478.980662	693.25
1479.501857	692.25
1480.022998	692.5
1480.544084	689.25
1481.065115	690.75
1481.586091	693.75
1482.107012	691.0
1482.627878	692.5
1483.14869	689.25
1483.669446	693.25
1484.190148	691.25
1484.710794	690.5
1485.231386	691.5
1485.751923	692.25
1486.272406	691.0
1486.792833	692.0
1487.313205	690.25
1487.833523	687.0
1488.353786	693.75
1488.873994	690.25
1489.394147	694.0
1489.914245	689.0
1490.434288	688.25
1490.954277	695.0
1491.474211	694.5
1491.99409	691.0
1492.513914	687.75
1493.033683	691.5
1493.553398	693.75
1494.073057	693.0
1494.592662	696.0
1495.112212	690.0
1495.631708	689.25
1496.151148	691.0
1496.670534	691.75
1497.189865	691.75
1497.709141	689.25
1498.228362	690.0
1498.747529	693.25
1499.266641	692.5
1499.785698	698.5
1500.3047	694.5
1500.823648	692.0
1501.34254	696.25
1501.861379	690.75
1502.380162	689.25
1502.89889	691.0
1503.417564	694.0
1503.936183	692.25
1504.454748	689.25
1504.973257	695.5
1505.491712	689.5
1506.010112	693.25
1506.528458	690.75
1507.046748	687.0
1507.564984	690.75
1508.083166	689.75
1508.601292	690.75
1509.119364	688.25
1509.637381	693.0
1510.155344	689.75
1510.673252	703.0
1511.191105	691.25
1511.708903	690.5
1512.226647	689.0
1512.744336	689.5
1513.261971	691.5
1513.77955	691.0
1514.297076	687.25
1514.814546	689.25
1515.331962	691.25
1515.849323	690.75
1516.366629	687.5
1516.883881	691.0
1517.401078	691.25
1517.918221	687.75
1518.435309	698.25
1518.952342	687.25
1519.469321	690.5
1519.986245	692.25
1520.503114	691.75
1521.019929	691.25
1521.536689	691.0
1522.053395	686.5
1522.570046	689.25
1523.086642	693.5
1523.603184	693.25
1524.119671	688.75
1524.636103	688.75
1525.152481	694.75
1525.668805	692.5
1526.185073	709.5
1526.701288	709.25
1527.217447	693.5
1527.733552	694.25
1528.249603	693.5
1528.765599	691.0
1529.28154	690.5
1529.797427	695.0
1530.313259	690.25
1530.829037	689.25
1531.34476	693.5
1531.860429	694.0
1532.376043	695.25
1532.891602	690.75
1533.407107	695.75
1533.922558	691.0
1534.437954	691.5
1534.953295	694.0
1535.468582	687.25
1535.983815	691.75
1536.498993	689.25
1537.014116	688.0
1537.529185	686.5
1538.044199	691.5
1538.559159	691.5
1539.074064	694.0
1539.588915	692.25
1540.103712	695.25
1540.618454	690.75
1541.133141	689.75
1541.647774	690.0
1542.162353	690.25
1542.676877	689.5
1543.191346	695.75
1543.705761	695.5
1544.220122	704.5
1546.27702	694.0
1546.791109	688.5
1547.305143	689.25
1547.819122	693.75
1548.333047	690.5
1548.846918	689.25
1549.360734	692.25
1549.874496	691.5
1550.388204	690.0
1550.901857	690.5
1551.415455	693.0
1551.929	692.5
1552.442489	693.5
1552.955925	691.75
1553.469306	695.5
1553.982632	695.0
1554.495905	694.0
1555.009123	694.5
1555.522286	686.5
1556.035395	690.75
1556.54845	690.5
1557.06145	693.25
1557.574396	692.75
1558.087288	688.5
1558.600125	693.0
1559.112908	691.0
1559.625637	693.5
1560.138311	690.25
1560.650931	692.5
1561.163497	694.5
1561.676008	692.0
1562.188465	693.5
1562.700867	691.0
1563.213216	690.75
1563.725509	696.75
1564.237749	692.5
1564.749934	697.75
1565.262065	693.0
1565.774142	697.0
1566.286164	695.25
1566.798132	696.5
1567.310046	696.0
1567.821906	694.5
1568.333711	691.25
1568.845462	691.25
1569.357158	697.0
1569.868801	693.75
1570.380389	694.75
1570.891922	693.0
1571.403402	690.75
1571.914827	687.5
1572.426198	697.5
1572.937515	688.0
1573.448777	693.0
1573.959985	689.25
1574.471139	692.25
1574.982239	693.75
1575.493285	695.0
1576.004276	694.75
1576.515213	696.0
1577.026096	692.0
1577.536924	694.5
1578.047698	695.0
1578.558419	690.25
1579.069084	691.5
1579.579696	692.5
1580.090254	695.25
1580.600757	693.5
1581.111206	691.0
1581.621601	693.25
1582.131941	693.25
1582.642228	695.25
1583.15246	695.0
1583.662638	689.5
1584.172762	694.5
1584.682832	692.25
1585.192847	692.5
1585.702809	694.0
1586.212716	692.5
1586.722569	691.25
1587.232368	691.75
1587.742113	692.75
1588.251803	690.25
1588.76144	688.25
1589.271022	692.25
1589.78055	690.75
1590.290024	690.5
1590.799444	694.5
1591.30881	689.75
1591.818121	689.25
1592.327379	692.75
