1042.414189	720.5
1042.980685	712.5
1043.547124	713.0
1044.113505	717.75
1044.679828	712.25
1045.246093	714.5
1045.8123	707.75
1046.378449	704.75
1046.94454	710.5
1047.510573	705.5
1048.076548	703.75
1048.642465	702.25
1049.208325	705.5
1049.774126	698.25
1050.339869	709.0
1050.905555	702.75
1051.471183	699.0
1052.036752	700.5
1052.602264	697.5
1053.167718	696.75
1053.733114	692.75
1054.298452	695.0
1054.863733	698.5
1055.428955	697.0
1055.994119	698.5
1056.559226	696.25
1057.124275	691.25
1057.689266	695.25
1058.254199	694.75
1058.819074	697.75
1059.383891	691.5
1059.94865	694.75
1060.513352	696.0
1061.077996	693.75
1061.642582	692.25
1062.20711	689.0
1062.77158	688.5
1063.335992	691.5
1063.900347	692.75
1064.464643	695.0
1065.028882	694.25
1065.593063	691.0
1066.157187	691.25
1066.721252	693.0
1067.28526	690.0
1067.84921	694.0
1068.413102	698.25
1068.976936	693.25
1069.540713	696.0
1070.104431	701.25
1070.668092	696.0
1071.231696	694.25
1071.795241	694.5
1072.358729	693.0
1072.922159	698.5
1073.485531	694.75
1074.048845	694.75
1074.612102	696.75
1075.175301	698.25
1075.738442	697.25
1076.301525	705.0
1076.864551	700.5
1077.427519	703.25
1077.990429	703.75
1078.553281	699.5
1079.116076	700.75
1079.678813	704.75
1080.241492	703.25
1080.804114	707.25
1081.366678	714.5
1081.929184	710.25
1082.491633	716.0
1083.054024	719.25
1083.616357	719.25
1084.178632	719.25
1084.74085	728.75
1085.30301	723.5
1085.865113	728.25
1086.427158	728.75
1086.989145	735.5
1087.551074	740.25
1088.112946	740.25
1088.67476	741.5
1089.236517	752.5
1089.798216	743.5
1090.359857	754.25
1090.92144	753.0
1091.482966	754.75
1092.044435	747.0
1092.605845	755.5
1093.167199	755.25
1093.728494	750.0
1094.289732	757.0
1094.850912	743.5
1095.412035	757.5
1095.9731	744.0
1096.534107	742.75
1097.095057	747.0
1097.65595	735.5
1098.216784	726.75
1098.777561	726.75
1099.338281	725.5
1099.898943	720.0
1100.459547	717.0
1101.020094	712.75
1101.580584	711.0
1102.141015	709.75
1102.701389	706.5
1103.261706	706.75
1103.821965	703.25
1104.382167	701.25
1104.942311	698.75
1105.502397	701.75
1106.062426	696.75
1106.622398	695.0
1107.182312	698.5
1107.742168	691.5
1108.301967	693.0
1108.861708	694.5
1109.421392	692.25
1109.981019	685.5
1110.540587	691.0
1111.100099	687.25
1111.659553	695.25
1112.218949	689.75
1112.778288	690.5
1113.33757	690.75
1113.896794	688.75
1114.45596	685.5
1115.015069	690.75
1115.574121	689.0
1116.133115	690.75
1116.692052	688.0
1117.250931	685.5
1117.809753	684.25
1118.368517	689.25
1118.927224	685.25
1119.485873	685.5
1120.044465	683.0
1120.603	687.0
1121.161477	684.75
1121.719897	686.0
1122.278259	690.75
1122.836564	684.5
1123.394812	682.75
1123.953002	682.5
1124.511135	684.0
1125.06921	685.0
1125.627228	683.75
1126.185189	687.5
1126.743092	688.25
1127.300938	684.5
1127.858726	684.5
1128.416457	687.0
1128.974131	685.25
1129.531748	687.5
1130.089307	683.0
1130.646808	684.0
1131.204252	682.5
1131.761639	681.75
1132.318969	686.25
1132.876241	688.5
1133.433456	687.5
1133.990614	686.75
1134.547714	688.0
1135.104757	683.75
1135.661743	683.5
1136.218671	686.25
1136.775542	683.5
1137.332356	685.5
1137.889112	684.0
1138.445811	682.25
1139.002453	682.0
1139.559037	686.5
1140.115565	686.5
1140.672035	685.75
1141.228447	685.75
1141.784803	686.25
1142.341101	683.5
1142.897342	684.0
1143.453525	682.5
1144.009651	685.0
1144.565721	684.25
1145.121732	684.75
1145.677687	684.75
1146.233584	682.25
1146.789424	684.75
1147.345207	682.75
1147.900933	683.0
1148.456601	686.0
1149.012212	681.75
1149.567766	684.25
1150.123263	683.75
1150.678702	684.75
1151.234085	681.25
1151.78941	682.0
1152.344678	685.25
1152.899888	681.25
1153.455042	685.25
1154.010138	683.25
1154.565177	685.75
1155.120159	685.75
1155.675084	685.75
1156.229951	683.0
1156.784762	680.75
1157.339515	686.0
1157.894211	682.25
1158.44885	679.75
1159.003432	685.5
1159.557956	683.75
1160.112424	684.0
1160.666834	684.0
1161.221187	683.0
1161.775483	685.0
1162.329722	682.25
1162.883904	684.0
1163.438029	684.5
1163.992096	687.75
1164.546107	681.25
1165.10006	684.25
1165.653956	684.0
1166.207795	683.25
1166.761577	686.0
1167.315302	681.5
1167.86897	684.75
1168.422581	683.25
1168.976134	687.75
1169.529631	684.25
1170.08307	686.5
1170.636453	683.25
1171.189778	683.75
1171.743046	685.5
1172.296257	683.5
1172.849412	688.75
1173.402509	685.0
1173.955549	685.25
1174.508532	682.5
1175.061458	684.0
1175.614327	686.5
1176.167138	682.75
1176.719893	683.75
1177.272591	683.5
1177.825232	682.75
1178.377816	683.25
1178.930342	685.75
1179.482812	683.75
1180.035225	683.25
1180.587581	685.5
1181.139879	684.25
1181.692121	682.25
1182.244306	679.75
1182.796434	683.5
1183.348504	684.0
1183.900518	680.75
1184.452475	683.75
1185.004375	684.25
1185.556218	685.25
1186.108004	682.25
1186.659733	683.0
1187.211405	686.0
1187.76302	683.0
1188.314578	684.75
1188.866079	681.75
1189.417523	686.0
1189.96891	682.5
1190.520241	685.0
1191.071514	689.0
1191.622731	685.0
1192.17389	682.5
1192.724993	681.5
1193.276039	704.5
1193.827027	683.0
1194.377959	683.5
1194.928834	686.25
1195.479653	685.0
1196.030414	683.0
1196.581118	682.75
1197.131766	681.0
1197.682356	685.25
1198.23289	684.25
1198.783367	678.75
1199.333786	681.5
1199.88415	682.75
1200.434456	683.0
1200.984705	685.5
1201.534898	685.5
1202.085033	684.5
1202.635112	685.25
1203.185134	684.5
1203.735099	687.0
1204.285007	681.5
1204.834859	682.75
1205.384653	683.5
1205.934391	683.25
1206.484072	681.5
1207.033696	684.0
1207.583263	684.25
1208.132774	684.75
1208.682228	681.75
1209.231624	687.5
1209.780965	684.25
1210.330248	679.75
1210.879474	685.5
1211.428644	685.5
1211.977757	686.25
1212.526813	686.5
1213.075813	686.25
1213.624755	682.0
1214.173641	683.0
1214.72247	686.75
1215.271242	688.25
1215.819958	684.5
1216.368617	685.75
1216.917219	687.25
1217.465764	683.25
1218.014253	684.25
1218.562685	685.5
1219.11106	679.5
1219.659378	683.25
1220.20764	686.25
1220.755845	683.25
1221.303993	687.25
1221.852085	685.25
1222.400119	683.25
1222.948097	683.5
1223.496019	685.0
1224.043883	684.5
1224.591691	686.75
1225.139443	683.5
1225.687137	686.25
1226.234775	683.5
1226.782357	684.25
1227.329881	682.0
1227.877349	685.5
1228.42476	683.5
1228.972115	683.25
1229.519413	686.25
1230.066654	684.25
1230.613839	685.75
1231.160967	683.5
1231.708038	684.5
1232.255053	685.25
1232.802011	688.25
1233.348912	687.0
1233.895757	685.0
1234.442545	684.0
1234.989277	687.25
1235.535951	682.0
1236.08257	681.5
1236.629131	683.25
1237.175636	688.75
1237.722085	687.25
1238.268477	683.5
1238.814812	687.25
1239.361091	686.25
1239.907313	682.5
1240.453478	686.5
1240.999587	681.75
1241.54564	687.25
1242.091636	685.25
1242.637575	686.0
1243.183457	688.0
1243.729284	686.5
1244.275053	686.5
1244.820766	685.75
1245.366423	683.5
1245.912022	684.0
1246.457566	686.75
1247.003053	685.75
1247.548483	686.25
1248.093857	686.75
1248.639174	684.75
1249.184435	681.0
1249.729639	685.75
1250.274787	687.5
1250.819878	683.0
1251.364912	685.5
1251.909891	684.5
1252.454812	685.75
1252.999677	680.5
1253.544486	687.25
1254.089238	685.25
1254.633934	687.5
1255.178573	688.5
1255.723156	684.25
1256.267682	680.25
1256.812152	686.25
1257.356565	687.25
1257.900922	690.0
1258.445223	688.5
1258.989467	685.75
1259.533654	690.75
1260.077785	709.0
1260.62186	687.25
1261.165878	686.75
1261.70984	687.0
1262.253745	686.0
1262.797594	692.5
1263.341386	691.5
1263.885123	694.0
1264.428802	699.75
1264.972425	701.25
1265.515992	693.75
1266.059503	694.75
1266.602957	691.0
1267.146354	689.75
1267.689696	687.25
1268.23298	693.0
1268.776209	687.75
1269.319381	684.75
1269.862497	684.25
1270.405556	689.0
1270.948559	693.25
1271.491506	690.25
1272.034396	687.5
1272.57723	687.75
1273.120007	689.25
1273.662728	688.5
1274.205393	689.5
1274.748002	685.25
1275.290554	689.25
1275.83305	686.75
1276.375489	688.25
1276.917872	688.5
1277.460199	688.0
1278.00247	687.75
1278.544684	689.25
1279.086842	689.25
1279.628943	691.0
1280.170989	688.25
1280.712978	691.0
1281.25491	694.75
1281.796787	698.75
1282.338607	695.75
1282.880371	703.5
1283.422078	718.5
1283.963729	752.0
1284.505324	814.25
1285.046863	886.0
1285.588345	852.75
1286.129772	754.25
1286.671142	713.25
1287.212455	708.25
1287.753713	695.75
1288.294914	693.25
1288.836059	688.5
1289.377147	685.75
1289.91818	688.25
1290.459156	689.5
1291.000076	688.75
1291.54094	687.25
1292.081747	688.5
1292.622499	688.5
1293.163194	687.25
1293.703833	689.5
1294.244415	690.0
1294.784942	688.25
1295.325412	688.5
1295.865826	685.75
1296.406184	683.5
1296.946486	685.5
1297.486731	688.5
1298.026921	687.5
1298.567054	685.5
1299.107131	685.75
1299.647152	686.5
1300.187116	682.5
1300.727025	685.5
1301.266877	688.5
1301.806673	686.0
1302.346413	686.25
1302.886097	684.0
1303.425725	690.25
1303.965297	686.0
1304.504812	684.25
1305.044272	685.75
1305.583675	682.75
1306.123022	684.25
1306.662313	687.25
1307.201548	688.75
1307.740727	685.25
1308.279849	687.75
1308.818916	685.25
1309.357926	685.5
1309.896881	686.75
1310.435779	688.75
1310.974621	686.75
1311.513407	688.75
1312.052137	686.5
1312.590811	686.0
1313.129429	687.0
1313.667991	687.75
1314.206497	685.5
1314.744946	683.0
1315.28334	690.0
1315.821678	688.5
1316.359959	686.0
1316.898184	687.25
1317.436354	688.75
1317.974467	684.25
1318.512525	686.0
1319.050526	684.5
1319.588471	687.75
1320.12636	686.0
1320.664194	687.25
1321.201971	687.0
1321.739692	687.25
1322.277357	685.75
1322.814967	689.75
1323.35252	684.25
1323.890017	687.75
1324.427458	686.25
1324.964843	683.75
1325.502173	685.5
1326.039446	684.75
1326.576663	684.75
1327.113824	686.5
1327.65093	685.25
1328.187979	688.75
1328.724972	686.5
1329.26191	688.5
1329.798791	684.75
1330.335617	688.75
1330.872386	685.5
1331.4091	686.5
1331.945758	687.5
1332.48236	685.5
1333.018905	685.25
1333.555395	686.75
1334.091829	682.75
1334.628207	689.75
1335.164529	683.75
1335.700796	687.75
1336.237006	687.75
1336.77316	684.5
1337.309259	690.5
1337.845301	689.0
1338.381288	686.5
1338.917219	685.5
1339.453094	684.5
1339.988913	690.25
1340.524676	689.25
1341.060383	682.5
1341.596034	690.5
1342.13163	687.0
1342.66717	686.5
1343.202653	690.25
1343.738081	684.5
1344.273453	687.5
1344.80877	686.5
1345.34403	689.25
1345.879235	684.5
1346.414383	682.0
1346.949476	688.75
1347.484513	686.25
1348.019494	683.75
1348.55442	684.0
1349.089289	685.5
1349.624103	687.5
1350.158861	687.5
1350.693563	684.0
1351.228209	690.0
1351.7628	685.75
1352.297334	688.25
1352.831813	685.5
1353.366236	686.0
1353.900604	690.75
1354.434915	687.75
1354.969171	686.25
1355.503371	685.75
1356.037515	684.5
1356.571604	688.0
1357.105636	686.75
1357.639613	687.75
1358.173535	686.0
1358.7074	684.0
1359.24121	688.25
1359.774964	690.25
1360.308662	685.5
1360.842304	686.0
1361.375891	689.0
1361.909422	685.5
1362.442897	684.5
1362.976317	685.75
1363.50968	691.0
1364.042989	686.5
1364.576241	687.0
1365.109438	687.25
1365.642579	687.75
1366.175664	690.5
1366.708693	687.25
1367.241667	688.25
1367.774585	688.25
1368.307448	687.5
1368.840255	688.5
1369.373006	692.0
1369.905701	687.75
1370.438341	696.5
1370.970925	694.25
1371.503454	685.75
1372.035926	689.75
1372.568344	687.5
1373.100705	691.25
1373.633011	688.5
1374.165261	685.75
1374.697456	688.0
1375.229595	688.0
1375.761678	693.0
1376.293705	688.5
1376.825677	692.0
1377.357594	692.75
1377.889455	688.5
1378.42126	691.75
1378.953009	685.75
1379.484703	690.0
1380.016342	687.75
1380.547924	688.75
1381.079452	688.0
1381.610923	688.5
1382.142339	692.25
1382.673699	689.5
1383.205004	692.75
1383.736253	694.0
1384.267447	694.0
1384.798585	695.5
1385.329668	697.25
1385.860695	699.75
1386.391666	705.75
1386.922582	723.5
1387.453442	757.25
1387.984247	859.5
1388.514996	1060.5
1389.04569	1043.25
1389.576328	816.25
1390.10691	725.0
1390.637437	705.0
1391.167909	697.5
1391.698325	696.0
1392.228685	693.0
1392.75899	691.75
1393.28924	690.5
1393.819434	693.75
1394.349572	687.25
1394.879655	688.5
1395.409683	689.5
1395.939655	689.25
1396.469571	692.25
1396.999432	691.25
1397.529237	691.0
1398.058987	689.75
1398.588682	691.75
1399.118321	689.0
1399.647905	688.75
1400.177433	688.75
1400.706906	691.5
1401.236323	690.75
1401.765685	686.25
1402.294991	687.0
1402.824242	688.75
1403.353437	686.25
1403.882577	688.0
1404.411662	688.5
1404.940691	691.25
1405.469665	693.5
1405.998583	688.75
1406.527446	686.5
1407.056253	687.75
1407.585005	690.25
1408.113702	693.75
1408.642343	695.5
1409.170929	702.75
1409.69946	707.25
1410.227935	719.25
1410.756354	707.0
1411.284719	695.5
1411.813028	694.25
1412.341281	689.75
1412.869479	687.0
1413.397622	692.0
1413.92571	689.5
1414.453742	693.0
1414.981718	686.75
1415.50964	703.75
1416.037506	691.25
1416.565316	688.75
1417.093072	689.0
1417.620772	688.5
1418.148416	690.0
1418.676005	687.75
1419.203539	688.25
1419.731018	686.25
1420.258441	688.0
1420.785809	687.75
1421.313122	684.75
1421.840379	688.25
1422.367582	693.0
1422.894728	685.0
1423.42182	689.25
1423.948856	685.75
1424.475837	692.0
1425.002762	689.25
1425.529633	686.5
1426.056448	691.0
1426.583207	692.5
1427.109912	689.75
1427.636561	691.75
1428.163155	687.5
1428.689694	683.75
1429.216177	689.25
1429.742605	690.5
1430.268978	685.5
1430.795296	687.5
1431.321558	690.75
1431.847765	685.0
1432.373917	692.5
1432.900014	687.75
1433.426056	688.0
1433.952042	687.25
1434.477973	689.25
1435.003849	684.5
1435.529669	685.0
1436.055435	690.5
1436.581145	687.75
1437.1068	692.5
1437.632399	684.5
1438.157944	689.0
1438.683433	691.25
1439.208868	690.25
1439.734247	687.0
1440.25957	684.5
1440.784839	690.25
1441.310053	688.0
1441.835211	690.25
1442.360314	685.75
1442.885362	691.75
1443.410355	682.0
1443.935292	688.0
1444.460175	689.25
1444.985002	685.5
1445.509774	691.75
1446.034491	689.0
1446.559153	684.5
1447.08376	686.25
1447.608312	686.75
1448.132808	689.25
1448.65725	690.5
1449.181636	688.75
1449.705967	688.0
1450.230243	690.5
1450.754464	687.0
1451.27863	689.75
1451.802741	683.75
1452.326797	686.75
1452.850797	690.5
1453.374743	684.25
1453.898633	684.75
1454.422468	690.25
1454.946249	684.75
1455.469974	687.5
1455.993644	689.5
1456.517259	682.25
1457.040819	687.75
1457.564324	688.0
1458.087773	690.0
1458.611168	690.5
1459.134508	687.25
1459.657793	688.25
1460.181022	690.5
1460.704197	686.25
1461.227316	689.75
1461.750381	688.25
1462.27339	691.25
1462.796345	695.75
1463.842089	700.0
1464.364878	691.25
1464.887613	688.5
1465.410292	688.5
1465.932916	683.75
1466.455486	686.25
1466.978	688.5
1467.50046	687.25
1468.022864	681.5
1468.545214	688.75
1469.067508	687.75
1469.589748	688.25
1470.111932	688.0
1470.634062	689.75
1471.156136	687.0
1471.678156	686.0
1472.20012	689.5
1472.72203	688.25
1473.243885	683.5
1473.765685	687.5
1474.28743	690.5
1474.80912	683.5
1475.330755	685.25
1475.852335	682.25
1476.37386	685.25
1476.89533	687.25
1477.416745	685.0
1477.938106	687.5
1478.459411	689.25
1478.980662	687.25
1479.501857	688.0
1480.022998	685.25
1480.544084	685.25
1481.065115	687.0
1481.586091	684.25
1482.107012	682.5
1482.627878	687.0
1483.14869	687.5
1483.669446	683.75
1484.190148	687.75
1484.710794	688.75
1485.231386	684.5
1485.751923	686.75
1486.272406	687.5
1486.792833	688.5
1487.313205	689.75
1487.833523	686.5
1488.353786	688.5
1488.873994	689.5
1489.394147	685.5
1489.914245	690.0
1490.434288	687.0
1490.954277	688.25
1491.474211	688.0
1491.99409	687.75
1492.513914	686.0
1493.033683	687.5
1493.553398	692.25
1494.073057	683.25
1494.592662	686.75
1495.112212	685.75
1495.631708	689.5
1496.151148	684.25
1496.670534	689.5
1497.189865	686.0
1497.709141	687.25
1498.228362	686.0
1498.747529	689.25
1499.266641	682.0
1499.785698	696.5
1500.3047	686.0
1500.823648	688.0
1501.34254	688.5
1501.861379	687.75
1502.380162	686.0
1502.89889	685.75
1503.417564	689.75
1503.936183	688.5
1504.454748	685.75
1504.973257	686.5
1505.491712	684.0
1506.010112	692.5
1506.528458	688.0
1507.046748	689.0
1507.564984	683.0
1508.083166	685.0
1508.601292	689.0
1509.119364	685.0
1509.637381	689.0
1510.155344	684.75
1510.673252	695.5
1511.191105	687.0
1511.708903	685.5
1512.226647	685.75
1512.744336	687.75
1513.261971	690.0
1513.77955	687.75
1514.297076	686.5
1514.814546	686.75
1515.331962	684.5
1515.849323	687.75
1516.366629	684.75
1516.883881	686.25
1517.401078	686.0
1517.918221	682.75
1518.435309	686.5
1518.952342	686.0
1519.469321	688.25
1519.986245	685.25
1520.503114	684.5
1521.019929	686.25
1521.536689	688.0
1522.053395	684.75
1522.570046	686.75
1523.086642	688.25
1523.603184	688.5
1524.119671	685.0
1524.636103	685.25
1525.152481	687.25
1525.668805	688.75
1526.185073	711.5
1526.701288	704.75
1527.217447	690.25
1527.733552	684.75
1528.249603	686.25
1528.765599	687.5
1529.28154	689.75
1529.797427	688.75
1530.313259	687.75
1530.829037	686.75
1531.34476	689.0
1531.860429	688.75
1532.376043	688.75
1532.891602	684.0
1533.407107	684.25
1533.922558	690.75
1534.437954	685.75
1534.953295	684.75
1535.468582	684.0
1535.983815	686.5
1536.498993	687.75
1537.014116	687.0
1537.529185	686.0
1538.044199	683.5
1538.559159	689.25
1539.074064	689.5
1539.588915	686.75
1540.103712	691.0
1540.618454	687.0
1541.133141	688.5
1541.647774	689.5
1542.162353	690.5
1542.676877	684.75
1543.191346	687.5
1543.705761	685.75
1544.220122	685.5
1544.734428	690.75
1545.24868	683.75
1545.762877	682.25
1546.27702	685.0
1546.791109	686.25
1547.305143	688.25
1547.819122	689.75
1548.333047	688.5
1548.846918	683.5
1549.360734	688.75
1549.874496	688.0
1550.388204	687.75
1550.901857	688.75
1551.415455	688.25
1551.929	690.25
1552.442489	691.25
1552.955925	687.25
1553.469306	686.0
1553.982632	689.0
1554.495905	691.75
1555.009123	691.0
1555.522286	689.25
1556.035395	691.75
1556.54845	690.5
1557.06145	691.25
1557.574396	691.75
1558.087288	688.25
1558.600125	686.0
1559.112908	689.25
1559.625637	690.5
1560.138311	685.75
1560.650931	689.75
1561.163497	689.75
1561.676008	691.5
1562.188465	692.0
1562.700867	689.5
1563.213216	689.0
1563.725509	694.5
1564.237749	687.0
1564.749934	690.25
1565.262065	689.75
1565.774142	689.0
1566.286164	694.25
1566.798132	686.5
1567.310046	689.0
1567.821906	691.0
1568.333711	692.0
1568.845462	686.75
1569.357158	696.0
1569.868801	688.25
1570.380389	690.75
1570.891922	689.75
1571.403402	689.5
1571.914827	690.0
1572.426198	687.25
1572.937515	689.75
1573.448777	689.5
1573.959985	683.5
1574.471139	688.0
1574.982239	691.25
1575.493285	686.75
1576.004276	687.0
1576.515213	687.0
1577.026096	690.5
1577.536924	687.0
1578.047698	682.25
1578.558419	689.25
1579.069084	687.0
1579.579696	686.25
1580.090254	685.0
1580.600757	688.75
1581.111206	688.0
1581.621601	687.75
1582.131941	691.5
1582.642228	685.25
1583.15246	686.25
1583.662638	686.75
1584.172762	689.75
1584.682832	683.0
1585.192847	688.0
1585.702809	684.5
1586.212716	686.75
1586.722569	688.75
1587.232368	687.25
1587.742113	689.25
1588.251803	690.0
1588.76144	688.0
1589.271022	689.5
1589.78055	690.75
1590.290024	687.0
1590.799444	689.5
1591.30881	687.25
1591.818121	690.75
1592.327379	688.0
