1042.414189	713.25
1042.980685	716.25
1043.547124	718.75
1044.113505	713.25
1044.679828	707.0
1045.246093	714.0
1045.8123	706.5
1046.378449	705.75
1046.94454	707.25
1047.510573	703.0
1048.076548	705.75
1048.642465	705.0
1049.208325	699.5
1049.774126	702.75
1050.339869	699.5
1050.905555	706.5
1051.471183	701.25
1052.036752	695.75
1052.602264	701.75
1053.167718	700.25
1053.733114	696.0
1054.298452	697.0
1054.863733	694.0
1055.428955	700.0
1055.994119	693.75
1056.559226	697.0
1057.124275	695.0
1057.689266	693.5
1058.254199	697.25
1058.819074	695.5
1059.383891	698.0
1059.94865	690.75
1060.513352	693.0
1061.077996	696.5
1061.642582	698.75
1062.20711	691.75
1062.77158	689.25
1063.335992	695.0
1063.900347	696.5
1064.464643	696.25
1065.028882	694.5
1065.593063	694.0
1066.157187	693.75
1066.721252	700.25
1067.28526	693.5
1067.84921	697.5
1068.413102	696.5
1068.976936	697.25
1069.540713	695.75
1070.104431	707.25
1070.668092	698.5
1071.231696	698.0
1071.795241	696.75
1072.358729	697.25
1072.922159	697.75
1073.485531	701.75
1074.048845	700.5
1074.612102	701.5
1075.175301	702.75
1075.738442	705.5
1076.301525	706.5
1076.864551	708.5
1077.427519	707.25
1077.990429	710.0
1078.553281	711.0
1079.116076	715.5
1079.678813	720.25
1080.241492	727.25
1080.804114	727.0
1081.366678	730.0
1081.929184	729.75
1082.491633	736.75
1083.054024	742.0
1083.616357	741.75
1084.178632	751.25
1084.74085	751.75
1085.30301	754.75
1085.865113	769.0
1086.427158	769.5
1086.989145	775.75
1087.551074	782.25
1088.112946	785.5
1088.67476	796.25
1089.236517	796.0
1089.798216	797.5
1090.359857	806.0
1090.92144	804.25
1091.482966	810.0
1092.044435	815.75
1092.605845	813.0
1093.167199	816.0
1093.728494	818.0
1094.289732	810.25
1094.850912	798.75
1095.412035	808.0
1095.9731	791.5
1096.534107	783.75
1097.095057	784.75
1097.65595	763.0
1098.216784	764.0
1098.777561	765.0
1099.338281	753.0
1099.898943	753.25
1100.459547	743.5
1101.020094	738.0
1101.580584	733.75
1102.141015	729.5
1102.701389	726.5
1103.261706	717.0
1103.821965	724.0
1104.382167	712.0
1104.942311	709.75
1105.502397	706.5
1106.062426	705.25
1106.622398	703.5
1107.182312	699.5
1107.742168	701.25
1108.301967	697.0
1108.861708	693.5
1109.421392	693.5
1109.981019	693.0
1110.540587	693.75
1111.100099	693.5
1111.659553	691.75
1112.218949	693.0
1112.778288	694.75
1113.33757	692.75
1113.896794	691.75
1114.45596	686.25
1115.015069	687.5
1115.574121	690.5
1116.133115	688.0
1116.692052	684.0
1117.250931	695.0
1117.809753	687.75
1118.368517	683.0
1118.927224	682.0
1119.485873	682.5
1120.044465	684.75
1120.603	684.75
1121.161477	688.25
1121.719897	683.5
1122.278259	686.0
1122.836564	681.75
1123.394812	680.0
1123.953002	681.5
1124.511135	681.75
1125.06921	682.5
1125.627228	685.0
1126.185189	684.75
1126.743092	680.5
1127.300938	683.0
1127.858726	682.0
1128.416457	684.25
1128.974131	683.75
1129.531748	684.75
1130.089307	681.5
1130.646808	683.75
1131.204252	686.5
1131.761639	682.0
1132.318969	681.0
1132.876241	682.5
1133.433456	686.0
1133.990614	681.25
1134.547714	684.5
1135.104757	680.25
1135.661743	680.0
1136.218671	686.0
1136.775542	681.5
1137.332356	682.25
1137.889112	681.5
1138.445811	682.5
1139.002453	681.25
1139.559037	682.5
1140.115565	681.25
1140.672035	683.5
1141.228447	683.25
1141.784803	680.75
1142.341101	681.5
1142.897342	681.25
1143.453525	681.0
1144.009651	682.0
1144.565721	680.75
1145.121732	683.25
1145.677687	681.25
1146.233584	679.25
1146.789424	685.25
1147.345207	681.25
1147.900933	679.0
1148.456601	682.75
1149.012212	683.25
1149.567766	683.5
1150.123263	682.0
1150.678702	681.25
1151.234085	679.5
1151.78941	679.75
1152.344678	679.75
1152.899888	678.0
1153.455042	680.25
1154.010138	680.25
1154.565177	684.25
1155.120159	679.0
1155.675084	679.5
1156.229951	680.25
1156.784762	679.25
1157.339515	681.75
1157.894211	679.75
1158.44885	682.75
1159.003432	680.0
1159.557956	679.5
1160.112424	680.25
1160.666834	682.25
1161.221187	680.5
1161.775483	678.75
1162.329722	679.0
1162.883904	679.25
1163.438029	684.5
1163.992096	682.75
1164.546107	677.75
1165.10006	685.25
1165.653956	680.25
1166.207795	680.25
1166.761577	680.25
1167.315302	682.25
1167.86897	683.75
1168.422581	677.0
1168.976134	681.5
1169.529631	680.25
1170.08307	677.75
1170.636453	679.5
1171.189778	680.75
1171.743046	680.0
1172.296257	684.5
1172.849412	681.25
1173.402509	680.25
1173.955549	677.25
1174.508532	677.75
1175.061458	680.0
1175.614327	683.25
1176.167138	681.5
1176.719893	680.75
1177.272591	682.75
1177.825232	678.0
1178.377816	681.75
1178.930342	681.5
1179.482812	680.5
1180.035225	682.5
1180.587581	675.75
1181.139879	679.0
1181.692121	680.5
1182.244306	678.0
1182.796434	680.75
1183.348504	680.25
1183.900518	679.75
1184.452475	681.75
1185.004375	678.5
1185.556218	682.5
1186.108004	677.25
1186.659733	681.75
1187.211405	679.75
1187.76302	682.75
1188.314578	682.75
1188.866079	679.25
1189.417523	684.0
1189.96891	677.25
1190.520241	681.0
1191.071514	685.0
1191.622731	684.5
1192.17389	680.0
1192.724993	678.5
1193.276039	698.75
1193.827027	683.5
1194.377959	680.25
1194.928834	682.0
1195.479653	682.25
1196.030414	681.75
1196.581118	682.75
1197.131766	680.5
1197.682356	684.25
1198.23289	680.25
1198.783367	680.25
1199.333786	680.5
1199.88415	682.0
1200.434456	680.5
1200.984705	683.25
1201.534898	678.5
1202.085033	680.5
1202.635112	679.75
1203.185134	679.75
1203.735099	680.25
1204.285007	678.0
1204.834859	677.75
1205.384653	680.75
1205.934391	679.25
1206.484072	681.5
1207.033696	675.5
1207.583263	681.75
1208.132774	682.25
1208.682228	677.75
1209.231624	683.5
1209.780965	683.0
1210.330248	677.75
1210.879474	684.75
1211.428644	681.75
1211.977757	681.75
1212.526813	683.25
1213.075813	684.0
1213.624755	683.5
1214.173641	680.5
1214.72247	678.75
1215.271242	682.0
1215.819958	678.5
1216.368617	680.25
1216.917219	682.25
1217.465764	680.0
1218.014253	680.25
1218.562685	681.25
1219.11106	679.25
1219.659378	678.5
1220.20764	679.75
1220.755845	680.75
1221.303993	676.25
1221.852085	678.5
1222.400119	682.25
1222.948097	678.75
1223.496019	684.75
1224.043883	679.25
1224.591691	683.25
1225.139443	685.25
1225.687137	683.25
1226.234775	679.75
1226.782357	682.25
1227.329881	679.5
1227.877349	681.5
1228.42476	686.5
1228.972115	679.0
1229.519413	682.5
1230.066654	680.25
1230.613839	679.75
1231.160967	681.25
1231.708038	685.25
1232.255053	679.75
1232.802011	680.0
1233.348912	679.5
1233.895757	682.75
1234.442545	687.25
1234.989277	680.75
1235.535951	682.25
1236.08257	679.5
1236.629131	681.0
1237.175636	684.5
1237.722085	682.75
1238.268477	682.25
1238.814812	679.25
1239.361091	680.75
1239.907313	680.75
1240.453478	681.75
1240.999587	683.0
1241.54564	682.0
1242.091636	682.75
1242.637575	680.25
1243.183457	681.75
1243.729284	683.5
1244.275053	683.25
1244.820766	683.0
1245.366423	680.5
1245.912022	682.75
1246.457566	679.75
1247.003053	683.75
1247.548483	681.25
1248.093857	683.25
1248.639174	686.25
1249.184435	682.5
1249.729639	680.5
1250.274787	679.75
1250.819878	681.5
1251.364912	681.0
1251.909891	688.0
1252.454812	681.25
1252.999677	680.75
1253.544486	682.25
1254.089238	684.75
1254.633934	685.25
1255.178573	681.0
1255.723156	683.0
1256.267682	683.75
1256.812152	681.25
1257.356565	682.0
1257.900922	683.5
1258.445223	679.5
1258.989467	681.5
1259.533654	684.75
1260.077785	703.5
1260.62186	683.0
1261.165878	685.0
1261.70984	684.75
1262.253745	687.25
1262.797594	684.0
1263.341386	687.5
1263.885123	688.75
1264.428802	696.25
1264.972425	696.75
1265.515992	692.75
1266.059503	693.75
1266.602957	687.75
1267.146354	684.75
1267.689696	683.25
1268.23298	684.75
1268.776209	682.25
1269.319381	684.25
1269.862497	682.75
1270.405556	680.0
1270.948559	680.25
1271.491506	684.0
1272.034396	685.25
1272.57723	686.5
1273.120007	685.0
1273.662728	680.75
1274.205393	678.0
1274.748002	681.25
1275.290554	686.25
1275.83305	688.5
1276.375489	682.25
1276.917872	685.25
1277.460199	688.5
1278.00247	683.5
1278.544684	686.5
1279.086842	683.75
1279.628943	689.25
1280.170989	686.5
1280.712978	686.75
1281.25491	690.0
1281.796787	690.75
1282.338607	695.5
1282.880371	703.75
1283.422078	722.25
1283.963729	750.25
1284.505324	830.25
1285.046863	899.75
1285.588345	873.0
1286.129772	770.0
1286.671142	718.5
1287.212455	698.5
1287.753713	692.25
1288.294914	688.5
1288.836059	690.0
1289.377147	689.0
1289.91818	682.25
1290.459156	689.25
1291.000076	683.25
1291.54094	688.0
1292.081747	684.5
1292.622499	679.75
1293.163194	684.75
1293.703833	683.0
1294.244415	685.5
1294.784942	684.5
1295.325412	680.75
1295.865826	683.0
1296.406184	684.0
1296.946486	680.5
1297.486731	687.0
1298.026921	685.5
1298.567054	684.0
1299.107131	685.0
1299.647152	680.75
1300.187116	686.25
1300.727025	684.0
1301.266877	685.25
1301.806673	685.75
1302.346413	679.25
1302.886097	679.75
1303.425725	679.25
1303.965297	682.25
1304.504812	683.0
1305.044272	681.25
1305.583675	685.5
1306.123022	678.0
1306.662313	680.75
1307.201548	684.0
1307.740727	680.0
1308.279849	684.5
1308.818916	683.0
1309.357926	682.0
1309.896881	682.5
1310.435779	683.25
1310.974621	684.0
1311.513407	687.0
1312.052137	680.0
1312.590811	681.0
1313.129429	684.5
1313.667991	686.75
1314.206497	680.75
1314.744946	684.5
1315.28334	679.25
1315.821678	684.5
1316.359959	682.5
1316.898184	680.25
1317.436354	680.25
1317.974467	678.25
1318.512525	683.5
1319.050526	680.75
1319.588471	679.75
1320.12636	680.5
1320.664194	681.0
1321.201971	680.0
1321.739692	680.75
1322.277357	680.5
1322.814967	686.0
1323.35252	681.0
1323.890017	684.5
1324.427458	683.25
1324.964843	683.5
1325.502173	681.75
1326.039446	684.5
1326.576663	681.25
1327.113824	682.0
1327.65093	679.0
1328.187979	681.75
1328.724972	683.25
1329.26191	686.25
1329.798791	683.25
1330.335617	681.0
1330.872386	685.75
1331.4091	682.25
1331.945758	682.0
1332.48236	684.5
1333.018905	681.25
1333.555395	683.0
1334.091829	682.75
1334.628207	683.5
1335.164529	687.0
1335.700796	682.5
1336.237006	681.0
1336.77316	683.5
1337.309259	685.25
1337.845301	681.5
1338.381288	680.0
1338.917219	681.0
1339.453094	683.75
1339.988913	681.25
1340.524676	683.25
1341.060383	680.25
1341.596034	684.0
1342.13163	677.5
1342.66717	681.75
1343.202653	682.5
1343.738081	681.0
1344.273453	683.25
1344.80877	683.5
1345.34403	680.5
1345.879235	683.0
1346.414383	681.25
1346.949476	682.0
1347.484513	679.25
1348.019494	683.25
1348.55442	684.25
1349.089289	682.25
1349.624103	682.0
1350.158861	682.5
1350.693563	684.0
1351.228209	682.0
1351.7628	684.0
1352.297334	682.25
1352.831813	680.0
1353.366236	676.25
1353.900604	680.75
1354.434915	685.25
1354.969171	682.5
1355.503371	683.75
1356.037515	679.75
1356.571604	681.5
1357.105636	682.25
1357.639613	681.5
1358.173535	685.5
1358.7074	686.25
1359.24121	682.75
1359.774964	684.5
1360.308662	681.75
1360.842304	683.5
1361.375891	680.75
1361.909422	686.75
1362.442897	685.25
1362.976317	682.25
1363.50968	688.0
1364.042989	681.75
1364.576241	679.0
1365.109438	682.0
1365.642579	684.75
1366.175664	679.25
1366.708693	684.5
1367.241667	682.5
1367.774585	680.5
1368.307448	682.25
1368.840255	685.75
1369.373006	686.0
1369.905701	686.75
1370.438341	690.75
1370.970925	690.25
1371.503454	687.75
1372.035926	686.0
1372.568344	684.0
1373.100705	683.5
1373.633011	685.25
1374.165261	683.75
1374.697456	688.0
1375.229595	687.0
1375.761678	684.75
1376.293705	685.5
1376.825677	683.25
1377.357594	683.25
1377.889455	685.0
1378.42126	682.5
1378.953009	686.0
1379.484703	687.0
1380.016342	685.25
1380.547924	688.25
1381.079452	689.0
1381.610923	686.75
1382.142339	689.25
1382.673699	688.0
1383.205004	685.5
1383.736253	685.25
1384.267447	685.5
1384.798585	686.75
1385.329668	690.5
1385.860695	696.25
1386.391666	702.5
1386.922582	715.25
1387.453442	754.25
1387.984247	864.0
1388.514996	1104.25
1389.04569	1064.0
1389.576328	821.5
1390.10691	729.5
1390.637437	706.75
1391.167909	694.0
1391.698325	689.5
1392.228685	688.0
1392.75899	686.0
1393.28924	687.75
1393.819434	688.25
1394.349572	689.0
1394.879655	686.75
1395.409683	684.0
1395.939655	685.0
1396.469571	684.25
1396.999432	687.5
1397.529237	685.25
1398.058987	686.75
1398.588682	685.0
1399.118321	688.25
1399.647905	684.0
1400.177433	684.5
1400.706906	683.25
1401.236323	682.75
1401.765685	682.25
1402.294991	687.75
1402.824242	683.75
1403.353437	686.75
1403.882577	687.75
1404.411662	685.75
1404.940691	687.25
1405.469665	683.5
1405.998583	682.0
1406.527446	685.0
1407.056253	686.25
1407.585005	691.75
1408.113702	689.25
1408.642343	696.5
1409.170929	691.75
1409.69946	707.25
1410.227935	707.5
1410.756354	700.25
1411.284719	699.0
1411.813028	688.25
1412.341281	684.5
1412.869479	684.5
1413.397622	686.75
1413.92571	684.25
1414.453742	682.0
1414.981718	684.0
1415.50964	697.0
1416.037506	682.75
1416.565316	681.5
1417.093072	683.25
1417.620772	686.25
1418.148416	685.0
1418.676005	684.25
1419.203539	680.0
1419.731018	684.25
1420.258441	684.25
1420.785809	686.25
1421.313122	683.5
1421.840379	685.25
1422.367582	685.75
1422.894728	680.75
1423.42182	684.5
1423.948856	682.75
1424.475837	682.5
1425.002762	687.75
1425.529633	685.0
1426.056448	684.75
1426.583207	683.25
1427.109912	684.25
1427.636561	681.75
1428.163155	685.75
1428.689694	681.75
1429.216177	682.0
1429.742605	682.25
1430.268978	680.5
1430.795296	685.0
1431.321558	684.0
1431.847765	680.75
1432.373917	684.0
1432.900014	685.25
1433.426056	686.5
1433.952042	685.75
1434.477973	685.0
1435.003849	683.75
1435.529669	686.25
1436.055435	691.0
1436.581145	683.5
1437.1068	688.0
1437.632399	681.25
1438.157944	683.0
1438.683433	687.0
1439.208868	684.5
1439.734247	686.25
1440.25957	681.75
1440.784839	682.75
1441.310053	685.75
1441.835211	682.0
1442.360314	684.5
1442.885362	686.0
1443.410355	683.75
1443.935292	683.5
1444.460175	683.75
1444.985002	679.75
1445.509774	682.5
1446.034491	685.25
1446.559153	686.5
1447.08376	684.5
1447.608312	684.75
1448.132808	684.25
1448.65725	688.75
1449.181636	685.0
1449.705967	680.25
1450.230243	685.0
1450.754464	685.5
1451.27863	683.75
1451.802741	682.0
1452.326797	684.0
1452.850797	684.5
1453.374743	681.75
1453.898633	679.75
1454.422468	681.75
1454.946249	683.0
1455.469974	679.75
1455.993644	681.25
1456.517259	678.75
1457.040819	681.25
1457.564324	684.75
1458.087773	685.0
1458.611168	683.25
1459.134508	683.25
1459.657793	685.5
1460.181022	683.0
1460.704197	683.5
1461.227316	682.5
1461.750381	685.25
1462.27339	681.5
1462.796345	691.75
1463.842089	695.0
1464.364878	683.75
1464.887613	683.5
1465.410292	681.5
1465.932916	682.25
1466.455486	684.25
1466.978	683.25
1467.50046	684.0
1468.022864	682.5
1468.545214	680.5
1469.067508	686.75
1469.589748	681.0
1470.111932	684.0
1470.634062	679.5
1471.156136	682.5
1471.678156	682.25
1472.20012	680.0
1472.72203	679.25
1473.243885	681.0
1473.765685	683.5
1474.28743	681.0
1474.80912	679.75
1475.330755	681.0
1475.852335	682.0
1476.37386	684.5
1476.89533	683.25
1477.416745	684.5
1477.938106	685.25
1478.459411	681.25
1478.980662	679.5
1479.501857	681.0
1480.022998	681.5
1480.544084	681.5
1481.065115	682.0
1481.586091	680.0
1482.107012	681.5
1482.627878	681.25
1483.14869	680.5
1483.669446	685.5
1484.190148	682.5
1484.710794	684.5
1485.231386	682.25
1485.751923	682.25
1486.272406	680.5
1486.792833	681.75
1487.313205	681.75
1487.833523	682.25
1488.353786	680.25
1488.873994	683.25
1489.394147	685.5
1489.914245	680.0
1490.434288	685.25
1490.954277	682.5
1491.474211	683.75
1491.99409	681.75
1492.513914	678.75
1493.033683	682.0
1493.553398	679.5
1494.073057	682.5
1494.592662	678.5
1495.112212	684.0
1495.631708	685.0
1496.151148	685.0
1496.670534	682.25
1497.189865	678.5
1497.709141	682.5
1498.228362	680.75
1498.747529	683.0
1499.266641	679.5
1499.785698	691.75
1500.3047	680.25
1500.823648	679.75
1501.34254	682.25
1501.861379	683.0
1502.380162	680.25
1502.89889	676.0
1503.417564	679.25
1503.936183	680.75
1504.454748	682.0
1504.973257	679.5
1505.491712	677.25
1506.010112	678.5
1506.528458	681.5
1507.046748	683.25
1507.564984	683.5
1508.083166	684.25
1508.601292	682.75
1509.119364	680.5
1509.637381	679.5
1510.155344	682.25
1510.673252	692.0
1511.191105	681.0
1511.708903	680.75
1512.226647	686.5
1512.744336	681.25
1513.261971	680.5
1513.77955	684.25
1514.297076	680.5
1514.814546	683.25
1515.331962	679.5
1515.849323	680.5
1516.366629	681.0
1516.883881	681.5
1517.401078	680.0
1517.918221	680.75
1518.435309	680.0
1518.952342	682.75
1519.469321	686.5
1519.986245	677.0
1520.503114	681.0
1521.019929	678.0
1521.536689	684.0
1522.053395	679.5
1522.570046	684.75
1523.086642	683.0
1523.603184	683.5
1524.119671	685.75
1524.636103	679.5
1525.152481	682.25
1525.668805	689.0
1526.185073	707.75
1526.701288	700.5
1527.217447	686.25
1527.733552	687.5
1528.249603	679.75
1528.765599	680.75
1529.28154	685.25
1529.797427	682.25
1530.313259	682.75
1530.829037	684.5
1531.34476	684.25
1531.860429	682.75
1532.376043	680.25
1532.891602	682.5
1533.407107	677.5
1533.922558	682.25
1534.437954	687.0
1534.953295	685.25
1535.468582	681.25
1535.983815	681.75
1536.498993	682.75
1537.014116	684.25
1537.529185	679.0
1538.044199	682.25
1538.559159	689.75
1539.074064	683.0
1539.588915	680.25
1540.103712	686.5
1540.618454	683.0
1541.133141	678.25
1541.647774	679.75
1542.162353	682.5
1542.676877	680.5
1543.191346	684.25
1543.705761	683.0
1544.220122	688.25
1544.734428	683.0
1545.24868	681.25
1545.762877	676.75
1546.27702	681.25
1546.791109	685.25
1547.305143	680.75
1547.819122	683.0
1548.333047	683.25
1548.846918	684.25
1549.360734	684.25
1549.874496	685.5
1550.388204	685.25
1550.901857	687.25
1551.415455	687.25
1551.929	684.5
1552.442489	683.0
1552.955925	680.25
1553.469306	681.0
1553.982632	682.75
1554.495905	682.75
1555.009123	681.5
1555.522286	684.25
1556.035395	684.25
1556.54845	684.0
1557.06145	685.5
1557.574396	683.5
1558.087288	685.25
1558.600125	686.75
1559.112908	685.75
1559.625637	681.5
1560.138311	684.0
1560.650931	680.5
1561.163497	683.5
1561.676008	685.5
1562.188465	687.0
1562.700867	683.25
1563.213216	684.75
1563.725509	684.75
1564.237749	686.25
1564.749934	686.5
1565.262065	684.5
1565.774142	684.0
1566.286164	686.0
1566.798132	684.25
1567.310046	686.25
1567.821906	689.75
1568.333711	686.25
1568.845462	683.25
1569.357158	685.25
1569.868801	684.0
1570.380389	684.75
1570.891922	682.0
1571.403402	685.75
1571.914827	684.25
1572.426198	683.25
1572.937515	682.25
1573.448777	687.5
1573.959985	680.75
1574.471139	681.75
1574.982239	683.75
1575.493285	683.75
1576.004276	679.75
1576.515213	681.5
1577.026096	679.25
1577.536924	683.5
1578.047698	683.0
1578.558419	683.5
1579.069084	681.25
1579.579696	682.5
1580.090254	684.25
1580.600757	681.0
1581.111206	684.0
1581.621601	684.75
1582.131941	683.5
1582.642228	683.75
1583.15246	683.5
1583.662638	685.25
1584.172762	684.0
1584.682832	684.0
1585.192847	679.75
1585.702809	681.75
1586.212716	683.75
1586.722569	681.75
1587.232368	682.25
1587.742113	681.75
1588.251803	679.75
1588.76144	684.5
1589.271022	680.5
1589.78055	684.5
1590.290024	682.5
1590.799444	679.0
1591.30881	679.75
1591.818121	683.5
1592.327379	679.0
