1042.414189	708.5
1042.980685	701.75
1043.547124	700.0
1044.113505	696.0
1044.679828	699.25
1045.246093	697.5
1045.8123	694.25
1046.378449	689.25
1046.94454	690.75
1047.510573	689.0
1048.076548	689.25
1048.642465	688.0
1049.208325	687.25
1049.774126	685.5
1050.339869	687.5
1050.905555	685.75
1051.471183	686.5
1052.036752	683.25
1052.602264	684.0
1053.167718	684.5
1053.733114	682.25
1054.298452	679.5
1054.863733	680.25
1055.428955	675.75
1055.994119	682.5
1056.559226	678.25
1057.124275	679.25
1057.689266	678.0
1058.254199	677.5
1058.819074	676.0
1059.383891	677.0
1059.94865	681.5
1060.513352	676.0
1061.077996	676.75
1061.642582	676.75
1062.20711	681.0
1062.77158	681.5
1063.335992	679.0
1063.900347	678.0
1064.464643	678.25
1065.028882	674.25
1065.593063	679.0
1066.157187	676.5
1066.721252	679.0
1067.28526	680.0
1067.84921	678.0
1068.413102	680.75
1068.976936	676.5
1069.540713	676.75
1070.104431	686.5
1070.668092	675.75
1071.231696	678.75
1071.795241	679.0
1072.358729	675.5
1072.922159	678.0
1073.485531	676.0
1074.048845	677.0
1074.612102	678.25
1075.175301	676.5
1075.738442	677.0
1076.301525	675.5
1076.864551	680.75
1077.427519	676.25
1077.990429	678.25
1078.553281	676.5
1079.116076	677.75
1079.678813	679.75
1080.241492	677.25
1080.804114	679.5
1081.366678	679.75
1081.929184	681.0
1082.491633	682.75
1083.054024	679.5
1083.616357	682.75
1084.178632	683.25
1084.74085	684.25
1085.30301	679.75
1085.865113	686.75
1086.427158	686.75
1086.989145	688.25
1087.551074	689.5
1088.112946	689.25
1088.67476	693.75
1089.236517	693.75
1089.798216	692.5
1090.359857	693.25
1090.92144	691.25
1091.482966	694.25
1092.044435	693.5
1092.605845	696.25
1093.167199	697.5
1093.728494	698.25
1094.289732	703.5
1094.850912	698.0
1095.412035	703.75
1095.9731	696.25
1096.534107	694.5
1097.095057	698.25
1097.65595	689.75
1098.216784	687.75
1098.777561	686.5
1099.338281	689.25
1099.898943	688.75
1100.459547	684.0
1101.020094	681.75
1101.580584	684.25
1102.141015	679.25
1102.701389	677.75
1103.261706	677.5
1103.821965	676.5
1104.382167	675.25
1104.942311	674.0
1105.502397	672.25
1106.062426	676.75
1106.622398	677.25
1107.182312	676.5
1107.742168	674.0
1108.301967	675.25
1108.861708	669.5
1109.421392	673.75
1109.981019	671.5
1110.540587	674.25
1111.100099	675.25
1111.659553	672.75
1112.218949	670.75
1112.778288	671.5
1113.33757	671.5
1113.896794	669.75
1114.45596	669.0
1115.015069	670.75
1115.574121	672.25
1116.133115	670.0
1116.692052	673.0
1117.250931	672.75
1117.809753	668.5
1118.368517	669.5
1118.927224	672.75
1119.485873	669.0
1120.044465	673.0
1120.603	668.75
1121.161477	669.0
1121.719897	669.0
1122.278259	671.5
1122.836564	668.0
1123.394812	673.0
1123.953002	668.75
1124.511135	672.0
1125.06921	671.0
1125.627228	669.5
1126.185189	666.5
1126.743092	668.0
1127.300938	670.25
1127.858726	665.25
1128.416457	666.75
1128.974131	670.0
1129.531748	667.25
1130.089307	668.25
1130.646808	668.25
1131.204252	671.0
1131.761639	670.5
1132.318969	667.5
1132.876241	668.25
1133.433456	670.75
1133.990614	670.25
1134.547714	668.75
1135.104757	669.75
1135.661743	669.0
1136.218671	667.75
1136.775542	668.0
1137.332356	667.0
1137.889112	667.5
1138.445811	671.5
1139.002453	669.75
1139.559037	669.75
1140.115565	666.5
1140.672035	669.5
1141.228447	665.75
1141.784803	665.75
1142.341101	667.25
1142.897342	666.25
1143.453525	668.25
1144.009651	669.0
1144.565721	672.5
1145.121732	670.25
1145.677687	668.25
1146.233584	668.75
1146.789424	666.75
1147.345207	668.5
1147.900933	669.25
1148.456601	670.0
1149.012212	664.75
1149.567766	667.5
1150.123263	668.5
1150.678702	668.5
1151.234085	668.75
1151.78941	669.5
1152.344678	668.0
1152.899888	669.75
1153.455042	665.25
1154.010138	668.75
1154.565177	667.75
1155.120159	669.5
1155.675084	668.25
1156.229951	665.25
1156.784762	668.75
1157.339515	667.25
1157.894211	668.75
1158.44885	672.0
1159.003432	666.25
1159.557956	666.5
1160.112424	664.5
1160.666834	665.25
1161.221187	669.75
1161.775483	666.5
1162.329722	668.75
1162.883904	669.25
1163.438029	669.5
1163.992096	668.0
1164.546107	665.25
1165.10006	665.75
1165.653956	668.5
1166.207795	670.5
1166.761577	670.0
1167.315302	670.75
1167.86897	668.0
1168.422581	666.5
1168.976134	666.25
1169.529631	670.5
1170.08307	667.0
1170.636453	668.75
1171.189778	666.25
1171.743046	669.0
1172.296257	664.5
1172.849412	667.0
1173.402509	666.75
1173.955549	668.75
1174.508532	668.0
1175.061458	670.75
1175.614327	670.0
1176.167138	669.5
1176.719893	669.0
1177.272591	668.25
1177.825232	667.75
1178.377816	671.25
1178.930342	669.75
1179.482812	665.75
1180.035225	670.0
1180.587581	666.75
1181.139879	667.25
1181.692121	665.0
1182.244306	669.25
1182.796434	666.0
1183.348504	670.5
1183.900518	665.25
1184.452475	670.0
1185.004375	669.0
1185.556218	669.0
1186.108004	667.25
1186.659733	668.25
1187.211405	669.75
1187.76302	668.5
1188.314578	667.5
1188.866079	668.0
1189.417523	669.25
1189.96891	669.25
1190.520241	667.0
1191.071514	668.5
1191.622731	670.0
1192.17389	668.75
1192.724993	669.5
1193.276039	690.5
1193.827027	666.25
1194.377959	670.0
1194.928834	666.25
1195.479653	666.5
1196.030414	668.0
1196.581118	666.25
1197.131766	666.5
1197.682356	669.0
1198.23289	666.5
1198.783367	665.25
1199.333786	666.75
1199.88415	668.5
1200.434456	666.0
1200.984705	667.25
1201.534898	668.0
1202.085033	666.0
1202.635112	665.5
1203.185134	669.25
1203.735099	667.25
1204.285007	668.0
1204.834859	667.5
1205.384653	664.0
1205.934391	669.25
1206.484072	669.0
1207.033696	665.75
1207.583263	668.75
1208.132774	669.75
1208.682228	669.75
1209.231624	664.0
1209.780965	667.75
1210.330248	669.5
1210.879474	667.75
1211.428644	668.75
1211.977757	668.75
1212.526813	667.25
1213.075813	669.75
1213.624755	666.0
1214.173641	667.5
1214.72247	666.5
1215.271242	670.5
1215.819958	666.5
1216.368617	667.5
1216.917219	666.5
1217.465764	667.0
1218.014253	666.0
1218.562685	667.75
1219.11106	667.0
1219.659378	665.5
1220.20764	671.25
1220.755845	670.25
1221.303993	667.75
1221.852085	670.25
1222.400119	670.5
1222.948097	669.75
1223.496019	671.5
1224.043883	673.25
1224.591691	669.75
1225.139443	666.25
1225.687137	669.0
1226.234775	670.25
1226.782357	671.0
1227.329881	668.5
1227.877349	667.5
1228.42476	672.5
1228.972115	672.25
1229.519413	666.5
1230.066654	667.0
1230.613839	670.5
1231.160967	669.25
1231.708038	671.0
1232.255053	668.75
1232.802011	669.5
1233.348912	669.5
1233.895757	671.5
1234.442545	670.75
1234.989277	669.0
1235.535951	667.5
1236.08257	669.0
1236.629131	669.25
1237.175636	667.0
1237.722085	665.75
1238.268477	670.0
1238.814812	667.5
1239.361091	671.0
1239.907313	671.25
1240.453478	667.5
1240.999587	668.5
1241.54564	670.75
1242.091636	670.25
1242.637575	671.0
1243.183457	667.5
1243.729284	673.0
1244.275053	666.25
1244.820766	670.0
1245.366423	670.75
1245.912022	673.75
1246.457566	667.75
1247.003053	671.5
1247.548483	666.25
1248.093857	671.5
1248.639174	667.0
1249.184435	672.0
1249.729639	670.75
1250.274787	670.25
1250.819878	669.25
1251.364912	670.5
1251.909891	668.0
1252.454812	671.5
1252.999677	669.75
1253.544486	669.25
1254.089238	668.0
1254.633934	671.0
1255.178573	671.0
1255.723156	668.0
1256.267682	673.0
1256.812152	669.75
1257.356565	669.25
1257.900922	672.0
1258.445223	669.0
1258.989467	672.75
1259.533654	674.75
1260.077785	695.25
1260.62186	673.5
1261.165878	670.25
1261.70984	673.0
1262.253745	672.25
1262.797594	677.0
1263.341386	682.0
1263.885123	681.75
1264.428802	689.5
1264.972425	694.0
1265.515992	694.0
1266.059503	685.5
1266.602957	679.75
1267.146354	675.25
1267.689696	673.75
1268.23298	672.5
1268.776209	675.5
1269.319381	671.0
1269.862497	669.25
1270.405556	675.5
1270.948559	672.0
1271.491506	672.25
1272.034396	670.75
1272.57723	674.25
1273.120007	672.25
1273.662728	672.0
1274.205393	673.0
1274.748002	669.5
1275.290554	671.75
1275.83305	674.75
1276.375489	671.0
1276.917872	672.5
1277.460199	675.5
1278.00247	670.25
1278.544684	672.25
1279.086842	671.0
1279.628943	674.0
1280.170989	675.25
1280.712978	674.5
1281.25491	674.25
1281.796787	679.25
1282.338607	683.25
1282.880371	700.75
1283.422078	721.25
1283.963729	784.25
1284.505324	881.75
1285.046863	1016.75
1285.588345	996.75
1286.129772	842.75
1286.671142	733.0
1287.212455	694.25
1287.753713	684.25
1288.294914	680.5
1288.836059	680.25
1289.377147	674.0
1289.91818	673.5
1290.459156	669.75
1291.000076	672.25
1291.54094	671.5
1292.081747	672.75
1292.622499	674.25
1293.163194	668.75
1293.703833	673.0
1294.244415	672.75
1294.784942	673.0
1295.325412	670.25
1295.865826	671.25
1296.406184	676.25
1296.946486	675.0
1297.486731	673.75
1298.026921	671.0
1298.567054	670.25
1299.107131	671.5
1299.647152	670.75
1300.187116	668.5
1300.727025	668.75
1301.266877	668.5
1301.806673	670.25
1302.346413	670.0
1302.886097	670.25
1303.425725	671.75
1303.965297	669.0
1304.504812	666.5
1305.044272	672.75
1305.583675	671.0
1306.123022	669.25
1306.662313	669.5
1307.201548	670.5
1307.740727	669.25
1308.279849	669.5
1308.818916	672.25
1309.357926	668.25
1309.896881	670.25
1310.435779	669.75
1310.974621	669.0
1311.513407	670.25
1312.052137	670.5
1312.590811	669.25
1313.129429	671.5
1313.667991	671.75
1314.206497	671.25
1314.744946	670.25
1315.28334	668.5
1315.821678	671.5
1316.359959	668.75
1316.898184	672.5
1317.436354	669.0
1317.974467	668.5
1318.512525	669.5
1319.050526	668.0
1319.588471	668.5
1320.12636	667.75
1320.664194	671.25
1321.201971	668.75
1321.739692	671.75
1322.277357	664.5
1322.814967	669.0
1323.35252	669.5
1323.890017	675.0
1324.427458	670.5
1324.964843	666.75
1325.502173	671.25
1326.039446	666.75
1326.576663	666.0
1327.113824	671.75
1327.65093	670.25
1328.187979	671.25
1328.724972	669.0
1329.26191	668.25
1329.798791	670.5
1330.335617	667.5
1330.872386	670.75
1331.4091	667.5
1331.945758	669.25
1332.48236	668.75
1333.018905	668.0
1333.555395	668.5
1334.091829	668.75
1334.628207	666.75
1335.164529	669.5
1335.700796	672.25
1336.237006	669.25
1336.77316	671.25
1337.309259	668.0
1337.845301	666.5
1338.381288	671.5
1338.917219	665.5
1339.453094	667.75
1339.988913	669.0
1340.524676	665.75
1341.060383	666.25
1341.596034	669.25
1342.13163	667.25
1342.66717	669.5
1343.202653	671.5
1343.738081	669.25
1344.273453	670.5
1344.80877	671.0
1345.34403	667.25
1345.879235	671.0
1346.414383	667.25
1346.949476	669.25
1347.484513	667.5
1348.019494	668.75
1348.55442	668.25
1349.089289	667.5
1349.624103	667.25
1350.158861	672.5
1350.693563	671.75
1351.228209	669.25
1351.7628	668.5
1352.297334	670.0
1352.831813	668.5
1353.366236	672.75
1353.900604	674.5
1354.434915	670.25
1354.969171	667.75
1355.503371	667.75
1356.037515	670.75
1356.571604	666.75
1357.105636	668.0
1357.639613	668.0
1358.173535	671.5
1358.7074	669.75
1359.24121	671.0
1359.774964	670.5
1360.308662	668.75
1360.842304	669.0
1361.375891	668.0
1361.909422	670.75
1362.442897	668.0
1362.976317	669.5
1363.50968	671.0
1364.042989	668.5
1364.576241	666.75
1365.109438	670.0
1365.642579	672.25
1366.175664	674.5
1366.708693	671.75
1367.241667	669.25
1367.774585	671.5
1368.307448	670.25
1368.840255	673.5
1369.373006	670.5
1369.905701	678.25
1370.438341	681.0
1370.970925	682.0
1371.503454	673.0
1372.035926	672.25
1372.568344	670.25
1373.100705	670.25
1373.633011	669.5
1374.165261	674.5
1374.697456	668.5
1375.229595	672.0
1375.761678	672.75
1376.293705	676.0
1376.825677	672.25
1377.357594	671.5
1377.889455	673.0
1378.42126	672.5
1378.953009	672.25
1379.484703	674.5
1380.016342	675.25
1380.547924	672.0
1381.079452	675.25
1381.610923	676.5
1382.142339	678.5
1382.673699	678.75
1383.205004	675.25
1383.736253	678.75
1384.267447	680.25
1384.798585	679.25
1385.329668	686.0
1385.860695	691.0
1386.391666	705.0
1386.922582	727.25
1387.453442	782.0
1387.984247	948.5
1388.514996	1316.5
1389.04569	1330.25
1389.576328	949.5
1390.10691	755.5
1390.637437	708.5
1391.167909	695.0
1391.698325	682.75
1392.228685	680.0
1392.75899	675.75
1393.28924	676.5
1393.819434	674.5
1394.349572	675.0
1394.879655	673.5
1395.409683	674.0
1395.939655	671.5
1396.469571	672.5
1396.999432	674.5
1397.529237	674.25
1398.058987	670.25
1398.588682	676.75
1399.118321	673.0
1399.647905	671.5
1400.177433	671.5
1400.706906	671.75
1401.236323	672.5
1401.765685	671.0
1402.294991	669.25
1402.824242	671.75
1403.353437	674.75
1403.882577	671.25
1404.411662	671.0
1404.940691	674.75
1405.469665	672.75
1405.998583	671.75
1406.527446	675.0
1407.056253	674.75
1407.585005	678.25
1408.113702	676.25
1408.642343	689.0
1409.170929	693.0
1409.69946	709.25
1410.227935	722.5
1410.756354	712.75
1411.284719	690.75
1411.813028	679.5
1412.341281	679.0
1412.869479	671.25
1413.397622	670.25
1413.92571	672.5
1414.453742	668.5
1414.981718	669.75
1415.50964	685.75
1416.037506	669.25
1416.565316	672.75
1417.093072	669.75
1417.620772	669.0
1418.148416	667.25
1418.676005	671.25
1419.203539	667.25
1419.731018	670.75
1420.258441	671.5
1420.785809	669.5
1421.313122	670.75
1421.840379	670.25
1422.367582	666.75
1422.894728	671.25
1423.42182	671.75
1423.948856	669.25
1424.475837	668.75
1425.002762	670.25
1425.529633	670.5
1426.056448	669.5
1426.583207	671.75
1427.109912	672.75
1427.636561	668.5
1428.163155	668.75
1428.689694	669.5
1429.216177	669.75
1429.742605	669.75
1430.268978	666.25
1430.795296	670.0
1431.321558	670.25
1431.847765	665.75
1432.373917	666.75
1432.900014	669.75
1433.426056	667.75
1433.952042	670.75
1434.477973	669.25
1435.003849	664.0
1435.529669	668.5
1436.055435	671.0
1436.581145	671.25
1437.1068	668.0
1437.632399	669.25
1438.157944	671.75
1438.683433	665.5
1439.208868	666.75
1439.734247	670.75
1440.25957	668.5
1440.784839	667.75
1441.310053	663.75
1441.835211	670.0
1442.360314	666.75
1442.885362	666.75
1443.410355	670.25
1443.935292	670.25
1444.460175	666.5
1444.985002	668.25
1445.509774	666.5
1446.034491	668.75
1446.559153	670.0
1447.08376	668.25
1447.608312	665.25
1448.132808	664.0
1448.65725	670.0
1449.181636	670.0
1449.705967	669.25
1450.230243	667.0
1450.754464	668.0
1451.27863	666.5
1451.802741	665.5
1452.326797	668.0
1452.850797	664.5
1453.374743	667.0
1453.898633	668.0
1454.422468	667.5
1454.946249	666.5
1455.469974	667.75
1455.993644	666.75
1456.517259	666.5
1457.040819	668.5
1457.564324	668.5
1458.087773	669.5
1458.611168	666.25
1459.134508	669.0
1459.657793	664.75
1460.181022	666.0
1460.704197	667.25
1461.227316	668.0
1461.750381	671.0
1462.27339	668.25
1462.796345	675.25
1463.842089	679.5
1464.364878	665.5
1464.887613	668.0
1465.410292	669.5
1465.932916	667.75
1466.455486	666.25
1466.978	667.25
1467.50046	666.0
1468.022864	666.0
1468.545214	667.0
1469.067508	669.25
1469.589748	664.0
1470.111932	668.25
1470.634062	668.25
1471.156136	666.75
1471.678156	665.75
1472.20012	671.0
1472.72203	665.75
1473.243885	664.25
1473.765685	666.25
1474.28743	669.25
1474.80912	664.75
1475.330755	667.5
1475.852335	664.0
1476.37386	666.0
1476.89533	669.25
1477.416745	665.0
1477.938106	665.0
1478.459411	666.75
1478.980662	668.0
1479.501857	668.0
1480.022998	669.0
1480.544084	667.25
1481.065115	665.75
1481.586091	668.75
1482.107012	667.75
1482.627878	667.75
1483.14869	664.5
1483.669446	667.75
1484.190148	666.75
1484.710794	666.25
1485.231386	666.25
1485.751923	665.5
1486.272406	669.25
1486.792833	664.5
1487.313205	668.0
1487.833523	666.0
1488.353786	663.75
1488.873994	667.75
1489.394147	667.25
1489.914245	667.75
1490.434288	667.75
1490.954277	664.25
1491.474211	669.5
1491.99409	667.0
1492.513914	666.0
1493.033683	666.5
1493.553398	663.75
1494.073057	665.25
1494.592662	667.25
1495.112212	667.5
1495.631708	665.75
1496.151148	666.25
1496.670534	665.25
1497.189865	666.5
1497.709141	668.5
1498.228362	667.0
1498.747529	669.75
1499.266641	667.5
1499.785698	672.25
1500.3047	665.75
1500.823648	670.0
1501.34254	668.5
1501.861379	666.0
1502.380162	664.75
1502.89889	664.25
1503.417564	669.25
1503.936183	667.5
1504.454748	665.0
1504.973257	667.0
1505.491712	666.25
1506.010112	665.0
1506.528458	666.25
1507.046748	669.25
1507.564984	668.5
1508.083166	665.5
1508.601292	665.75
1509.119364	665.5
1509.637381	667.5
1510.155344	667.75
1510.673252	672.0
1511.191105	665.5
1511.708903	667.0
1512.226647	664.0
1512.744336	667.25
1513.261971	665.25
1513.77955	666.5
1514.297076	669.5
1514.814546	669.5
1515.331962	669.0
1515.849323	665.0
1516.366629	667.0
1516.883881	663.75
1517.401078	666.5
1517.918221	664.25
1518.435309	668.25
1518.952342	666.75
1519.469321	663.75
1519.986245	667.25
1520.503114	666.5
1521.019929	669.25
1521.536689	664.75
1522.053395	666.75
1522.570046	666.75
1523.086642	668.75
1523.603184	668.0
1524.119671	668.0
1524.636103	667.75
1525.152481	667.5
1525.668805	671.0
1526.185073	692.25
1526.701288	682.25
1527.217447	669.5
1527.733552	669.0
1528.249603	667.5
1528.765599	666.75
1529.28154	666.5
1529.797427	668.0
1530.313259	664.5
1530.829037	668.25
1531.34476	666.75
1531.860429	665.0
1532.376043	666.5
1532.891602	667.25
1533.407107	666.0
1533.922558	667.75
1534.437954	666.5
1534.953295	668.75
1535.468582	667.5
1535.983815	665.5
1536.498993	668.25
1537.014116	665.0
1537.529185	664.0
1538.044199	666.5
1538.559159	668.75
1539.074064	667.75
1539.588915	669.5
1540.103712	666.0
1540.618454	666.5
1541.133141	665.0
1541.647774	668.25
1542.162353	665.5
1542.676877	665.75
1543.191346	667.5
1543.705761	667.25
1544.220122	666.75
1544.734428	665.75
1545.24868	666.0
1545.762877	667.0
1546.27702	666.75
1546.791109	666.25
1547.305143	666.0
1547.819122	669.75
1548.333047	667.75
1548.846918	667.5
1549.360734	665.75
1549.874496	669.5
1550.388204	667.25
1550.901857	670.5
1551.415455	667.75
1551.929	665.0
1552.442489	668.0
1552.955925	663.25
1553.469306	664.75
1553.982632	669.0
1554.495905	670.25
1555.009123	668.0
1555.522286	670.0
1556.035395	667.75
1556.54845	666.75
1557.06145	669.25
1557.574396	666.5
1558.087288	667.0
1558.600125	670.5
1559.112908	670.0
1559.625637	666.0
1560.138311	668.75
1560.650931	669.25
1561.163497	665.0
1561.676008	668.25
1562.188465	668.25
1562.700867	669.5
1563.213216	668.75
1563.725509	669.5
1564.237749	672.75
1564.749934	672.25
1565.262065	672.75
1565.774142	669.5
1566.286164	673.0
1566.798132	672.25
1567.310046	670.0
1567.821906	671.0
1568.333711	667.75
1568.845462	667.75
1569.357158	666.25
1569.868801	668.5
1570.380389	670.0
1570.891922	668.75
1571.403402	669.5
1571.914827	671.0
1572.426198	669.25
1572.937515	668.5
1573.448777	668.75
1573.959985	666.75
1574.471139	669.0
1574.982239	664.25
1575.493285	665.25
1576.004276	668.75
1576.515213	665.5
1577.026096	667.75
1577.536924	666.75
1578.047698	671.0
1578.558419	666.0
1579.069084	666.0
1579.579696	667.0
1580.090254	668.25
1580.600757	667.75
1581.111206	664.5
1581.621601	667.5
1582.131941	666.0
1582.642228	667.75
1583.15246	667.5
1583.662638	668.0
1584.172762	664.25
1584.682832	667.75
1585.192847	665.25
1585.702809	667.5
1586.212716	667.25
1586.722569	665.5
1587.232368	666.25
1587.742113	665.25
1588.251803	667.25
1588.76144	671.25
1589.271022	667.0
1589.78055	663.0
1590.290024	666.25
1590.799444	665.75
1591.30881	666.25
1591.818121	667.5
1592.327379	664.5
