1042.414189	702.0
1042.980685	702.0
1043.547124	698.0
1044.113505	699.5
1044.679828	696.75
1045.246093	696.25
1045.8123	698.5
1046.378449	697.25
1046.94454	690.25
1047.510573	690.25
1048.076548	689.5
1048.642465	689.25
1049.208325	687.0
1049.774126	686.0
1050.339869	684.25
1050.905555	685.25
1051.471183	683.75
1052.036752	682.0
1052.602264	681.5
1053.167718	682.75
1053.733114	683.25
1054.298452	678.5
1054.863733	684.25
1055.428955	678.5
1055.994119	680.5
1056.559226	681.0
1057.124275	678.75
1057.689266	676.75
1058.254199	678.25
1058.819074	675.5
1059.383891	678.75
1059.94865	680.25
1060.513352	678.25
1061.077996	677.25
1061.642582	675.0
1062.20711	677.25
1062.77158	675.5
1063.335992	679.25
1063.900347	675.25
1064.464643	677.0
1065.028882	675.5
1065.593063	678.5
1066.157187	677.25
1066.721252	678.75
1067.28526	677.0
1067.84921	674.75
1068.413102	678.5
1068.976936	678.0
1069.540713	677.5
1070.104431	687.0
1070.668092	674.25
1071.231696	678.5
1071.795241	676.0
1072.358729	672.25
1072.922159	678.25
1073.485531	682.25
1074.048845	676.75
1074.612102	681.25
1075.175301	678.0
1075.738442	677.0
1076.301525	681.25
1076.864551	682.75
1077.427519	680.0
1077.990429	681.75
1078.553281	684.5
1079.116076	683.5
1079.678813	682.0
1080.241492	684.0
1080.804114	685.25
1081.366678	687.0
1081.929184	687.5
1082.491633	694.25
1083.054024	690.25
1083.616357	691.25
1084.178632	693.0
1084.74085	692.25
1085.30301	695.5
1085.865113	695.25
1086.427158	701.0
1086.989145	696.75
1087.551074	699.75
1088.112946	706.0
1088.67476	708.75
1089.236517	709.25
1089.798216	715.25
1090.359857	709.5
1090.92144	718.5
1091.482966	718.0
1092.044435	722.25
1092.605845	719.25
1093.167199	726.25
1093.728494	720.5
1094.289732	722.25
1094.850912	719.25
1095.412035	725.0
1095.9731	716.25
1096.534107	717.75
1097.095057	719.5
1097.65595	707.25
1098.216784	703.0
1098.777561	700.75
1099.338281	706.25
1099.898943	702.25
1100.459547	696.5
1101.020094	693.0
1101.580584	690.75
1102.141015	687.5
1102.701389	689.5
1103.261706	681.75
1103.821965	685.75
1104.382167	682.25
1104.942311	687.25
1105.502397	679.75
1106.062426	680.25
1106.622398	681.25
1107.182312	679.0
1107.742168	676.25
1108.301967	680.25
1108.861708	674.0
1109.421392	676.75
1109.981019	672.25
1110.540587	671.75
1111.100099	676.75
1111.659553	673.0
1112.218949	674.25
1112.778288	672.25
1113.33757	670.5
1113.896794	671.75
1114.45596	670.25
1115.015069	672.75
1115.574121	670.0
1116.133115	673.75
1116.692052	672.5
1117.250931	673.75
1117.809753	670.0
1118.368517	670.75
1118.927224	670.5
1119.485873	670.75
1120.044465	671.0
1120.603	669.25
1121.161477	672.5
1121.719897	671.5
1122.278259	669.25
1122.836564	671.5
1123.394812	670.0
1123.953002	674.25
1124.511135	669.25
1125.06921	667.0
1125.627228	667.75
1126.185189	667.75
1126.743092	666.5
1127.300938	669.0
1127.858726	669.5
1128.416457	669.0
1128.974131	668.75
1129.531748	669.0
1130.089307	671.0
1130.646808	669.5
1131.204252	669.0
1131.761639	669.25
1132.318969	668.0
1132.876241	666.75
1133.433456	668.0
1133.990614	666.5
1134.547714	668.25
1135.104757	669.0
1135.661743	668.75
1136.218671	670.0
1136.775542	669.0
1137.332356	669.0
1137.889112	667.5
1138.445811	670.25
1139.002453	668.25
1139.559037	668.5
1140.115565	666.5
1140.672035	667.5
1141.228447	664.5
1141.784803	669.0
1142.341101	668.25
1142.897342	669.75
1143.453525	668.0
1144.009651	668.25
1144.565721	669.0
1145.121732	668.25
1145.677687	669.75
1146.233584	670.25
1146.789424	667.25
1147.345207	670.25
1147.900933	671.75
1148.456601	667.0
1149.012212	665.25
1149.567766	672.75
1150.123263	670.75
1150.678702	668.75
1151.234085	668.0
1151.78941	670.25
1152.344678	666.75
1152.899888	669.75
1153.455042	667.75
1154.010138	669.5
1154.565177	669.5
1155.120159	668.75
1155.675084	670.25
1156.229951	668.25
1156.784762	668.25
1157.339515	667.5
1157.894211	669.5
1158.44885	669.25
1159.003432	666.75
1159.557956	666.5
1160.112424	667.25
1160.666834	669.25
1161.221187	669.25
1161.775483	669.25
1162.329722	667.5
1162.883904	666.75
1163.438029	668.0
1163.992096	665.5
1164.546107	666.75
1165.10006	667.0
1165.653956	666.25
1166.207795	668.75
1166.761577	665.75
1167.315302	668.0
1167.86897	667.0
1168.422581	669.0
1168.976134	664.25
1169.529631	670.0
1170.08307	664.5
1170.636453	667.0
1171.189778	666.75
1171.743046	668.75
1172.296257	665.75
1172.849412	667.5
1173.402509	667.0
1173.955549	666.25
1174.508532	668.75
1175.061458	669.25
1175.614327	665.0
1176.167138	666.75
1176.719893	668.5
1177.272591	665.25
1177.825232	669.75
1178.377816	666.75
1178.930342	667.25
1179.482812	670.0
1180.035225	667.0
1180.587581	665.5
1181.139879	666.5
1181.692121	671.75
1182.244306	665.75
1182.796434	667.25
1183.348504	667.25
1183.900518	665.5
1184.452475	667.75
1185.004375	669.25
1185.556218	667.5
1186.108004	667.0
1186.659733	667.75
1187.211405	668.5
1187.76302	666.25
1188.314578	670.25
1188.866079	666.0
1189.417523	665.25
1189.96891	664.5
1190.520241	667.0
1191.071514	669.0
1191.622731	665.0
1192.17389	670.0
1192.724993	668.25
1193.276039	687.25
1193.827027	668.75
1194.377959	668.5
1194.928834	665.5
1195.479653	668.75
1196.030414	664.75
1196.581118	670.5
1197.131766	668.5
1197.682356	668.0
1198.23289	664.0
1198.783367	667.5
1199.333786	667.25
1199.88415	665.75
1200.434456	669.0
1200.984705	668.0
1201.534898	663.25
1202.085033	667.75
1202.635112	666.75
1203.185134	669.0
1203.735099	664.5
1204.285007	665.0
1204.834859	668.0
1205.384653	664.5
1205.934391	670.25
1206.484072	667.25
1207.033696	668.5
1207.583263	666.25
1208.132774	666.25
1208.682228	664.5
1209.231624	667.75
1209.780965	665.5
1210.330248	667.0
1210.879474	668.5
1211.428644	669.5
1211.977757	666.5
1212.526813	666.0
1213.075813	669.5
1213.624755	664.5
1214.173641	669.75
1214.72247	669.5
1215.271242	670.25
1215.819958	665.75
1216.368617	669.0
1216.917219	668.0
1217.465764	668.5
1218.014253	668.25
1218.562685	663.0
1219.11106	669.0
1219.659378	666.75
1220.20764	667.75
1220.755845	667.75
1221.303993	669.25
1221.852085	670.5
1222.400119	668.75
1222.948097	664.25
1223.496019	670.0
1224.043883	668.25
1224.591691	667.75
1225.139443	666.75
1225.687137	668.0
1226.234775	664.75
1226.782357	668.5
1227.329881	666.5
1227.877349	668.75
1228.42476	667.75
1228.972115	669.25
1229.519413	666.75
1230.066654	667.0
1230.613839	670.0
1231.160967	671.25
1231.708038	672.0
1232.255053	667.5
1232.802011	669.75
1233.348912	665.5
1233.895757	666.75
1234.442545	669.25
1234.989277	672.0
1235.535951	669.0
1236.08257	671.5
1236.629131	670.0
1237.175636	669.5
1237.722085	669.25
1238.268477	669.0
1238.814812	670.75
1239.361091	669.5
1239.907313	664.5
1240.453478	669.5
1240.999587	669.0
1241.54564	669.25
1242.091636	672.5
1242.637575	667.25
1243.183457	667.25
1243.729284	668.25
1244.275053	668.75
1244.820766	668.0
1245.366423	668.75
1245.912022	668.25
1246.457566	668.75
1247.003053	674.0
1247.548483	672.25
1248.093857	669.5
1248.639174	669.25
1249.184435	674.25
1249.729639	670.25
1250.274787	670.5
1250.819878	669.5
1251.364912	670.5
1251.909891	670.75
1252.454812	667.5
1252.999677	671.0
1253.544486	669.75
1254.089238	671.0
1254.633934	670.25
1255.178573	667.75
1255.723156	672.0
1256.267682	670.75
1256.812152	671.25
1257.356565	671.5
1257.900922	668.75
1258.445223	670.5
1258.989467	671.75
1259.533654	674.25
1260.62186	671.5
1261.165878	670.25
1261.70984	670.25
1262.253745	674.0
1262.797594	674.75
1263.341386	676.0
1263.885123	686.75
1264.428802	695.0
1264.972425	697.0
1265.515992	697.25
1266.059503	691.25
1266.602957	672.5
1267.146354	671.25
1267.689696	672.25
1268.23298	675.5
1268.776209	672.25
1269.319381	672.25
1269.862497	674.75
1270.405556	672.0
1270.948559	671.5
1271.491506	671.25
1272.034396	673.5
1272.57723	671.75
1273.120007	670.75
1273.662728	670.25
1274.205393	671.5
1274.748002	672.75
1275.290554	672.5
1275.83305	670.75
1276.375489	673.25
1276.917872	668.0
1277.460199	671.75
1278.00247	672.75
1278.544684	674.0
1279.086842	673.25
1279.628943	672.25
1280.170989	676.75
1280.712978	674.0
1281.25491	678.0
1281.796787	681.25
1282.338607	688.25
1282.880371	696.5
1283.422078	724.5
1283.963729	787.5
1284.505324	900.0
1285.046863	1039.0
1285.588345	1019.75
1286.129772	861.25
1286.671142	738.75
1287.212455	699.25
1287.753713	686.0
1288.294914	683.0
1288.836059	676.5
1289.377147	676.5
1289.91818	671.75
1290.459156	674.25
1291.000076	673.5
1291.54094	672.5
1292.081747	672.5
1292.622499	672.0
1293.163194	670.25
1293.703833	670.5
1294.244415	671.75
1294.784942	673.25
1295.325412	667.75
1295.865826	669.25
1296.406184	670.0
1296.946486	673.75
1297.486731	672.5
1298.026921	670.5
1298.567054	668.0
1299.107131	673.0
1299.647152	671.0
1300.187116	672.5
1300.727025	667.75
1301.266877	668.0
1301.806673	670.25
1302.346413	670.0
1302.886097	669.5
1303.425725	671.0
1303.965297	672.5
1304.504812	673.75
1305.044272	668.75
1305.583675	670.0
1306.123022	668.0
1306.662313	667.5
1307.201548	670.75
1307.740727	669.5
1308.279849	670.0
1308.818916	668.0
1309.357926	670.5
1309.896881	670.0
1310.435779	670.75
1310.974621	671.5
1311.513407	671.0
1312.052137	670.5
1312.590811	669.5
1313.129429	671.5
1313.667991	664.75
1314.206497	671.25
1314.744946	667.25
1315.28334	667.75
1315.821678	669.75
1316.359959	669.25
1316.898184	669.5
1317.436354	668.0
1317.974467	670.0
1318.512525	670.75
1319.050526	669.0
1319.588471	669.0
1320.12636	670.75
1320.664194	669.5
1321.201971	671.25
1321.739692	673.0
1322.277357	666.5
1322.814967	664.5
1323.35252	670.25
1323.890017	675.75
1324.427458	669.0
1324.964843	668.0
1325.502173	667.25
1326.039446	670.0
1326.576663	671.5
1327.113824	667.5
1327.65093	672.75
1328.187979	669.75
1328.724972	667.75
1329.26191	666.5
1329.798791	668.25
1330.335617	669.25
1330.872386	668.5
1331.4091	669.25
1331.945758	666.5
1332.48236	667.75
1333.018905	669.0
1333.555395	669.0
1334.091829	668.25
1334.628207	668.25
1335.164529	667.25
1335.700796	672.25
1336.237006	667.75
1336.77316	669.0
1337.309259	669.25
1337.845301	670.5
1338.381288	673.25
1338.917219	669.25
1339.453094	668.75
1339.988913	670.0
1340.524676	671.75
1341.060383	667.5
1341.596034	667.75
1342.13163	670.5
1342.66717	668.5
1343.202653	671.75
1343.738081	670.75
1344.273453	670.75
1344.80877	671.25
1345.34403	670.0
1345.879235	670.0
1346.414383	672.25
1346.949476	668.5
1347.484513	670.25
1348.019494	673.0
1348.55442	668.5
1349.089289	668.5
1349.624103	668.5
1350.158861	669.5
1350.693563	669.75
1351.228209	671.25
1351.7628	669.25
1352.297334	667.5
1352.831813	670.0
1353.366236	671.75
1353.900604	672.0
1354.434915	668.25
1354.969171	668.75
1355.503371	671.25
1356.037515	667.75
1356.571604	670.0
1357.105636	671.0
1357.639613	670.5
1358.173535	667.75
1358.7074	670.25
1359.24121	668.5
1359.774964	670.75
1360.308662	668.0
1360.842304	669.0
1361.375891	671.75
1361.909422	670.75
1362.442897	668.0
1362.976317	669.75
1363.50968	669.25
1364.042989	669.5
1364.576241	671.5
1365.109438	670.0
1365.642579	672.75
1366.175664	671.0
1366.708693	674.75
1367.241667	671.0
1367.774585	667.75
1368.307448	672.25
1368.840255	670.75
1369.373006	671.0
1369.905701	678.0
1370.438341	686.0
1370.970925	682.25
1371.503454	673.0
1372.035926	670.5
1372.568344	670.75
1373.100705	672.75
1373.633011	669.5
1374.165261	671.75
1374.697456	671.75
1375.229595	671.5
1375.761678	673.0
1376.293705	673.75
1376.825677	671.5
1377.357594	673.5
1377.889455	669.5
1378.42126	671.75
1378.953009	675.25
1379.484703	672.5
1380.016342	671.75
1380.547924	672.75
1381.079452	675.0
1381.610923	674.75
1382.142339	673.75
1382.673699	675.0
1383.205004	677.75
1383.736253	682.5
1384.267447	679.5
1384.798585	682.5
1385.329668	687.5
1385.860695	693.75
1386.391666	703.5
1386.922582	724.5
1387.453442	793.5
1387.984247	982.0
1388.514996	1384.5
1389.04569	1410.75
1389.576328	970.75
1390.10691	757.25
1390.637437	711.75
1391.167909	699.0
1391.698325	686.0
1392.228685	682.0
1392.75899	679.5
1393.28924	676.25
1393.819434	677.5
1394.349572	674.5
1394.879655	674.75
1395.409683	675.0
1395.939655	673.25
1396.469571	674.0
1396.999432	673.0
1397.529237	665.75
1398.058987	674.75
1398.588682	672.75
1399.118321	672.75
1399.647905	671.0
1400.177433	671.75
1400.706906	674.0
1401.236323	669.75
1401.765685	671.75
1402.294991	673.5
1402.824242	673.25
1403.353437	672.75
1403.882577	669.25
1404.411662	671.75
1404.940691	674.75
1405.469665	676.0
1405.998583	673.0
1406.527446	670.5
1407.056253	675.0
1407.585005	676.75
1408.113702	680.25
1408.642343	684.25
1409.170929	691.25
1409.69946	714.5
1410.227935	727.25
1410.756354	719.25
1411.284719	692.5
1411.813028	682.0
1412.341281	676.0
1412.869479	673.75
1413.397622	672.5
1413.92571	671.25
1414.453742	672.0
1414.981718	667.25
1415.50964	686.25
1416.037506	667.0
1416.565316	672.0
1417.093072	666.75
1417.620772	668.25
1418.148416	672.25
1418.676005	670.25
1419.203539	671.0
1419.731018	672.75
1420.258441	669.25
1420.785809	669.0
1421.313122	667.25
1421.840379	671.25
1422.367582	672.75
1422.894728	671.5
1423.42182	668.75
1423.948856	667.5
1424.475837	667.5
1425.002762	669.5
1425.529633	672.25
1426.056448	668.25
1426.583207	671.5
1427.109912	671.25
1427.636561	671.25
1428.163155	667.5
1428.689694	667.5
1429.216177	670.75
1429.742605	670.25
1430.268978	668.0
1430.795296	670.25
1431.321558	668.5
1431.847765	670.25
1432.373917	668.75
1432.900014	670.0
1433.426056	664.5
1433.952042	671.5
1434.477973	668.75
1435.003849	669.25
1435.529669	671.5
1436.055435	669.0
1436.581145	666.25
1437.1068	666.75
1437.632399	667.75
1438.157944	669.25
1438.683433	669.0
1439.208868	666.25
1439.734247	666.5
1440.25957	668.25
1440.784839	667.75
1441.310053	669.0
1441.835211	667.0
1442.360314	666.25
1442.885362	666.75
1443.410355	667.25
1443.935292	669.75
1444.460175	670.75
1444.985002	668.5
1445.509774	670.0
1446.034491	665.5
1446.559153	668.75
1447.08376	668.5
1447.608312	670.5
1448.132808	668.5
1448.65725	667.0
1449.181636	668.25
1449.705967	667.0
1450.230243	670.25
1450.754464	666.75
1451.27863	668.75
1451.802741	666.5
1452.326797	665.5
1452.850797	667.0
1453.374743	669.25
1453.898633	666.75
1454.422468	670.75
1454.946249	670.25
1455.469974	663.25
1455.993644	665.0
1456.517259	668.0
1457.040819	668.25
1457.564324	666.0
1458.087773	668.0
1458.611168	668.0
1459.134508	666.75
1459.657793	665.5
1460.181022	666.5
1460.704197	667.5
1461.227316	668.25
1461.750381	669.75
1462.27339	670.5
1462.796345	677.75
1463.842089	678.0
1464.364878	671.0
1464.887613	665.25
1465.410292	669.25
1465.932916	667.75
1466.455486	667.5
1466.978	666.0
1467.50046	665.75
1468.022864	668.5
1468.545214	668.0
1469.067508	669.75
1469.589748	668.25
1470.111932	668.5
1470.634062	667.75
1471.156136	667.75
1471.678156	665.25
1472.20012	666.0
1472.72203	666.5
1473.243885	664.25
1473.765685	666.75
1474.28743	667.5
1474.80912	665.75
1475.330755	668.0
1475.852335	665.0
1476.37386	664.25
1476.89533	668.75
1477.416745	663.25
1477.938106	668.0
1478.459411	666.25
1478.980662	668.25
1479.501857	667.75
1480.022998	668.0
1480.544084	665.0
1481.065115	664.5
1481.586091	666.75
1482.107012	664.0
1482.627878	668.0
1483.14869	666.0
1483.669446	667.5
1484.190148	666.25
1484.710794	666.25
1485.231386	668.25
1485.751923	667.25
1486.272406	667.75
1486.792833	667.0
1487.313205	665.75
1487.833523	667.5
1488.353786	664.0
1488.873994	668.0
1489.394147	667.5
1489.914245	664.5
1490.434288	669.5
1490.954277	668.0
1491.474211	668.0
1491.99409	666.5
1492.513914	666.5
1493.033683	665.5
1493.553398	666.25
1494.073057	667.5
1494.592662	666.75
1495.112212	666.5
1495.631708	666.5
1496.151148	668.75
1496.670534	667.25
1497.189865	666.0
1497.709141	667.0
1498.228362	665.25
1498.747529	669.0
1499.266641	663.5
1499.785698	673.75
1500.3047	665.75
1500.823648	666.75
1501.34254	667.25
1501.861379	666.75
1502.380162	664.75
1502.89889	666.0
1503.417564	663.0
1503.936183	670.5
1504.454748	665.0
1504.973257	665.25
1505.491712	666.75
1506.010112	666.5
1506.528458	665.75
1507.046748	665.5
1507.564984	667.75
1508.083166	667.25
1508.601292	665.0
1509.119364	664.75
1509.637381	665.25
1510.155344	665.25
1510.673252	674.25
1511.191105	664.5
1511.708903	667.0
1512.226647	667.5
1512.744336	666.0
1513.261971	668.0
1513.77955	668.0
1514.297076	665.0
1514.814546	665.0
1515.331962	664.25
1515.849323	666.25
1516.366629	666.25
1516.883881	665.5
1517.401078	665.25
1517.918221	669.5
1518.435309	662.75
1518.952342	665.25
1519.469321	670.0
1519.986245	666.5
1520.503114	665.25
1521.019929	665.0
1521.536689	666.25
1522.053395	669.75
1522.570046	665.0
1523.086642	666.75
1523.603184	665.25
1524.119671	665.75
1524.636103	666.5
1525.152481	666.25
1525.668805	669.5
1526.185073	689.75
1526.701288	686.0
1527.217447	667.25
1527.733552	669.25
1528.249603	665.75
1528.765599	669.0
1529.28154	667.75
1529.797427	666.75
1530.313259	663.25
1530.829037	665.75
1531.34476	665.5
1531.860429	667.75
1532.376043	664.25
1532.891602	664.0
1533.407107	665.25
1533.922558	666.75
1534.437954	666.25
1534.953295	667.5
1535.468582	665.25
1535.983815	666.5
1536.498993	667.5
1537.014116	665.75
1537.529185	666.0
1538.044199	668.75
1538.559159	672.0
1539.074064	665.0
1539.588915	666.75
1540.103712	668.0
1540.618454	668.25
1541.133141	667.25
1541.647774	665.0
1542.162353	669.5
1542.676877	667.25
1543.191346	665.0
1543.705761	665.0
1544.220122	665.0
1544.734428	670.0
1545.24868	665.25
1545.762877	669.75
1546.27702	667.5
1546.791109	668.5
1547.305143	665.75
1547.819122	666.0
1548.333047	666.0
1548.846918	664.0
1549.360734	670.5
1549.874496	665.75
1550.388204	666.25
1550.901857	665.0
1551.415455	667.75
1551.929	664.25
1552.442489	667.0
1552.955925	667.5
1553.469306	668.25
1553.982632	669.0
1554.495905	670.25
1555.009123	668.75
1555.522286	666.75
1556.035395	666.0
1556.54845	666.0
1557.06145	667.75
1557.574396	668.0
1558.087288	666.75
1558.600125	668.75
1559.112908	665.5
1559.625637	671.5
1560.138311	662.25
1560.650931	668.25
1561.163497	667.5
1561.676008	668.25
1562.188465	668.75
1562.700867	667.75
1563.213216	666.5
1563.725509	668.5
1564.237749	668.25
1564.749934	669.0
1565.262065	669.25
1565.774142	668.25
1566.286164	667.75
1566.798132	669.0
1567.310046	673.25
1567.821906	671.5
1568.333711	670.5
1568.845462	670.5
1569.357158	672.0
1569.868801	674.5
1570.380389	670.5
1570.891922	666.0
1571.403402	665.25
1571.914827	668.5
1572.426198	666.75
1572.937515	666.0
1573.448777	664.75
1573.959985	668.5
1574.471139	665.75
1574.982239	667.75
1575.493285	665.25
1576.004276	666.75
1576.515213	666.5
1577.026096	667.0
1577.536924	665.0
1578.047698	666.75
1578.558419	666.0
1579.069084	667.0
1579.579696	664.25
1580.090254	667.5
1580.600757	663.5
1581.111206	666.5
1581.621601	665.25
1582.131941	665.75
1582.642228	669.25
1583.15246	669.25
1583.662638	669.25
1584.172762	665.5
1584.682832	668.75
1585.192847	666.5
1585.702809	666.5
1586.212716	669.5
1586.722569	665.0
1587.232368	667.75
1587.742113	665.5
1588.251803	666.75
1588.76144	669.0
1589.271022	667.5
1589.78055	664.75
1590.290024	665.0
1590.799444	671.25
1591.30881	663.75
1591.818121	668.5
1592.327379	667.25
