1042.414189	703.0
1042.980685	703.75
1043.547124	699.5
1044.113505	698.75
1044.679828	695.5
1045.246093	693.0
1045.8123	697.5
1046.378449	699.25
1046.94454	693.0
1047.510573	691.5
1048.076548	692.0
1048.642465	686.75
1049.208325	689.75
1049.774126	689.75
1050.339869	686.25
1050.905555	685.0
1051.471183	687.25
1052.036752	682.5
1052.602264	683.75
1053.167718	683.5
1053.733114	685.5
1054.298452	680.25
1054.863733	683.5
1055.428955	684.25
1055.994119	677.0
1056.559226	679.75
1057.124275	683.0
1057.689266	683.75
1058.254199	680.25
1058.819074	681.0
1059.383891	675.25
1059.94865	678.25
1060.513352	680.75
1061.077996	680.5
1061.642582	679.0
1062.20711	678.25
1062.77158	678.25
1063.335992	678.25
1063.900347	679.5
1064.464643	684.0
1065.028882	677.5
1065.593063	677.5
1066.157187	682.25
1066.721252	681.25
1067.28526	678.75
1067.84921	678.5
1068.413102	679.75
1068.976936	679.25
1069.540713	677.5
1070.104431	688.5
1070.668092	679.0
1071.231696	678.5
1071.795241	678.25
1072.358729	681.0
1072.922159	679.75
1073.485531	681.0
1074.048845	682.5
1074.612102	679.5
1075.175301	684.0
1075.738442	678.75
1076.301525	682.25
1076.864551	684.25
1077.427519	682.25
1077.990429	683.5
1078.553281	685.5
1079.116076	683.5
1079.678813	685.25
1080.241492	689.0
1080.804114	690.5
1081.366678	693.25
1081.929184	691.5
1082.491633	693.25
1083.054024	697.25
1083.616357	693.75
1084.178632	697.25
1084.74085	699.75
1085.30301	702.25
1085.865113	702.25
1086.427158	708.25
1086.989145	706.5
1087.551074	712.0
1088.112946	714.5
1088.67476	718.75
1089.236517	720.75
1089.798216	722.0
1090.359857	727.75
1090.92144	728.5
1091.482966	736.5
1092.044435	728.75
1092.605845	736.25
1093.167199	735.0
1093.728494	731.5
1094.289732	732.25
1094.850912	733.75
1095.412035	740.75
1095.9731	729.75
1096.534107	729.5
1097.095057	734.25
1097.65595	725.0
1098.216784	715.0
1098.777561	711.0
1099.338281	709.25
1099.898943	708.5
1100.459547	707.75
1101.020094	702.75
1101.580584	703.0
1102.141015	692.5
1102.701389	692.5
1103.261706	693.25
1103.821965	688.5
1104.382167	690.5
1104.942311	686.5
1105.502397	684.25
1106.062426	685.75
1106.622398	680.25
1107.182312	680.75
1107.742168	681.0
1108.301967	677.0
1108.861708	677.5
1109.421392	675.0
1109.981019	678.0
1110.540587	676.0
1111.100099	678.0
1111.659553	677.75
1112.218949	674.75
1112.778288	670.0
1113.33757	674.5
1113.896794	675.25
1114.45596	675.0
1115.015069	674.5
1115.574121	675.75
1116.133115	676.0
1116.692052	672.5
1117.250931	672.0
1117.809753	672.5
1118.368517	671.0
1118.927224	674.0
1119.485873	670.5
1120.044465	670.0
1120.603	668.5
1121.161477	666.75
1121.719897	674.0
1122.278259	672.0
1122.836564	669.5
1123.394812	675.0
1123.953002	670.0
1124.511135	670.25
1125.06921	668.5
1125.627228	670.25
1126.185189	671.5
1126.743092	671.25
1127.300938	671.75
1127.858726	668.75
1128.416457	669.0
1128.974131	669.0
1129.531748	670.5
1130.089307	671.0
1130.646808	672.0
1131.204252	667.25
1131.761639	670.25
1132.318969	670.0
1132.876241	670.0
1133.433456	669.75
1133.990614	672.75
1134.547714	672.0
1135.104757	671.5
1135.661743	672.0
1136.218671	669.5
1136.775542	668.5
1137.332356	666.25
1137.889112	669.75
1138.445811	671.75
1139.002453	668.5
1139.559037	669.5
1140.115565	668.25
1140.672035	668.75
1141.228447	668.0
1141.784803	667.25
1142.341101	669.5
1142.897342	672.25
1143.453525	670.25
1144.009651	669.0
1144.565721	666.0
1145.121732	671.25
1145.677687	670.5
1146.233584	670.25
1146.789424	671.5
1147.345207	671.0
1147.900933	669.5
1148.456601	670.0
1149.012212	666.75
1149.567766	668.5
1150.123263	667.5
1150.678702	669.5
1151.234085	667.25
1151.78941	671.0
1152.344678	670.25
1152.899888	666.75
1153.455042	671.0
1154.010138	671.5
1154.565177	672.0
1155.120159	671.75
1155.675084	669.25
1156.229951	669.25
1156.784762	666.25
1157.339515	667.5
1157.894211	669.0
1158.44885	666.25
1159.003432	669.75
1159.557956	668.75
1160.112424	667.5
1160.666834	665.75
1161.221187	669.5
1161.775483	668.0
1162.329722	672.75
1162.883904	666.75
1163.438029	668.0
1163.992096	667.25
1164.546107	667.75
1165.10006	668.75
1165.653956	670.0
1166.207795	669.5
1166.761577	667.5
1167.315302	669.75
1167.86897	668.5
1168.422581	667.75
1168.976134	670.0
1169.529631	664.5
1170.08307	670.5
1170.636453	666.75
1171.189778	668.5
1171.743046	668.0
1172.296257	666.75
1172.849412	668.25
1173.402509	669.0
1173.955549	665.75
1174.508532	668.75
1175.061458	671.0
1175.614327	667.0
1176.167138	668.0
1176.719893	668.5
1177.272591	666.0
1177.825232	666.75
1178.377816	665.75
1178.930342	666.75
1179.482812	670.5
1180.035225	667.75
1180.587581	670.0
1181.139879	664.75
1181.692121	670.0
1182.244306	667.5
1182.796434	666.75
1183.348504	665.0
1183.900518	665.5
1184.452475	667.25
1185.004375	670.75
1185.556218	669.25
1186.108004	665.0
1186.659733	669.5
1187.211405	669.25
1187.76302	667.5
1188.314578	668.75
1188.866079	668.0
1189.417523	669.5
1189.96891	669.0
1190.520241	664.5
1191.071514	672.5
1191.622731	668.25
1192.17389	671.0
1192.724993	666.5
1193.276039	690.5
1193.827027	669.0
1194.377959	667.0
1194.928834	665.0
1195.479653	665.75
1196.030414	670.0
1196.581118	667.0
1197.131766	667.75
1197.682356	667.75
1198.23289	667.5
1198.783367	668.75
1199.333786	663.0
1199.88415	667.0
1200.434456	668.0
1200.984705	670.0
1201.534898	669.0
1202.085033	670.25
1202.635112	669.5
1203.185134	667.0
1203.735099	670.25
1204.285007	666.0
1204.834859	669.75
1205.384653	670.0
1205.934391	668.25
1206.484072	667.0
1207.033696	670.0
1207.583263	666.5
1208.132774	667.75
1208.682228	667.5
1209.231624	665.75
1209.780965	668.75
1210.330248	672.0
1210.879474	669.75
1211.428644	669.75
1211.977757	670.0
1212.526813	669.25
1213.075813	665.75
1213.624755	667.0
1214.173641	667.75
1214.72247	667.5
1215.271242	667.75
1215.819958	667.75
1216.368617	670.0
1216.917219	668.75
1217.465764	667.0
1218.014253	668.75
1218.562685	670.5
1219.11106	667.75
1219.659378	671.0
1220.20764	671.5
1220.755845	669.5
1221.303993	668.0
1221.852085	672.5
1222.400119	671.75
1222.948097	673.0
1223.496019	669.0
1224.043883	669.75
1224.591691	669.25
1225.139443	668.5
1225.687137	668.0
1226.234775	670.0
1226.782357	667.25
1227.329881	668.75
1227.877349	669.25
1228.42476	668.5
1228.972115	667.0
1229.519413	671.75
1230.066654	666.75
1230.613839	666.75
1231.160967	671.5
1231.708038	670.75
1232.255053	670.5
1232.802011	665.25
1233.348912	667.75
1233.895757	668.5
1234.442545	670.0
1234.989277	668.25
1235.535951	670.5
1236.08257	670.75
1236.629131	668.0
1237.175636	669.25
1237.722085	666.75
1238.268477	668.25
1238.814812	671.75
1239.361091	668.75
1239.907313	668.75
1240.453478	672.75
1240.999587	668.5
1241.54564	666.25
1242.091636	666.75
1242.637575	671.75
1243.183457	671.0
1243.729284	670.5
1244.275053	670.0
1244.820766	671.5
1245.366423	669.5
1245.912022	669.0
1246.457566	669.75
1247.003053	670.25
1247.548483	671.0
1248.093857	667.0
1248.639174	672.5
1249.184435	669.5
1249.729639	673.25
1250.274787	668.75
1250.819878	671.75
1251.364912	669.0
1251.909891	671.5
1252.454812	669.25
1252.999677	670.75
1253.544486	671.25
1254.089238	670.25
1254.633934	672.0
1255.178573	671.0
1255.723156	669.5
1256.267682	670.25
1256.812152	666.0
1257.356565	671.0
1257.900922	672.5
1258.445223	670.25
1258.989467	674.25
1259.533654	675.25
1260.62186	673.25
1261.165878	670.5
1261.70984	672.5
1262.253745	674.75
1262.797594	679.0
1263.341386	679.5
1263.885123	684.25
1264.428802	691.75
1264.972425	703.25
1265.515992	699.5
1266.059503	686.0
1266.602957	679.25
1267.146354	678.5
1267.689696	673.5
1268.23298	672.5
1268.776209	676.0
1269.319381	672.25
1269.862497	671.5
1270.405556	671.5
1270.948559	668.25
1271.491506	670.5
1272.034396	673.5
1272.57723	674.75
1273.120007	672.5
1273.662728	672.25
1274.205393	673.0
1274.748002	673.25
1275.290554	674.0
1275.83305	674.0
1276.375489	672.25
1276.917872	671.75
1277.460199	671.25
1278.00247	672.5
1278.544684	676.0
1279.086842	674.75
1279.628943	674.75
1280.170989	670.5
1280.712978	679.25
1281.25491	680.5
1281.796787	681.25
1282.338607	688.0
1282.880371	708.25
1283.422078	737.0
1283.963729	808.25
1284.505324	948.25
1285.046863	1104.75
1285.588345	1063.0
1286.129772	856.5
1286.671142	742.75
1287.212455	702.0
1287.753713	687.75
1288.294914	680.25
1288.836059	680.75
1289.377147	678.5
1289.91818	675.75
1290.459156	676.25
1291.000076	677.0
1291.54094	671.5
1292.081747	671.5
1292.622499	674.5
1293.163194	673.25
1293.703833	674.0
1294.244415	669.75
1294.784942	673.25
1295.325412	672.75
1295.865826	671.0
1296.406184	673.5
1296.946486	673.5
1297.486731	669.75
1298.026921	669.0
1298.567054	670.5
1299.107131	672.0
1299.647152	670.0
1300.187116	669.75
1300.727025	670.5
1301.266877	669.0
1301.806673	670.5
1302.346413	669.75
1302.886097	670.25
1303.425725	666.0
1303.965297	670.0
1304.504812	672.5
1305.044272	671.5
1305.583675	668.0
1306.123022	673.5
1306.662313	670.75
1307.201548	670.25
1307.740727	670.0
1308.279849	669.5
1308.818916	669.25
1309.357926	672.75
1309.896881	672.5
1310.435779	669.25
1310.974621	669.25
1311.513407	670.75
1312.052137	672.0
1312.590811	667.75
1313.129429	669.0
1313.667991	670.5
1314.206497	668.75
1314.744946	671.25
1315.28334	668.75
1315.821678	670.25
1316.359959	670.5
1316.898184	671.25
1317.436354	671.0
1317.974467	669.0
1318.512525	670.5
1319.050526	666.5
1319.588471	669.0
1320.12636	669.75
1320.664194	670.25
1321.201971	670.25
1321.739692	670.75
1322.277357	671.25
1322.814967	670.5
1323.35252	671.75
1323.890017	676.25
1324.427458	669.25
1324.964843	671.75
1325.502173	670.25
1326.039446	667.75
1326.576663	669.25
1327.113824	670.75
1327.65093	669.5
1328.187979	671.0
1328.724972	670.25
1329.26191	668.25
1329.798791	669.25
1330.335617	666.25
1330.872386	669.25
1331.4091	671.5
1331.945758	668.25
1332.48236	670.25
1333.018905	674.25
1333.555395	670.0
1334.091829	668.0
1334.628207	670.5
1335.164529	668.75
1335.700796	671.25
1336.237006	668.0
1336.77316	670.25
1337.309259	671.0
1337.845301	669.5
1338.381288	671.5
1338.917219	671.75
1339.453094	668.75
1339.988913	671.75
1340.524676	668.75
1341.060383	668.5
1341.596034	672.25
1342.13163	667.5
1342.66717	670.75
1343.202653	673.25
1343.738081	672.25
1344.273453	672.5
1344.80877	668.5
1345.34403	670.0
1345.879235	670.0
1346.414383	669.25
1346.949476	670.5
1347.484513	673.75
1348.019494	668.0
1348.55442	669.0
1349.089289	668.5
1349.624103	670.25
1350.158861	670.25
1350.693563	667.5
1351.228209	671.75
1351.7628	668.5
1352.297334	673.5
1352.831813	667.75
1353.366236	669.5
1353.900604	669.5
1354.434915	672.0
1354.969171	671.5
1355.503371	670.5
1356.037515	672.75
1356.571604	669.75
1357.105636	671.0
1357.639613	668.0
1358.173535	671.0
1358.7074	669.75
1359.24121	671.75
1359.774964	672.0
1360.308662	672.0
1360.842304	670.5
1361.375891	672.0
1361.909422	674.5
1362.442897	669.25
1362.976317	670.5
1363.50968	672.25
1364.042989	671.0
1364.576241	671.25
1365.109438	671.75
1365.642579	674.0
1366.175664	672.5
1366.708693	672.75
1367.241667	672.0
1367.774585	672.0
1368.307448	673.0
1368.840255	670.0
1369.373006	674.0
1369.905701	676.5
1370.438341	687.25
1370.970925	682.25
1371.503454	673.25
1372.035926	670.25
1372.568344	670.0
1373.100705	673.5
1373.633011	671.0
1374.165261	669.5
1374.697456	670.5
1375.229595	675.0
1375.761678	673.25
1376.293705	672.5
1376.825677	674.0
1377.357594	670.25
1377.889455	671.75
1378.42126	676.25
1378.953009	675.75
1379.484703	675.5
1380.016342	674.5
1380.547924	677.0
1381.079452	675.25
1381.610923	676.5
1382.142339	679.0
1382.673699	679.0
1383.205004	676.75
1383.736253	685.0
1384.267447	683.0
1384.798585	685.25
1385.329668	687.25
1385.860695	695.0
1386.391666	705.0
1386.922582	743.25
1387.453442	804.0
1387.984247	1035.5
1388.514996	1460.5
1389.04569	1456.0
1389.576328	990.75
1390.10691	765.0
1390.637437	711.5
1391.167909	696.5
1391.698325	689.75
1392.228685	684.0
1392.75899	677.75
1393.28924	678.75
1393.819434	681.75
1394.349572	674.0
1394.879655	678.0
1395.409683	672.75
1395.939655	674.75
1396.469571	676.5
1396.999432	674.0
1397.529237	673.0
1398.058987	673.5
1398.588682	671.0
1399.118321	673.5
1400.706906	672.75
1401.236323	672.75
1401.765685	672.75
1402.294991	668.5
1402.824242	670.0
1403.353437	670.5
1403.882577	670.0
1404.411662	674.25
1404.940691	674.75
1405.469665	674.5
1405.998583	672.5
1406.527446	676.0
1407.056253	675.0
1407.585005	678.25
1408.113702	685.25
1408.642343	687.0
1409.170929	699.0
1409.69946	724.0
1410.227935	735.5
1410.756354	713.5
1411.284719	698.25
1411.813028	683.5
1412.341281	679.5
1412.869479	670.75
1413.397622	676.0
1413.92571	673.0
1414.453742	673.5
1414.981718	670.5
1415.50964	683.75
1416.037506	673.75
1416.565316	671.75
1417.093072	672.5
1417.620772	673.0
1418.148416	674.5
1418.676005	672.0
1419.203539	670.0
1419.731018	671.0
1420.258441	669.0
1420.785809	670.25
1421.313122	669.75
1421.840379	669.25
1422.367582	670.5
1422.894728	670.5
1423.42182	671.75
1423.948856	671.0
1424.475837	670.25
1425.002762	669.0
1425.529633	675.5
1426.056448	670.75
1426.583207	669.75
1427.109912	667.75
1427.636561	667.75
1428.163155	669.75
1428.689694	672.25
1429.216177	669.0
1429.742605	670.5
1430.268978	670.25
1430.795296	672.0
1431.321558	671.25
1431.847765	667.75
1432.373917	670.0
1432.900014	668.75
1433.426056	668.5
1433.952042	666.0
1434.477973	668.0
1435.003849	668.5
1435.529669	669.0
1436.055435	667.25
1436.581145	668.25
1437.1068	670.25
1437.632399	671.0
1438.157944	667.75
1438.683433	670.75
1439.208868	669.5
1439.734247	668.75
1440.25957	669.0
1440.784839	669.75
1441.310053	669.75
1441.835211	668.75
1442.360314	669.5
1442.885362	668.75
1443.410355	672.5
1443.935292	668.75
1444.460175	667.75
1444.985002	669.5
1445.509774	668.5
1446.034491	671.5
1446.559153	669.75
1447.08376	670.75
1447.608312	667.5
1448.132808	669.25
1448.65725	666.5
1449.181636	668.0
1449.705967	669.25
1450.230243	669.75
1450.754464	669.75
1451.27863	667.75
1451.802741	669.0
1452.326797	665.0
1452.850797	668.75
1453.374743	669.75
1453.898633	666.0
1454.422468	668.75
1454.946249	667.25
1455.469974	669.0
1455.993644	666.25
1456.517259	665.25
1457.040819	670.25
1457.564324	666.75
1458.087773	669.25
1458.611168	668.0
1459.134508	666.75
1459.657793	668.75
1460.181022	671.25
1460.704197	666.25
1461.227316	667.75
1461.750381	667.0
1462.27339	668.25
1462.796345	681.5
1463.842089	683.0
1464.364878	668.5
1464.887613	670.25
1465.410292	669.75
1465.932916	667.5
1466.455486	665.75
1466.978	667.0
1467.50046	668.25
1468.022864	667.5
1468.545214	666.0
1469.067508	668.5
1469.589748	668.75
1470.111932	669.5
1470.634062	667.75
1471.156136	663.5
1471.678156	667.5
1472.20012	664.75
1472.72203	667.0
1473.243885	667.5
1473.765685	671.25
1474.28743	668.0
1474.80912	661.75
1475.330755	665.75
1475.852335	666.75
1476.37386	668.25
1476.89533	670.0
1477.416745	667.75
1477.938106	669.5
1478.459411	665.5
1478.980662	666.25
1479.501857	667.25
1480.022998	666.25
1480.544084	666.75
1481.065115	671.5
1481.586091	667.75
1482.107012	668.0
1482.627878	665.0
1483.14869	668.25
1483.669446	667.5
1484.190148	667.75
1484.710794	664.75
1485.231386	668.0
1485.751923	669.0
1486.272406	668.0
1486.792833	666.5
1487.313205	668.25
1487.833523	666.5
1488.353786	667.75
1488.873994	665.5
1489.394147	668.25
1489.914245	666.25
1490.434288	668.0
1490.954277	668.0
1491.474211	664.25
1491.99409	669.5
1492.513914	664.5
1493.033683	666.25
1493.553398	665.5
1494.073057	667.0
1494.592662	668.75
1495.112212	668.75
1495.631708	664.0
1496.151148	666.25
1496.670534	667.25
1497.189865	666.25
1497.709141	666.0
1498.228362	668.0
1498.747529	667.25
1499.266641	668.0
1499.785698	674.25
1500.3047	664.5
1500.823648	666.5
1501.34254	664.5
1501.861379	667.75
1502.380162	665.25
1502.89889	665.75
1503.417564	664.0
1503.936183	667.75
1504.454748	666.75
1504.973257	669.5
1505.491712	665.25
1506.010112	664.5
1506.528458	669.0
1507.046748	667.0
1507.564984	667.75
1508.083166	668.5
1508.601292	668.75
1509.119364	664.25
1509.637381	663.75
1510.155344	666.25
1510.673252	676.0
1511.191105	669.5
1511.708903	669.0
1512.226647	668.5
1512.744336	668.5
1513.261971	666.0
1513.77955	667.75
1514.297076	667.75
1514.814546	665.75
1515.331962	664.25
1515.849323	668.25
1516.366629	665.75
1516.883881	666.5
1517.401078	664.25
1517.918221	665.5
1518.435309	668.5
1518.952342	665.75
1519.469321	666.25
1519.986245	665.5
1520.503114	665.75
1521.019929	665.25
1521.536689	666.0
1522.053395	666.5
1522.570046	667.5
1523.086642	668.5
1523.603184	666.5
1524.119671	665.75
1524.636103	667.0
1525.152481	665.5
1525.668805	669.5
1526.185073	696.0
1526.701288	688.25
1527.217447	669.25
1527.733552	665.0
1528.249603	664.0
1528.765599	667.0
1529.28154	667.0
1529.797427	667.75
1530.313259	668.25
1530.829037	667.75
1531.34476	667.25
1531.860429	666.25
1532.376043	666.5
1532.891602	668.25
1533.407107	665.5
1533.922558	667.5
1534.437954	668.25
1534.953295	666.0
1535.468582	668.0
1535.983815	664.25
1536.498993	666.0
1537.014116	666.75
1537.529185	665.5
1538.044199	667.5
1538.559159	667.75
1539.074064	667.75
1539.588915	671.0
1540.103712	668.75
1540.618454	669.75
1541.133141	667.75
1541.647774	667.25
1542.162353	667.5
1542.676877	667.0
1543.191346	666.75
1543.705761	666.75
1544.220122	667.25
1544.734428	664.0
1545.24868	669.0
1545.762877	666.75
1546.27702	665.75
1546.791109	668.5
1547.305143	665.5
1547.819122	667.25
1548.333047	668.5
1548.846918	671.0
1549.360734	665.75
1549.874496	667.5
1550.388204	667.0
1550.901857	667.0
1551.415455	671.0
1551.929	667.75
1552.442489	665.25
1552.955925	667.0
1553.469306	669.0
1553.982632	669.25
1554.495905	668.25
1555.009123	665.5
1555.522286	667.0
1556.035395	670.5
1556.54845	668.0
1557.06145	669.5
1557.574396	667.5
1558.087288	670.0
1558.600125	666.5
1559.112908	668.5
1559.625637	668.5
1560.138311	668.25
1560.650931	666.75
1561.163497	666.0
1561.676008	668.25
1562.188465	668.0
1562.700867	670.0
1563.213216	672.25
1563.725509	670.0
1564.237749	669.0
1564.749934	670.25
1565.262065	668.75
1565.774142	672.0
1566.286164	669.25
1566.798132	670.25
1567.310046	672.5
1567.821906	669.75
1568.333711	669.0
1568.845462	670.25
1569.357158	672.75
1569.868801	675.25
1570.380389	670.25
1570.891922	668.75
1571.403402	670.25
1571.914827	669.25
1572.426198	671.75
1572.937515	667.5
1573.448777	669.25
1573.959985	665.75
1574.471139	667.75
1574.982239	670.5
1575.493285	667.5
1576.004276	665.75
1576.515213	666.5
1577.026096	664.25
1577.536924	668.0
1578.047698	666.0
1578.558419	667.0
1579.069084	666.0
1579.579696	668.5
1580.090254	666.5
1580.600757	667.0
1581.111206	669.75
1581.621601	666.75
1582.131941	669.75
1582.642228	667.75
1583.15246	664.75
1583.662638	666.0
1584.172762	667.25
1584.682832	665.75
1585.192847	664.75
1585.702809	669.5
1586.212716	667.25
1586.722569	667.75
1587.232368	670.25
1587.742113	664.75
1588.251803	668.75
1588.76144	672.0
1589.271022	668.25
1589.78055	668.0
1590.290024	669.0
1590.799444	669.25
1591.30881	665.25
1591.818121	667.5
1592.327379	663.75
