1042.414189	715.5
1042.980685	709.0
1043.547124	714.5
1044.113505	708.0
1044.679828	713.25
1045.246093	703.75
1045.8123	704.25
1046.378449	700.75
1046.94454	702.75
1047.510573	702.5
1048.076548	700.0
1048.642465	696.0
1049.208325	695.25
1049.774126	697.5
1050.339869	695.25
1050.905555	694.25
1051.471183	693.0
1052.036752	692.0
1052.602264	694.75
1053.167718	694.5
1053.733114	693.5
1054.298452	689.5
1054.863733	695.75
1055.428955	693.0
1055.994119	688.5
1056.559226	692.5
1057.124275	692.75
1057.689266	686.75
1058.254199	692.5
1058.819074	687.25
1059.383891	689.0
1059.94865	687.75
1060.513352	689.5
1061.077996	686.75
1061.642582	690.75
1062.20711	689.0
1062.77158	691.75
1063.335992	692.25
1063.900347	689.25
1064.464643	688.0
1065.028882	687.0
1065.593063	686.0
1066.157187	687.5
1066.721252	690.75
1067.28526	686.75
1067.84921	690.5
1068.413102	690.75
1068.976936	694.75
1069.540713	691.5
1070.104431	701.5
1070.668092	688.0
1071.231696	695.75
1071.795241	693.0
1072.358729	694.25
1072.922159	691.0
1073.485531	694.0
1074.048845	693.0
1074.612102	696.25
1075.175301	696.25
1075.738442	703.0
1076.301525	700.0
1076.864551	701.75
1077.427519	703.75
1077.990429	700.5
1078.553281	703.0
1079.116076	701.0
1079.678813	704.0
1080.241492	708.25
1080.804114	708.25
1081.366678	718.0
1081.929184	722.75
1082.491633	718.75
1083.054024	721.75
1083.616357	729.5
1084.178632	731.0
1084.74085	734.5
1085.30301	736.25
1085.865113	741.5
1086.427158	748.0
1086.989145	750.25
1087.551074	757.25
1088.112946	754.75
1088.67476	761.25
1089.236517	764.5
1089.798216	768.0
1090.359857	770.5
1090.92144	778.5
1091.482966	779.75
1092.044435	782.75
1092.605845	776.25
1093.167199	777.75
1093.728494	780.0
1094.289732	776.25
1094.850912	770.0
1095.412035	777.5
1095.9731	766.0
1096.534107	759.5
1097.095057	760.75
1097.65595	746.5
1098.216784	739.75
1098.777561	736.25
1099.338281	737.5
1099.898943	732.75
1100.459547	725.0
1101.020094	720.0
1101.580584	713.25
1102.141015	713.5
1102.701389	710.5
1103.261706	706.25
1103.821965	708.75
1104.382167	705.75
1104.942311	699.25
1105.502397	701.0
1106.062426	697.0
1106.622398	701.0
1107.182312	693.75
1107.742168	695.75
1108.301967	691.0
1108.861708	691.25
1109.421392	685.5
1109.981019	690.25
1110.540587	687.75
1111.100099	690.25
1111.659553	685.25
1112.218949	685.25
1112.778288	685.25
1113.33757	685.0
1113.896794	686.0
1114.45596	682.0
1115.015069	682.0
1115.574121	684.25
1116.133115	679.25
1116.692052	679.25
1117.250931	685.0
1117.809753	680.0
1118.368517	678.75
1118.927224	678.5
1119.485873	683.5
1120.044465	680.75
1120.603	684.25
1121.161477	679.0
1121.719897	678.5
1122.278259	679.25
1122.836564	678.75
1123.394812	679.5
1123.953002	681.5
1124.511135	680.75
1125.06921	680.0
1125.627228	677.5
1126.185189	679.0
1126.743092	679.5
1127.300938	680.25
1127.858726	682.0
1128.416457	680.75
1128.974131	682.5
1129.531748	678.25
1130.089307	680.25
1130.646808	678.75
1131.204252	677.75
1131.761639	677.25
1132.318969	678.5
1132.876241	680.0
1133.433456	677.5
1133.990614	678.5
1134.547714	675.0
1135.104757	679.5
1135.661743	681.25
1136.218671	679.75
1136.775542	677.0
1137.332356	677.75
1137.889112	679.75
1138.445811	679.5
1139.002453	679.0
1139.559037	679.75
1140.115565	679.25
1140.672035	679.5
1141.228447	676.75
1141.784803	680.25
1142.341101	680.5
1142.897342	677.5
1143.453525	677.0
1144.009651	679.25
1144.565721	680.5
1145.121732	677.5
1145.677687	678.5
1146.233584	679.25
1146.789424	675.75
1147.345207	675.75
1147.900933	680.0
1148.456601	675.0
1149.012212	677.5
1149.567766	681.5
1150.123263	674.5
1150.678702	679.0
1151.234085	681.5
1151.78941	679.5
1152.344678	678.75
1152.899888	675.75
1153.455042	676.5
1154.010138	678.5
1154.565177	677.25
1155.120159	682.25
1155.675084	675.75
1156.229951	677.0
1156.784762	676.0
1157.339515	678.75
1157.894211	677.25
1158.44885	680.5
1159.003432	679.0
1159.557956	678.5
1160.112424	675.25
1160.666834	679.5
1161.221187	677.75
1161.775483	680.75
1162.329722	679.25
1162.883904	679.25
1163.438029	679.75
1163.992096	679.25
1164.546107	678.5
1165.10006	679.0
1165.653956	677.0
1166.207795	677.5
1166.761577	680.0
1167.315302	678.0
1167.86897	675.0
1168.422581	678.25
1168.976134	677.75
1169.529631	677.75
1170.08307	682.25
1170.636453	678.0
1171.189778	677.0
1171.743046	674.75
1172.296257	680.0
1172.849412	677.25
1173.402509	675.0
1173.955549	675.25
1174.508532	677.75
1175.061458	678.0
1175.614327	680.5
1176.167138	677.25
1176.719893	679.25
1177.272591	678.75
1177.825232	676.25
1178.377816	680.5
1178.930342	676.75
1179.482812	678.0
1180.035225	676.25
1180.587581	676.25
1181.139879	680.0
1181.692121	678.75
1182.244306	677.5
1182.796434	676.75
1183.348504	680.5
1183.900518	674.75
1184.452475	675.5
1185.004375	680.25
1185.556218	675.5
1186.108004	677.5
1186.659733	674.5
1187.211405	679.25
1187.76302	673.75
1188.314578	676.5
1188.866079	675.5
1189.417523	680.0
1189.96891	680.0
1190.520241	680.5
1191.071514	677.0
1191.622731	679.75
1192.17389	676.5
1192.724993	676.75
1193.276039	701.75
1193.827027	679.25
1194.377959	678.5
1194.928834	675.75
1195.479653	680.75
1196.030414	677.75
1196.581118	677.75
1197.131766	677.5
1197.682356	681.75
1198.23289	676.5
1198.783367	677.75
1199.333786	677.5
1199.88415	678.75
1200.434456	677.0
1200.984705	675.5
1201.534898	680.5
1202.085033	677.75
1202.635112	676.5
1203.185134	677.0
1203.735099	674.75
1204.285007	677.0
1204.834859	676.25
1205.384653	678.75
1205.934391	677.75
1206.484072	680.75
1207.033696	676.25
1207.583263	675.0
1208.132774	678.25
1208.682228	678.5
1209.231624	677.25
1209.780965	677.75
1210.330248	679.5
1210.879474	676.5
1211.428644	681.25
1211.977757	679.25
1212.526813	679.5
1213.075813	680.25
1213.624755	678.75
1214.173641	678.0
1214.72247	679.25
1215.271242	679.75
1215.819958	680.5
1216.368617	676.25
1216.917219	678.5
1217.465764	678.25
1218.014253	679.75
1218.562685	680.0
1219.11106	680.75
1219.659378	674.0
1220.20764	680.25
1220.755845	677.25
1221.303993	676.25
1221.852085	678.75
1222.400119	682.5
1222.948097	679.75
1223.496019	678.0
1224.043883	679.5
1224.591691	678.0
1225.139443	675.0
1225.687137	676.5
1226.234775	681.0
1226.782357	678.0
1227.329881	680.75
1227.877349	677.0
1228.42476	676.75
1228.972115	676.25
1229.519413	678.25
1230.066654	677.5
1230.613839	678.5
1231.160967	679.75
1231.708038	682.5
1232.255053	676.0
1232.802011	677.5
1233.348912	676.25
1233.895757	678.0
1234.442545	678.25
1234.989277	676.75
1235.535951	677.0
1236.08257	677.75
1236.629131	680.75
1237.175636	682.5
1237.722085	677.25
1238.268477	679.75
1238.814812	678.25
1239.361091	678.0
1239.907313	676.5
1240.453478	679.25
1240.999587	675.75
1241.54564	678.5
1242.091636	675.75
1242.637575	676.25
1243.183457	680.5
1243.729284	681.0
1244.275053	680.75
1244.820766	678.0
1245.366423	677.0
1245.912022	680.75
1246.457566	681.5
1247.003053	676.0
1247.548483	679.25
1248.093857	680.25
1248.639174	676.5
1249.184435	680.25
1249.729639	679.75
1250.274787	676.75
1250.819878	678.5
1251.364912	676.75
1251.909891	681.0
1252.454812	682.0
1252.999677	679.0
1253.544486	681.75
1254.089238	678.75
1254.633934	675.5
1255.178573	679.0
1255.723156	680.25
1256.267682	679.25
1256.812152	677.0
1257.356565	680.0
1257.900922	681.75
1258.445223	680.75
1258.989467	684.0
1259.533654	682.75
1260.077785	700.75
1260.62186	681.5
1261.165878	682.0
1261.70984	681.75
1262.253745	680.75
1262.797594	685.0
1263.341386	683.75
1263.885123	689.0
1264.428802	691.75
1264.972425	688.75
1265.515992	690.0
1266.059503	686.25
1266.602957	683.5
1267.146354	680.75
1267.689696	684.25
1268.23298	678.75
1268.776209	676.0
1269.319381	680.5
1269.862497	683.5
1270.405556	678.5
1270.948559	686.75
1271.491506	679.25
1272.034396	679.75
1272.57723	679.75
1273.120007	680.5
1273.662728	682.0
1274.205393	678.5
1274.748002	681.75
1275.290554	683.0
1275.83305	679.5
1276.375489	684.25
1276.917872	680.75
1277.460199	682.25
1278.00247	680.25
1278.544684	679.25
1279.086842	684.5
1279.628943	678.75
1280.170989	683.25
1280.712978	683.75
1281.25491	683.75
1281.796787	687.25
1282.338607	692.25
1282.880371	697.5
1283.422078	713.25
1283.963729	742.5
1284.505324	805.75
1285.046863	893.25
1285.588345	857.25
1286.129772	765.25
1286.671142	713.5
1287.212455	698.75
1287.753713	685.75
1288.294914	685.0
1288.836059	683.0
1289.377147	683.75
1289.91818	684.0
1290.459156	684.25
1291.000076	684.25
1291.54094	681.0
1292.081747	682.25
1292.622499	682.5
1293.163194	678.0
1293.703833	680.5
1294.244415	681.75
1294.784942	680.25
1295.325412	686.25
1295.865826	682.0
1296.406184	679.0
1296.946486	679.75
1297.486731	682.5
1298.026921	681.0
1298.567054	679.5
1299.107131	679.0
1299.647152	678.5
1300.187116	680.25
1300.727025	678.5
1301.266877	680.75
1301.806673	676.0
1302.346413	683.5
1302.886097	678.75
1303.425725	680.0
1303.965297	679.75
1304.504812	677.75
1305.044272	681.25
1305.583675	679.0
1306.123022	679.5
1306.662313	683.5
1307.201548	677.75
1307.740727	681.25
1308.279849	678.75
1308.818916	677.0
1309.357926	678.75
1309.896881	678.5
1310.435779	680.5
1310.974621	676.25
1311.513407	677.75
1312.052137	676.0
1312.590811	681.5
1313.129429	678.5
1313.667991	677.25
1314.206497	676.25
1314.744946	678.75
1315.28334	678.5
1315.821678	682.5
1316.359959	678.25
1316.898184	678.0
1317.436354	681.5
1317.974467	679.5
1318.512525	678.75
1319.050526	677.75
1319.588471	678.5
1320.12636	680.25
1320.664194	682.5
1321.201971	682.5
1321.739692	678.0
1322.277357	680.0
1322.814967	682.25
1323.35252	677.5
1323.890017	683.0
1324.427458	678.25
1324.964843	678.25
1325.502173	682.75
1326.039446	677.75
1326.576663	680.5
1327.113824	678.75
1327.65093	681.0
1328.187979	680.0
1328.724972	678.25
1329.26191	681.0
1329.798791	678.0
1330.335617	684.25
1330.872386	679.5
1331.4091	679.75
1331.945758	678.0
1332.48236	678.0
1333.018905	678.5
1333.555395	676.5
1334.091829	679.25
1334.628207	679.25
1335.164529	678.25
1335.700796	677.5
1336.237006	679.25
1336.77316	679.5
1337.309259	681.0
1337.845301	680.75
1338.381288	685.0
1338.917219	679.75
1339.453094	679.25
1339.988913	677.5
1340.524676	676.75
1341.060383	679.0
1341.596034	677.5
1342.13163	676.75
1342.66717	680.5
1343.202653	682.0
1343.738081	681.5
1344.273453	683.0
1344.80877	679.75
1345.34403	677.5
1345.879235	680.75
1346.414383	679.25
1346.949476	678.75
1347.484513	678.25
1348.019494	683.0
1348.55442	682.25
1349.089289	675.25
1349.624103	680.0
1350.158861	681.25
1350.693563	679.25
1351.228209	682.0
1351.7628	679.25
1352.297334	680.0
1352.831813	682.5
1353.366236	682.5
1353.900604	681.0
1354.434915	677.5
1354.969171	682.25
1355.503371	679.5
1356.037515	681.0
1356.571604	677.75
1357.105636	682.25
1357.639613	679.75
1358.173535	677.5
1358.7074	682.25
1359.24121	684.0
1359.774964	680.25
1360.308662	682.5
1360.842304	678.75
1361.375891	679.5
1361.909422	678.75
1362.442897	681.25
1362.976317	684.25
1363.50968	682.75
1364.042989	677.0
1364.576241	679.75
1365.109438	678.75
1365.642579	682.0
1366.175664	682.5
1366.708693	683.5
1367.241667	679.75
1367.774585	679.5
1368.307448	679.75
1368.840255	683.25
1369.373006	682.75
1369.905701	683.75
1370.438341	686.75
1370.970925	688.0
1371.503454	683.0
1372.035926	683.75
1372.568344	677.5
1373.100705	683.75
1373.633011	680.0
1374.165261	682.5
1374.697456	679.25
1375.229595	683.0
1375.761678	679.75
1376.293705	684.0
1376.825677	682.25
1377.357594	682.25
1377.889455	678.5
1378.42126	682.25
1378.953009	682.25
1379.484703	683.0
1380.016342	684.5
1380.547924	681.5
1381.079452	683.25
1381.610923	683.75
1382.142339	686.5
1382.673699	686.75
1383.205004	683.0
1383.736253	681.0
1384.267447	683.5
1384.798585	683.5
1385.329668	689.0
1385.860695	695.25
1386.391666	700.0
1386.922582	715.5
1387.453442	743.75
1387.984247	863.0
1388.514996	1071.0
1389.04569	1045.25
1389.576328	813.0
1390.10691	723.0
1390.637437	704.75
1391.167909	692.5
1391.698325	688.75
1392.228685	685.0
1392.75899	684.25
1393.28924	684.5
1393.819434	686.75
1394.349572	685.5
1394.879655	680.25
1395.409683	684.0
1395.939655	679.25
1396.469571	682.5
1396.999432	682.0
1397.529237	679.5
1398.058987	683.0
1398.588682	681.75
1399.118321	682.25
1399.647905	680.0
1400.177433	680.75
1400.706906	684.0
1401.236323	683.0
1401.765685	684.25
1402.294991	680.0
1402.824242	681.75
1403.353437	682.5
1403.882577	681.0
1404.411662	684.0
1404.940691	681.0
1405.469665	681.0
1405.998583	682.75
1406.527446	682.25
1407.056253	684.0
1407.585005	684.75
1408.113702	687.25
1408.642343	691.5
1409.170929	690.75
1409.69946	706.0
1410.227935	704.5
1410.756354	697.5
1411.284719	688.5
1411.813028	683.0
1412.341281	684.0
1412.869479	681.25
1413.397622	682.0
1413.92571	680.75
1414.453742	684.75
1414.981718	681.75
1415.50964	695.75
1416.037506	682.5
1416.565316	679.25
1417.093072	681.0
1417.620772	681.75
1418.148416	678.5
1418.676005	678.0
1419.203539	681.25
1419.731018	682.5
1420.258441	679.75
1420.785809	681.5
1421.313122	679.5
1421.840379	681.5
1422.367582	683.25
1422.894728	682.25
1423.42182	678.25
1423.948856	682.25
1424.475837	678.5
1425.002762	683.75
1425.529633	679.75
1426.056448	676.75
1426.583207	682.5
1427.109912	683.25
1427.636561	680.0
1428.163155	677.75
1428.689694	681.5
1429.216177	682.5
1429.742605	680.5
1430.268978	678.5
1430.795296	679.25
1431.321558	682.75
1431.847765	680.75
1432.373917	679.75
1432.900014	677.0
1433.426056	680.75
1433.952042	679.25
1434.477973	679.5
1435.003849	678.75
1435.529669	683.5
1436.055435	679.0
1436.581145	679.5
1437.1068	680.25
1437.632399	681.5
1438.157944	680.25
1438.683433	685.5
1439.208868	680.5
1439.734247	678.25
1440.25957	680.75
1440.784839	683.5
1441.310053	679.0
1441.835211	681.0
1442.360314	676.75
1442.885362	678.0
1443.410355	682.0
1443.935292	681.5
1444.460175	677.75
1444.985002	676.75
1445.509774	684.75
1446.034491	680.75
1446.559153	675.5
1447.08376	678.5
1447.608312	681.25
1448.132808	680.75
1448.65725	680.5
1449.181636	682.25
1449.705967	678.0
1450.230243	677.75
1450.754464	682.75
1451.27863	679.75
1451.802741	678.0
1452.326797	677.5
1452.850797	683.25
1453.374743	679.5
1453.898633	679.75
1454.422468	680.25
1454.946249	679.5
1455.469974	681.5
1455.993644	679.25
1456.517259	676.5
1457.040819	682.75
1457.564324	679.25
1458.087773	679.5
1458.611168	678.25
1459.134508	677.5
1459.657793	681.0
1460.181022	680.25
1460.704197	679.75
1461.227316	683.25
1461.750381	677.25
1462.27339	679.0
1462.796345	690.25
1463.842089	692.25
1464.364878	681.5
1464.887613	680.0
1465.410292	682.0
1465.932916	678.0
1466.455486	679.5
1466.978	681.0
1467.50046	682.25
1468.022864	678.75
1468.545214	678.25
1469.067508	682.0
1469.589748	677.75
1470.111932	683.25
1470.634062	679.75
1471.156136	678.5
1471.678156	679.0
1472.20012	682.25
1472.72203	680.75
1473.243885	677.5
1473.765685	678.5
1474.28743	683.75
1474.80912	679.75
1475.330755	680.0
1475.852335	677.25
1476.37386	678.0
1476.89533	677.0
1477.416745	679.0
1477.938106	680.5
1478.459411	674.25
1478.980662	676.25
1479.501857	680.0
1480.022998	680.5
1480.544084	678.0
1481.065115	680.25
1481.586091	679.75
1482.107012	677.0
1482.627878	680.25
1483.14869	679.25
1483.669446	676.75
1484.190148	677.75
1484.710794	680.75
1485.231386	678.0
1485.751923	682.75
1486.272406	676.75
1486.792833	681.25
1487.313205	679.0
1487.833523	681.5
1488.353786	677.25
1488.873994	677.5
1489.394147	678.0
1489.914245	681.25
1490.434288	677.5
1490.954277	675.75
1491.474211	677.25
1491.99409	679.25
1492.513914	681.5
1493.033683	682.25
1493.553398	679.0
1494.073057	680.75
1494.592662	680.0
1495.112212	676.0
1495.631708	679.0
1496.151148	680.75
1496.670534	678.25
1497.189865	677.75
1497.709141	678.25
1498.228362	680.0
1498.747529	680.0
1499.266641	674.75
1499.785698	686.25
1500.3047	680.25
1500.823648	681.0
1501.34254	677.5
1501.861379	679.75
1502.380162	678.5
1502.89889	677.5
1503.417564	680.75
1503.936183	676.0
1504.454748	678.25
1504.973257	676.25
1505.491712	677.0
1506.010112	678.0
1506.528458	681.0
1507.046748	677.5
1507.564984	679.5
1508.083166	680.0
1508.601292	677.5
1509.119364	684.25
1509.637381	677.25
1510.155344	679.75
1510.673252	683.75
1511.191105	680.75
1511.708903	681.25
1512.226647	680.75
1512.744336	679.25
1513.261971	679.5
1513.77955	672.25
1514.297076	682.75
1514.814546	680.75
1515.331962	677.0
1515.849323	680.75
1516.366629	676.5
1516.883881	679.75
1517.401078	678.75
1517.918221	680.25
1518.435309	680.5
1518.952342	678.75
1519.469321	678.5
1519.986245	679.25
1520.503114	679.75
1521.019929	677.75
1521.536689	678.0
1522.053395	683.5
1522.570046	679.75
1523.086642	678.0
1523.603184	681.5
1524.119671	679.5
1524.636103	680.25
1525.152481	677.75
1525.668805	683.0
1526.185073	707.0
1526.701288	704.0
1527.217447	681.0
1527.733552	679.0
1528.249603	682.0
1528.765599	679.25
1529.28154	676.25
1529.797427	678.75
1530.313259	679.0
1530.829037	679.0
1531.34476	681.25
1531.860429	677.25
1532.376043	679.5
1532.891602	679.5
1533.407107	678.25
1533.922558	681.5
1534.437954	676.5
1534.953295	677.75
1535.468582	676.75
1535.983815	677.75
1536.498993	674.0
1537.014116	676.0
1537.529185	677.5
1538.044199	680.5
1538.559159	680.25
1539.074064	680.0
1539.588915	678.75
1540.103712	681.25
1540.618454	681.5
1541.133141	678.25
1541.647774	682.25
1542.162353	679.25
1542.676877	678.75
1543.191346	678.0
1543.705761	681.25
1544.220122	685.0
1544.734428	678.25
1545.24868	678.25
1545.762877	681.75
1546.27702	680.75
1546.791109	684.75
1547.305143	678.75
1547.819122	681.0
1548.333047	674.5
1548.846918	683.5
1549.360734	677.75
1549.874496	679.75
1550.388204	682.75
1550.901857	679.5
1551.415455	681.75
1551.929	677.5
1552.442489	678.75
1552.955925	681.75
1553.469306	679.5
1553.982632	683.25
1554.495905	679.25
1555.009123	680.75
1555.522286	682.75
1556.035395	678.0
1556.54845	680.5
1557.06145	681.5
1557.574396	680.75
1558.087288	685.5
1558.600125	680.25
1559.112908	682.25
1559.625637	677.0
1560.138311	681.5
1560.650931	678.25
1561.163497	677.75
1561.676008	682.25
1562.188465	684.0
1562.700867	682.5
1563.213216	679.75
1563.725509	681.0
1564.237749	683.5
1564.749934	682.75
1565.262065	679.75
1565.774142	679.5
1566.286164	682.5
1566.798132	681.5
1567.310046	687.0
1567.821906	681.5
1568.333711	682.0
1568.845462	683.0
1569.357158	685.5
1569.868801	682.5
1570.380389	680.25
1570.891922	679.25
1571.403402	682.25
1571.914827	680.5
1572.426198	680.25
1572.937515	681.0
1573.448777	681.0
1573.959985	679.75
1574.471139	680.0
1574.982239	678.0
1575.493285	681.0
1576.004276	679.5
1576.515213	682.0
1577.026096	681.75
1577.536924	680.75
1578.047698	683.25
1578.558419	680.5
1579.069084	679.75
1579.579696	679.0
1580.090254	681.5
1580.600757	682.25
1581.111206	678.5
1581.621601	680.0
1582.131941	682.75
1582.642228	679.5
1583.15246	680.75
1583.662638	676.25
1584.172762	682.0
1584.682832	679.75
1585.192847	678.25
1585.702809	678.5
1586.212716	676.25
1586.722569	681.0
1587.232368	680.75
1587.742113	686.5
1588.251803	680.5
1588.76144	679.0
1589.271022	679.75
1589.78055	678.25
1590.290024	679.75
1590.799444	675.75
1591.30881	681.0
1591.818121	679.25
1592.327379	681.25
