1042.414189	691.0
1042.980685	690.2000122
1043.547124	686.2000122
1044.113505	690.7999878
1044.679828	687.5999756
1045.246093	683.4000244
1045.8123	682.2000122
1046.378449	683.2000122
1046.94454	680.4000244
1047.510573	682.2000122
1048.076548	679.0
1048.642465	680.4000244
1049.208325	678.5999756
1049.774126	675.4000244
1050.339869	675.0
1050.905555	679.2000122
1051.471183	674.4000244
1052.036752	676.7999878
1052.602264	674.4000244
1053.167718	675.4000244
1053.733114	672.2000122
1054.298452	674.7999878
1054.863733	671.0
1055.428955	675.2000122
1055.994119	677.7999878
1056.559226	675.0
1057.124275	671.5999756
1057.689266	672.2000122
1058.254199	672.4000244
1058.819074	670.5999756
1059.383891	672.0
1059.94865	671.4000244
1060.513352	670.4000244
1061.077996	669.5999756
1061.642582	671.7999878
1062.20711	670.4000244
1062.77158	671.4000244
1063.335992	671.7999878
1063.900347	671.4000244
1064.464643	670.7999878
1065.028882	671.0
1065.593063	669.5999756
1066.157187	671.2000122
1066.721252	671.2000122
1067.28526	670.7999878
1067.84921	671.0
1068.413102	668.2000122
1068.976936	673.7999878
1069.540713	668.5999756
1070.104431	674.2000122
1070.668092	670.2000122
1071.231696	670.4000244
1071.795241	671.4000244
1072.358729	672.7999878
1072.922159	670.4000244
1073.485531	669.4000244
1074.048845	670.5999756
1074.612102	671.7999878
1075.175301	669.5999756
1075.738442	669.5999756
1076.301525	671.4000244
1076.864551	672.4000244
1077.427519	671.2000122
1077.990429	669.5999756
1078.553281	671.5999756
1079.116076	669.5999756
1079.678813	670.0
1080.241492	671.7999878
1080.804114	671.0
1081.366678	672.0
1081.929184	668.2000122
1082.491633	675.4000244
1083.054024	669.4000244
1083.616357	672.7999878
1084.178632	672.0
1084.74085	670.5999756
1085.30301	673.7999878
1085.865113	673.4000244
1086.427158	673.7999878
1086.989145	673.0
1087.551074	673.7999878
1088.112946	673.0
1088.67476	675.4000244
1089.236517	671.7999878
1089.798216	670.4000244
1090.359857	671.5999756
1090.92144	672.5999756
1091.482966	671.0
1092.044435	670.2000122
1092.605845	674.4000244
1093.167199	670.2000122
1093.728494	672.0
1094.289732	670.7999878
1094.850912	671.2000122
1095.412035	677.5999756
1095.9731	671.2000122
1096.534107	671.0
1097.095057	677.7999878
1097.65595	671.4000244
1098.216784	671.5999756
1098.777561	671.4000244
1099.338281	667.7999878
1099.898943	670.4000244
1100.459547	666.2000122
1101.020094	669.2000122
1101.580584	671.0
1102.141015	669.2000122
1102.701389	669.2000122
1103.261706	670.4000244
1103.821965	669.7999878
1104.382167	668.0
1104.942311	668.7999878
1105.502397	670.0
1106.062426	670.0
1106.622398	671.0
1107.182312	666.4000244
1107.742168	665.5999756
1108.301967	667.2000122
1108.861708	668.4000244
1109.421392	668.7999878
1109.981019	666.0
1110.540587	669.2000122
1111.100099	668.0
1111.659553	669.2000122
1112.218949	667.4000244
1112.778288	668.4000244
1113.33757	667.5999756
1113.896794	667.7999878
1114.45596	665.5999756
1115.015069	665.5999756
1115.574121	670.7999878
1116.133115	668.4000244
1116.692052	666.5999756
1117.250931	670.4000244
1117.809753	664.7999878
1118.368517	667.2000122
1118.927224	668.4000244
1119.485873	667.4000244
1120.044465	668.2000122
1120.603	668.0
1121.161477	667.5999756
1121.719897	670.2000122
1122.278259	667.4000244
1122.836564	665.5999756
1123.394812	669.4000244
1123.953002	669.2000122
1124.511135	668.0
1125.06921	667.2000122
1125.627228	668.5999756
1126.185189	669.5999756
1126.743092	667.7999878
1127.300938	668.4000244
1127.858726	670.4000244
1128.416457	670.2000122
1128.974131	667.0
1129.531748	666.0
1130.089307	668.0
1130.646808	666.0
1131.204252	666.7999878
1131.761639	667.7999878
1132.318969	666.0
1132.876241	667.4000244
1133.433456	667.7999878
1133.990614	666.7999878
1134.547714	668.7999878
1135.104757	663.5999756
1135.661743	669.7999878
1136.218671	667.5999756
1136.775542	666.5999756
1137.332356	667.0
1137.889112	666.0
1138.445811	666.5999756
1139.002453	666.7999878
1139.559037	668.0
1140.115565	666.7999878
1140.672035	667.4000244
1141.228447	666.2000122
1141.784803	665.4000244
1142.341101	668.5999756
1142.897342	669.0
1143.453525	666.5999756
1144.009651	666.2000122
1144.565721	668.2000122
1145.121732	667.7999878
1145.677687	664.4000244
1146.233584	668.5999756
1146.789424	668.0
1147.345207	669.2000122
1147.900933	665.2000122
1148.456601	665.7999878
1149.012212	667.0
1149.567766	666.4000244
1150.123263	665.4000244
1150.678702	665.5999756
1151.234085	668.4000244
1151.78941	669.4000244
1152.344678	669.2000122
1152.899888	668.0
1153.455042	666.4000244
1154.010138	667.2000122
1154.565177	665.7999878
1155.120159	668.4000244
1155.675084	665.4000244
1156.229951	667.2000122
1156.784762	666.5999756
1157.339515	664.7999878
1157.894211	665.7999878
1158.44885	669.5999756
1159.003432	668.2000122
1159.557956	669.2000122
1160.112424	665.4000244
1160.666834	668.5999756
1161.221187	668.5999756
1161.775483	666.4000244
1162.329722	667.4000244
1162.883904	667.5999756
1163.438029	666.7999878
1163.992096	667.5999756
1164.546107	665.2000122
1165.10006	666.0
1165.653956	666.5999756
1166.207795	667.7999878
1166.761577	666.2000122
1167.315302	666.7999878
1167.86897	667.4000244
1168.422581	666.2000122
1168.976134	665.0
1169.529631	667.7999878
1170.08307	668.5999756
1170.636453	667.7999878
1171.189778	665.0
1171.743046	667.0
1172.296257	667.7999878
1172.849412	665.2000122
1173.402509	664.2000122
1173.955549	665.0
1174.508532	667.5999756
1175.061458	666.0
1175.614327	668.0
1176.167138	666.4000244
1176.719893	665.0
1177.272591	667.7999878
1177.825232	666.2000122
1178.377816	666.0
1178.930342	666.4000244
1179.482812	666.2000122
1180.035225	669.2000122
1180.587581	665.0
1181.139879	668.2000122
1181.692121	666.5999756
1182.244306	663.2000122
1182.796434	666.5999756
1183.348504	665.2000122
1183.900518	667.7999878
1184.452475	671.2000122
1185.004375	669.7999878
1185.556218	667.0
1186.108004	666.2000122
1186.659733	666.7999878
1187.211405	669.0
1187.76302	668.4000244
1188.314578	668.2000122
1188.866079	664.5999756
1189.417523	667.2000122
1189.96891	663.4000244
1190.520241	667.2000122
1191.071514	668.2000122
1191.622731	667.2000122
1192.17389	666.4000244
1192.724993	666.0
1193.276039	683.2000122
1193.827027	664.5999756
1194.377959	670.2000122
1194.928834	667.7999878
1195.479653	667.4000244
1196.030414	662.7999878
1196.581118	666.7999878
1197.131766	666.7999878
1197.682356	667.7999878
1198.23289	667.4000244
1198.783367	668.2000122
1199.333786	663.5999756
1199.88415	670.7999878
1200.434456	668.5999756
1200.984705	666.0
1201.534898	665.5999756
1202.085033	667.0
1202.635112	666.5999756
1203.185134	666.4000244
1203.735099	666.7999878
1204.285007	667.2000122
1204.834859	667.4000244
1205.384653	668.2000122
1205.934391	669.4000244
1206.484072	666.0
1207.033696	668.4000244
1207.583263	669.0
1208.132774	669.0
1208.682228	669.2000122
1209.231624	668.7999878
1209.780965	666.5999756
1210.330248	666.0
1210.879474	667.2000122
1211.428644	668.2000122
1211.977757	668.2000122
1212.526813	664.2000122
1213.075813	666.5999756
1213.624755	669.2000122
1214.173641	667.0
1214.72247	668.5999756
1215.271242	665.5999756
1215.819958	667.4000244
1216.368617	666.0
1216.917219	668.7999878
1217.465764	667.5999756
1218.014253	667.0
1218.562685	665.5999756
1219.11106	670.2000122
1219.659378	671.0
1220.20764	666.5999756
1220.755845	667.5999756
1221.303993	666.0
1221.852085	665.5999756
1222.400119	666.4000244
1222.948097	668.7999878
1223.496019	667.5999756
1224.043883	665.5999756
1224.591691	664.5999756
1225.139443	667.4000244
1225.687137	667.4000244
1226.234775	666.5999756
1226.782357	666.5999756
1227.329881	668.7999878
1227.877349	667.5999756
1228.42476	667.5999756
1228.972115	667.7999878
1229.519413	668.7999878
1230.066654	667.2000122
1230.613839	667.7999878
1231.160967	667.0
1231.708038	668.7999878
1232.255053	669.0
1232.802011	669.4000244
1233.348912	667.0
1233.895757	665.2000122
1234.442545	668.2000122
1234.989277	667.4000244
1235.535951	669.0
1236.08257	667.4000244
1236.629131	669.0
1237.175636	668.2000122
1237.722085	664.5999756
1238.268477	669.0
1238.814812	666.7999878
1239.361091	669.2000122
1239.907313	668.4000244
1240.453478	666.7999878
1240.999587	668.0
1241.54564	666.0
1242.091636	669.5999756
1242.637575	669.0
1243.183457	666.2000122
1243.729284	667.7999878
1244.275053	671.4000244
1244.820766	670.2000122
1245.366423	666.2000122
1245.912022	671.0
1246.457566	670.0
1247.003053	667.4000244
1247.548483	670.0
1248.093857	670.4000244
1248.639174	668.5999756
1249.184435	668.4000244
1249.729639	670.0
1250.274787	669.0
1250.819878	674.4000244
1251.364912	667.5999756
1251.909891	665.4000244
1252.454812	669.7999878
1252.999677	667.4000244
1253.544486	669.0
1254.089238	671.4000244
1254.633934	671.5999756
1255.178573	671.4000244
1255.723156	668.4000244
1256.267682	671.2000122
1256.812152	669.2000122
1257.356565	669.5999756
1257.900922	670.2000122
1258.445223	673.0
1258.989467	671.0
1259.533654	671.2000122
1260.077785	690.5999756
1260.62186	675.2000122
1261.165878	675.7999878
1261.70984	676.4000244
1262.253745	681.4000244
1262.797594	683.5999756
1263.341386	688.2000122
1263.885123	687.5999756
1264.428802	683.7999878
1264.972425	683.4000244
1265.515992	682.4000244
1266.059503	675.5999756
1266.602957	674.7999878
1267.146354	672.2000122
1267.689696	674.5999756
1268.23298	672.5999756
1268.776209	674.2000122
1269.319381	674.2000122
1269.862497	670.4000244
1270.405556	671.7999878
1270.948559	671.4000244
1271.491506	671.2000122
1272.034396	669.7999878
1272.57723	674.4000244
1273.120007	672.5999756
1273.662728	673.0
1274.205393	673.0
1274.748002	675.4000244
1275.290554	673.5999756
1275.83305	675.5999756
1276.375489	671.0
1276.917872	676.0
1277.460199	675.7999878
1278.00247	671.7999878
1278.544684	677.4000244
1279.086842	675.4000244
1279.628943	680.0
1280.170989	683.4000244
1280.712978	690.2000122
1281.25491	698.0
1281.796787	725.2000122
1282.338607	776.7999878
1282.880371	859.4000244
1283.422078	936.7999878
1283.963729	951.7999878
1284.505324	884.7999878
1285.046863	810.0
1285.588345	738.0
1286.129772	708.7999878
1286.671142	690.5999756
1287.212455	684.5999756
1287.753713	681.7999878
1288.294914	678.5999756
1288.836059	678.7999878
1289.377147	678.2000122
1289.91818	675.0
1290.459156	672.0
1291.000076	673.0
1291.54094	672.0
1292.081747	671.7999878
1292.622499	673.7999878
1293.163194	671.0
1293.703833	672.2000122
1294.244415	670.7999878
1294.784942	668.0
1295.325412	676.7999878
1295.865826	675.7999878
1296.406184	670.2000122
1296.946486	671.0
1297.486731	669.0
1298.026921	669.5999756
1298.567054	671.4000244
1299.107131	671.5999756
1299.647152	671.7999878
1300.187116	673.4000244
1300.727025	671.4000244
1301.266877	670.7999878
1301.806673	666.5999756
1302.346413	669.5999756
1302.886097	670.2000122
1303.425725	668.0
1303.965297	671.7999878
1304.504812	671.5999756
1305.044272	667.4000244
1305.583675	670.2000122
1306.123022	676.2000122
1306.662313	667.2000122
1307.201548	671.5999756
1307.740727	669.7999878
1308.279849	670.7999878
1308.818916	671.4000244
1309.357926	670.2000122
1309.896881	671.4000244
1310.435779	667.7999878
1310.974621	670.4000244
1311.513407	668.4000244
1312.052137	668.7999878
1312.590811	671.4000244
1313.129429	668.4000244
1313.667991	671.4000244
1314.206497	670.2000122
1314.744946	668.7999878
1315.28334	669.0
1315.821678	668.5999756
1316.359959	669.7999878
1316.898184	668.5999756
1317.436354	670.0
1317.974467	671.2000122
1318.512525	669.7999878
1319.050526	669.4000244
1319.588471	668.2000122
1320.12636	670.0
1320.664194	669.2000122
1321.201971	668.2000122
1321.739692	667.2000122
1322.277357	670.0
1322.814967	668.7999878
1323.35252	667.4000244
1323.890017	674.4000244
1324.427458	669.7999878
1324.964843	670.2000122
1325.502173	671.5999756
1326.039446	671.7999878
1326.576663	670.0
1327.113824	670.2000122
1327.65093	668.4000244
1328.187979	670.7999878
1328.724972	670.5999756
1329.26191	670.0
1329.798791	672.0
1330.335617	665.0
1330.872386	671.0
1331.4091	669.4000244
1331.945758	667.0
1332.48236	667.0
1333.018905	669.5999756
1333.555395	664.5999756
1334.091829	670.7999878
1334.628207	668.4000244
1335.164529	669.7999878
1335.700796	667.5999756
1336.237006	668.4000244
1336.77316	669.4000244
1337.309259	670.5999756
1337.845301	668.5999756
1338.381288	668.2000122
1338.917219	670.4000244
1339.453094	667.5999756
1339.988913	669.0
1340.524676	669.0
1341.060383	668.7999878
1341.596034	668.5999756
1342.13163	671.0
1342.66717	669.4000244
1343.202653	668.2000122
1343.738081	668.5999756
1344.273453	671.7999878
1344.80877	670.2000122
1345.34403	668.5999756
1345.879235	672.4000244
1346.414383	670.0
1346.949476	671.4000244
1347.484513	668.5999756
1348.019494	669.0
1348.55442	668.2000122
1349.089289	668.2000122
1349.624103	668.2000122
1350.158861	671.7999878
1350.693563	668.5999756
1351.228209	670.4000244
1351.7628	669.5999756
1352.297334	667.4000244
1352.831813	669.0
1353.366236	670.2000122
1353.900604	671.0
1354.434915	670.0
1354.969171	668.4000244
1355.503371	670.0
1356.037515	670.0
1356.571604	671.0
1357.105636	668.4000244
1357.639613	670.2000122
1358.173535	670.4000244
1358.7074	667.5999756
1359.24121	670.2000122
1359.774964	671.5999756
1360.308662	671.5999756
1360.842304	670.7999878
1361.375891	670.4000244
1361.909422	670.4000244
1362.442897	671.2000122
1362.976317	668.5999756
1363.50968	670.0
1364.042989	672.2000122
1364.576241	673.2000122
1365.109438	671.7999878
1365.642579	670.5999756
1366.175664	673.7999878
1366.708693	672.4000244
1367.241667	671.2000122
1367.774585	671.0
1368.307448	673.7999878
1368.840255	674.4000244
1369.373006	677.7999878
1369.905701	685.0
1370.438341	681.4000244
1370.970925	676.0
1371.503454	675.5999756
1372.035926	672.4000244
1372.568344	674.4000244
1373.100705	671.0
1373.633011	675.2000122
1374.165261	669.4000244
1374.697456	671.5999756
1375.229595	673.5999756
1375.761678	671.4000244
1376.293705	675.0
1376.825677	676.5999756
1377.357594	674.5999756
1377.889455	673.7999878
1378.42126	676.2000122
1378.953009	675.4000244
1379.484703	675.2000122
1380.016342	675.4000244
1380.547924	675.7999878
1381.079452	677.7999878
1381.610923	678.7999878
1382.142339	681.0
1382.673699	682.4000244
1383.205004	683.0
1383.736253	688.7999878
1384.267447	691.5999756
1384.798585	700.0
1385.329668	708.5999756
1385.860695	732.2000122
1386.391666	783.4000244
1386.922582	902.2000122
1387.453442	1142.199951
1387.984247	1330.800049
1388.514996	1155.199951
1389.04569	889.2000122
1389.576328	771.7999878
1390.10691	718.0
1390.637437	703.5999756
1391.167909	691.7999878
1391.698325	688.0
1392.228685	682.7999878
1392.75899	681.2000122
1393.28924	680.7999878
1393.819434	679.7999878
1394.349572	675.7999878
1394.879655	676.2000122
1395.409683	674.0
1395.939655	677.2000122
1396.469571	675.2000122
1396.999432	674.2000122
1397.529237	674.5999756
1398.058987	675.2000122
1398.588682	673.0
1399.118321	672.5999756
1399.647905	672.7999878
1400.177433	674.0
1400.706906	672.5999756
1401.236323	673.0
1401.765685	676.2000122
1402.294991	677.4000244
1402.824242	673.7999878
1403.353437	673.0
1403.882577	673.4000244
1404.411662	673.0
1404.940691	674.5999756
1405.469665	675.7999878
1405.998583	678.2000122
1406.527446	678.4000244
1407.056253	679.5999756
1407.585005	685.4000244
1408.113702	692.4000244
1408.642343	695.2000122
1409.170929	699.7999878
1409.69946	701.2000122
1410.227935	694.4000244
1410.756354	690.0
1411.284719	682.7999878
1411.813028	676.2000122
1412.341281	674.5999756
1412.869479	675.4000244
1413.397622	673.4000244
1413.92571	673.7999878
1414.453742	673.5999756
1414.981718	670.4000244
1415.50964	680.7999878
1416.037506	671.7999878
1416.565316	673.5999756
1417.093072	671.2000122
1417.620772	671.2000122
1418.148416	669.4000244
1418.676005	669.4000244
1419.203539	669.2000122
1419.731018	666.4000244
1420.258441	669.7999878
1420.785809	666.2000122
1421.313122	667.5999756
1421.840379	670.4000244
1422.367582	671.4000244
1422.894728	668.5999756
1423.42182	669.7999878
1423.948856	669.4000244
1424.475837	667.2000122
1425.002762	669.0
1425.529633	668.5999756
1426.056448	668.5999756
1426.583207	666.7999878
1427.109912	669.5999756
1427.636561	667.2000122
1428.163155	668.2000122
1428.689694	671.4000244
1429.216177	669.2000122
1429.742605	668.0
1430.268978	669.0
1430.795296	667.5999756
1431.321558	671.0
1431.847765	668.2000122
1432.373917	666.7999878
1432.900014	669.0
1433.426056	671.0
1433.952042	669.4000244
1434.477973	666.7999878
1435.003849	666.5999756
1435.529669	668.2000122
1436.055435	666.2000122
1436.581145	665.5999756
1437.1068	666.4000244
1437.632399	668.5999756
1438.157944	666.7999878
1438.683433	665.5999756
1439.208868	666.5999756
1439.734247	669.2000122
1440.25957	667.2000122
1440.784839	665.7999878
1441.310053	667.0
1441.835211	665.4000244
1442.360314	665.7999878
1442.885362	666.2000122
1443.410355	667.5999756
1443.935292	666.4000244
1444.460175	667.4000244
1444.985002	668.7999878
1445.509774	668.5999756
1446.034491	667.4000244
1446.559153	665.7999878
1447.08376	666.4000244
1447.608312	664.5999756
1448.132808	667.0
1448.65725	665.4000244
1449.181636	669.5999756
1449.705967	667.4000244
1450.230243	668.4000244
1450.754464	666.5999756
1451.27863	668.0
1451.802741	669.4000244
1452.326797	664.7999878
1452.850797	666.2000122
1453.374743	667.0
1453.898633	667.7999878
1454.422468	665.5999756
1454.946249	665.4000244
1455.469974	665.5999756
1455.993644	666.5999756
1456.517259	668.4000244
1457.040819	669.2000122
1457.564324	665.7999878
1458.087773	668.4000244
1458.611168	667.0
1459.134508	666.4000244
1459.657793	668.4000244
1460.181022	664.7999878
1460.704197	665.2000122
1461.227316	669.5999756
1461.750381	664.5999756
1462.27339	665.7999878
1462.796345	673.2000122
1463.842089	673.5999756
1464.364878	664.4000244
1464.887613	667.2000122
1465.410292	668.5999756
1465.932916	666.2000122
1466.455486	667.5999756
1466.978	667.5999756
1467.50046	668.0
1468.022864	664.7999878
1468.545214	668.4000244
1469.067508	665.5999756
1469.589748	669.0
1470.111932	667.5999756
1470.634062	668.2000122
1471.156136	667.0
1471.678156	666.7999878
1472.20012	669.4000244
1472.72203	667.0
1473.243885	664.7999878
1473.765685	669.2000122
1474.28743	667.5999756
1474.80912	663.4000244
1475.330755	666.7999878
1475.852335	664.5999756
1476.37386	667.5999756
1476.89533	665.0
1477.416745	666.2000122
1477.938106	664.0
1478.459411	668.2000122
1478.980662	666.0
1479.501857	665.2000122
1480.022998	665.0
1480.544084	667.7999878
1481.065115	664.2000122
1481.586091	668.0
1482.107012	666.2000122
1482.627878	667.0
1483.14869	666.5999756
1483.669446	663.2000122
1484.190148	662.5999756
1484.710794	669.4000244
1485.231386	666.4000244
1485.751923	667.0
1486.272406	668.2000122
1486.792833	666.2000122
1487.313205	664.0
1487.833523	664.7999878
1488.353786	667.4000244
1488.873994	665.4000244
1489.394147	666.2000122
1489.914245	663.2000122
1490.434288	668.0
1490.954277	668.4000244
1491.474211	664.4000244
1491.99409	666.5999756
1492.513914	662.4000244
1493.033683	666.0
1493.553398	667.7999878
1494.073057	663.5999756
1494.592662	666.2000122
1495.112212	664.5999756
1495.631708	665.5999756
1496.151148	667.4000244
1496.670534	665.7999878
1497.189865	664.4000244
1497.709141	668.0
1498.228362	665.2000122
1498.747529	666.4000244
1499.266641	667.7999878
1499.785698	670.7999878
1500.3047	663.4000244
1500.823648	665.5999756
1501.34254	666.7999878
1501.861379	667.7999878
1502.380162	666.2000122
1502.89889	665.7999878
1503.417564	664.5999756
1503.936183	664.2000122
1504.454748	668.5999756
1504.973257	664.4000244
1505.491712	666.0
1506.010112	665.2000122
1506.528458	666.7999878
1507.046748	665.5999756
1507.564984	668.0
1508.083166	664.5999756
1508.601292	667.2000122
1509.119364	666.2000122
1509.637381	665.5999756
1510.155344	663.0
1510.673252	670.7999878
1511.191105	665.0
1511.708903	664.2000122
1512.226647	665.2000122
1512.744336	664.7999878
1513.261971	667.0
1513.77955	663.2000122
1514.297076	662.7999878
1514.814546	665.2000122
1515.331962	665.2000122
1515.849323	667.0
1516.366629	664.5999756
1516.883881	668.0
1517.401078	666.4000244
1517.918221	664.0
1518.435309	666.4000244
1518.952342	664.7999878
1519.469321	667.5999756
1519.986245	664.4000244
1520.503114	663.5999756
1521.019929	666.4000244
1521.536689	667.0
1522.053395	665.7999878
1522.570046	667.7999878
1523.086642	664.0
1523.603184	664.4000244
1524.119671	666.7999878
1524.636103	668.2000122
1525.152481	664.2000122
1525.668805	671.0
1526.185073	684.4000244
1526.701288	678.2000122
1527.217447	668.7999878
1527.733552	663.2000122
1528.249603	668.4000244
1528.765599	667.0
1529.28154	665.4000244
1529.797427	668.7999878
1530.313259	666.7999878
1530.829037	664.5999756
1531.34476	666.7999878
1531.860429	667.7999878
1532.376043	665.0
1532.891602	665.5999756
1533.407107	667.2000122
1533.922558	666.0
1534.437954	666.4000244
1534.953295	666.5999756
1535.468582	663.5999756
1535.983815	665.2000122
1536.498993	667.2000122
1537.014116	664.2000122
1537.529185	665.5999756
1538.044199	667.4000244
1538.559159	664.7999878
1539.074064	665.7999878
1539.588915	668.7999878
1540.103712	665.5999756
1540.618454	667.2000122
1541.133141	665.7999878
1541.647774	665.2000122
1542.162353	665.2000122
1542.676877	665.7999878
1543.191346	665.5999756
1543.705761	665.5999756
1544.220122	666.0
1544.734428	664.7999878
1545.24868	664.7999878
1545.762877	665.5999756
1546.27702	668.5999756
1546.791109	668.0
1547.305143	665.4000244
1547.819122	666.0
1548.333047	668.5999756
1548.846918	663.5999756
1549.360734	667.2000122
1549.874496	665.7999878
1550.388204	666.4000244
1550.901857	665.5999756
1551.415455	665.5999756
1551.929	668.0
1552.442489	665.4000244
1552.955925	667.4000244
1553.469306	666.0
1553.982632	667.0
1554.495905	664.7999878
1555.009123	664.4000244
1555.522286	667.5999756
1556.035395	666.4000244
1556.54845	668.5999756
1557.06145	666.7999878
1557.574396	669.5999756
1558.087288	668.4000244
1558.600125	667.0
1559.112908	666.7999878
1559.625637	667.2000122
1560.138311	665.0
1560.650931	666.7999878
1561.163497	664.4000244
1561.676008	666.7999878
1562.188465	666.4000244
1562.700867	665.5999756
1563.213216	665.2000122
1563.725509	666.5999756
1564.237749	666.2000122
1564.749934	667.0
1565.262065	670.0
1565.774142	667.4000244
1566.286164	669.2000122
1566.798132	667.7999878
1567.310046	671.0
1567.821906	668.7999878
1568.333711	669.2000122
1568.845462	669.2000122
1569.357158	666.7999878
1569.868801	669.2000122
1570.380389	666.7999878
1570.891922	666.4000244
1571.403402	664.2000122
1571.914827	666.0
1572.426198	666.2000122
1572.937515	666.7999878
1573.448777	666.4000244
1573.959985	667.0
1574.471139	663.4000244
1574.982239	665.5999756
1575.493285	663.4000244
1576.004276	669.0
1576.515213	665.0
1577.026096	667.4000244
1577.536924	667.7999878
1578.047698	665.0
1578.558419	665.4000244
1579.069084	667.4000244
1579.579696	665.7999878
1580.090254	664.5999756
1580.600757	666.7999878
1581.111206	666.4000244
1581.621601	664.0
1582.131941	666.7999878
1582.642228	666.2000122
1583.15246	664.7999878
1583.662638	667.5999756
1584.172762	666.0
1584.682832	664.7999878
1585.192847	665.4000244
1585.702809	666.2000122
1586.212716	665.7999878
1586.722569	667.7999878
1587.232368	666.4000244
1587.742113	665.5999756
1588.251803	665.2000122
1588.76144	667.2000122
1589.271022	668.2000122
1589.78055	665.2000122
1590.290024	665.4000244
1590.799444	665.0
1591.30881	666.7999878
1591.818121	665.0
1592.327379	666.7999878
