1042.452273	692.7999878
1043.018714	691.4000244
1043.585098	689.2000122
1044.151424	693.7999878
1044.717692	689.2000122
1045.283903	684.7999878
1045.850056	685.4000244
1046.416151	687.0
1046.982188	683.2000122
1047.548167	681.5999756
1048.114089	682.7999878
1048.679953	682.0
1049.24576	679.0
1049.811509	678.7999878
1050.3772	683.4000244
1050.942833	678.7999878
1051.508408	676.5999756
1052.073926	673.0
1052.639387	674.5999756
1053.204789	676.0
1053.770134	678.4000244
1054.335421	675.5999756
1054.900651	677.2000122
1055.465823	673.5999756
1056.030937	673.4000244
1056.595993	674.2000122
1057.160992	673.4000244
1057.725934	674.0
1058.290817	672.5999756
1058.855643	672.2000122
1059.420411	669.0
1059.985122	671.5999756
1060.549775	672.2000122
1061.114371	671.5999756
1061.678908	669.7999878
1062.243389	673.5999756
1062.807811	672.7999878
1063.372176	674.4000244
1063.936483	673.0
1064.500733	670.0
1065.064925	670.7999878
1065.62906	670.7999878
1066.193137	671.2000122
1066.757156	672.4000244
1067.321118	672.7999878
1067.885022	672.2000122
1068.448869	673.5999756
1069.012658	668.7999878
1069.57639	674.4000244
1070.140063	680.4000244
1070.70368	673.2000122
1071.267239	671.4000244
1071.83074	668.5999756
1072.394184	673.5999756
1072.95757	668.4000244
1073.520899	671.5999756
1074.08417	671.7999878
1074.647383	669.5999756
1075.21054	672.4000244
1075.773638	673.2000122
1076.336679	668.2000122
1076.899663	673.7999878
1077.462589	670.4000244
1078.025457	672.0
1078.588268	668.2000122
1079.151022	669.2000122
1079.713718	671.7999878
1080.276356	671.7999878
1080.838937	671.5999756
1081.401461	670.2000122
1081.963927	672.2000122
1082.526336	671.5999756
1083.088687	673.4000244
1083.650981	671.2000122
1084.213217	670.0
1084.775396	671.2000122
1085.337517	671.7999878
1085.899581	673.0
1086.461587	672.0
1087.023536	672.7999878
1087.585428	673.4000244
1088.147262	672.5999756
1088.709039	672.5999756
1089.270758	673.5999756
1089.83242	672.7999878
1090.394024	671.0
1090.955571	675.5999756
1091.517061	677.5999756
1092.078493	673.2000122
1092.639868	674.4000244
1093.201185	672.0
1093.762445	672.4000244
1094.323648	672.7999878
1094.884793	672.7999878
1095.445881	671.2000122
1096.006911	676.4000244
1096.567884	671.7999878
1097.1288	677.4000244
1097.689659	672.2000122
1098.25046	670.0
1098.811203	675.2000122
1099.37189	670.7999878
1099.932518	672.4000244
1100.49309	675.7999878
1101.053604	670.7999878
1101.614061	673.4000244
1102.174461	673.5999756
1102.734803	672.4000244
1103.295088	671.2000122
1103.855316	672.4000244
1104.415486	671.4000244
1104.975599	668.4000244
1105.535655	672.4000244
1106.095653	671.4000244
1106.655594	674.2000122
1107.215478	672.5999756
1107.775305	672.2000122
1108.335074	673.0
1108.894786	670.0
1109.45444	672.0
1110.014038	670.0
1110.573578	673.0
1111.133061	671.5999756
1111.692486	675.0
1112.251854	671.0
1112.811165	669.7999878
1113.370419	670.4000244
1113.929616	668.5999756
1114.488755	672.7999878
1115.047837	672.2000122
1115.606862	672.5999756
1116.16583	673.2000122
1116.72474	675.2000122
1117.283593	672.5999756
1117.842389	668.4000244
1118.401128	670.4000244
1118.959809	671.5999756
1119.518433	672.7999878
1120.077	670.0
1120.63551	668.7999878
1121.193963	667.7999878
1121.752358	670.4000244
1122.310697	668.5999756
1122.868978	670.2000122
1123.427202	671.0
1123.985368	669.7999878
1124.543478	672.2000122
1125.10153	672.2000122
1125.659526	670.0
1126.217464	667.2000122
1126.775345	669.4000244
1127.333168	668.5999756
1127.890935	670.5999756
1128.448644	667.7999878
1129.006297	669.7999878
1129.563892	668.4000244
1130.12143	670.4000244
1130.678911	672.7999878
1131.236335	669.4000244
1131.793701	671.0
1132.351011	670.2000122
1132.908263	668.0
1133.465458	669.4000244
1134.022597	670.5999756
1134.579678	670.7999878
1135.136702	666.4000244
1135.693669	674.5999756
1136.250578	671.7999878
1136.807431	667.0
1137.364227	669.5999756
1137.920965	670.2000122
1138.477647	669.7999878
1139.034271	668.4000244
1139.590839	670.7999878
1140.147349	670.0
1140.703802	668.5999756
1141.260198	669.4000244
1141.816537	668.7999878
1142.37282	673.2000122
1142.929045	667.4000244
1143.485213	670.4000244
1144.041323	670.4000244
1144.597377	669.2000122
1145.153374	667.2000122
1145.709314	670.4000244
1146.265197	666.7999878
1146.821023	670.5999756
1147.376792	668.5999756
1147.932503	670.0
1148.488158	667.2000122
1149.043756	668.7999878
1149.599297	669.2000122
1150.154781	669.2000122
1150.710207	669.5999756
1151.265577	670.2000122
1151.82089	671.5999756
1152.376146	670.4000244
1152.931345	668.5999756
1153.486487	670.5999756
1154.041572	669.4000244
1154.5966	670.0
1155.151571	668.0
1155.706485	669.5999756
1156.261342	670.7999878
1156.816142	670.2000122
1157.370885	669.4000244
1157.925572	666.5999756
1158.480201	669.0
1159.034774	671.5999756
1159.589289	669.5999756
1160.143748	669.7999878
1160.698149	671.5999756
1161.252494	669.4000244
1161.806782	668.2000122
1162.361013	666.7999878
1162.915187	670.0
1163.469304	669.2000122
1164.023364	669.7999878
1164.577368	669.7999878
1165.131314	669.5999756
1165.685204	668.0
1166.239036	671.5999756
1166.792812	671.7999878
1167.346531	670.7999878
1167.900193	668.5999756
1168.453798	670.2000122
1169.007347	670.4000244
1169.560838	667.0
1170.114273	668.4000244
1170.66765	671.7999878
1171.220971	667.5999756
1171.774235	668.7999878
1172.327443	670.5999756
1172.880593	669.5999756
1173.433687	667.2000122
1173.986723	667.0
1174.539703	667.7999878
1175.092626	668.4000244
1175.645493	669.2000122
1176.198302	668.5999756
1176.751055	668.7999878
1177.303751	670.0
1177.85639	668.0
1178.408972	670.4000244
1178.961498	667.4000244
1179.513966	669.4000244
1180.066378	667.2000122
1180.618733	668.0
1181.171032	669.7999878
1181.723273	669.0
1182.275458	669.0
1182.827586	671.0
1183.379657	669.7999878
1183.931672	669.7999878
1184.48363	672.4000244
1185.035531	671.4000244
1185.587375	672.0
1186.139162	666.7999878
1186.690893	669.2000122
1187.242567	668.5999756
1187.794184	668.5999756
1188.345745	670.2000122
1188.897249	668.4000244
1189.448696	668.7999878
1190.000086	669.5999756
1190.55142	669.2000122
1191.102697	668.2000122
1191.653918	669.4000244
1192.205081	666.2000122
1192.756188	669.0
1193.307238	687.5999756
1193.858232	669.0
1194.409169	668.2000122
1194.960049	668.5999756
1195.510872	670.2000122
1196.061639	669.5999756
1196.612349	669.7999878
1197.163003	668.2000122
1197.713599	671.0
1198.264139	667.7999878
1198.814623	670.5999756
1199.36505	669.4000244
1199.91542	667.4000244
1200.465734	671.4000244
1201.01599	669.5999756
1201.566191	667.5999756
1202.116334	667.4000244
1202.666421	670.7999878
1203.216452	670.0
1203.766425	669.5999756
1204.316343	671.5999756
1204.866203	668.2000122
1205.416007	666.2000122
1205.965754	670.5999756
1206.515445	669.4000244
1207.065079	669.2000122
1207.614657	667.7999878
1208.164177	670.7999878
1208.713642	666.2000122
1209.26305	666.7999878
1209.812401	671.2000122
1210.361695	668.7999878
1210.910933	670.7999878
1211.460115	667.5999756
1212.00924	671.7999878
1212.558308	671.7999878
1213.10732	671.0
1213.656275	670.7999878
1214.205174	670.2000122
1214.754016	673.4000244
1215.302801	672.2000122
1215.85153	668.7999878
1216.400203	672.7999878
1216.948819	671.2000122
1217.497378	671.5999756
1218.045881	670.7999878
1218.594327	670.2000122
1219.142717	670.4000244
1219.691051	670.2000122
1220.239327	672.2000122
1220.787548	670.4000244
1221.335712	669.2000122
1221.883819	670.7999878
1222.43187	668.0
1222.979864	668.4000244
1223.527802	672.0
1224.075683	672.5999756
1224.623508	669.0
1225.171277	671.0
1225.718989	670.7999878
1226.266644	672.4000244
1226.814243	674.7999878
1227.361786	670.5999756
1227.909272	669.2000122
1228.456702	669.4000244
1229.004075	670.2000122
1229.551392	670.7999878
1230.098652	672.5999756
1230.645856	672.2000122
1231.193003	669.5999756
1231.740094	674.4000244
1232.287129	669.0
1232.834107	670.5999756
1233.381029	668.5999756
1233.927894	675.0
1234.474703	673.7999878
1235.021455	671.7999878
1235.568151	670.5999756
1236.114791	670.4000244
1236.661374	674.0
1237.207901	671.7999878
1237.754372	669.7999878
1238.300786	670.4000244
1238.847144	674.0
1239.393445	672.0
1239.93969	669.7999878
1240.485879	671.7999878
1241.032011	672.2000122
1241.578087	669.0
1242.124106	673.2000122
1242.67007	676.2000122
1243.215976	673.0
1243.761827	671.4000244
1244.307621	672.2000122
1244.853359	675.0
1245.39904	671.0
1245.944665	671.5999756
1246.490234	673.7999878
1247.035746	676.5999756
1247.581203	674.0
1248.126602	673.2000122
1248.671946	674.2000122
1249.217233	675.0
1249.762464	676.4000244
1250.307638	674.0
1250.852757	671.5999756
1251.397819	673.7999878
1251.942824	673.2000122
1252.487774	673.7999878
1253.032667	673.5999756
1253.577503	673.0
1254.122284	674.4000244
1254.667008	671.2000122
1255.211676	673.0
1255.756288	676.5999756
1256.300843	673.5999756
1256.845342	673.7999878
1257.389785	677.7999878
1257.934172	675.7999878
1258.478502	681.2000122
1259.022776	676.4000244
1259.566994	679.2000122
1260.111156	686.0
1260.655261	676.5999756
1261.199311	683.0
1261.743304	682.2000122
1262.28724	686.4000244
1262.831121	692.2000122
1263.374945	695.2000122
1263.918713	706.2000122
1264.462425	709.0
1265.006081	702.2000122
1265.54968	693.5999756
1266.093223	693.0
1266.636711	685.7999878
1267.180141	678.4000244
1267.723516	680.0
1268.266835	679.7999878
1268.810097	676.2000122
1269.353303	677.2000122
1269.896453	678.2000122
1270.439547	677.0
1270.982584	678.5999756
1271.525566	682.0
1272.068491	678.2000122
1272.61136	679.5999756
1273.154173	676.4000244
1273.69693	676.7999878
1274.239631	677.0
1274.782275	676.4000244
1275.324864	679.4000244
1275.867396	680.4000244
1276.409872	680.0
1276.952292	679.0
1277.494656	680.5999756
1278.036964	681.4000244
1278.579215	683.4000244
1279.121411	682.4000244
1279.66355	687.7999878
1280.205634	688.5999756
1280.747661	697.4000244
1281.289632	702.7999878
1281.831547	722.4000244
1282.373406	759.0
1282.915209	832.2000122
1283.456955	949.2000122
1283.998646	1124.199951
1284.540281	1241.400024
1285.081859	1119.0
1285.623381	887.2000122
1286.164848	770.0
1286.706258	726.4000244
1287.247612	702.2000122
1287.788911	693.4000244
1288.330153	690.5999756
1288.871339	687.0
1289.412469	687.5999756
1289.953543	682.7999878
1290.494561	682.4000244
1291.035523	681.2000122
1291.576428	679.4000244
1292.117278	682.0
1292.658072	679.0
1293.19881	681.0
1293.739492	677.0
1294.280118	679.2000122
1294.820687	677.5999756
1295.361201	677.7999878
1295.901659	681.0
1296.442061	675.0
1296.982406	677.7999878
1297.522696	677.5999756
1298.06293	674.5999756
1298.603108	677.2000122
1299.143229	672.2000122
1299.683295	678.5999756
1300.223305	673.0
1300.763259	674.2000122
1301.303157	675.2000122
1301.842999	673.7999878
1302.382785	674.7999878
1302.922515	672.5999756
1303.462189	674.4000244
1304.001807	674.5999756
1304.541369	676.4000244
1305.080875	675.5999756
1305.620326	677.2000122
1306.15972	675.7999878
1306.699058	674.2000122
1307.238341	673.0
1307.777567	676.4000244
1308.316738	670.5999756
1308.855853	671.4000244
1309.394912	672.5999756
1309.933915	675.2000122
1310.472862	674.4000244
1311.011753	671.5999756
1311.550588	674.0
1312.089367	675.7999878
1312.62809	671.4000244
1313.166758	672.2000122
1313.70537	673.4000244
1314.243925	670.4000244
1314.782425	671.0
1315.320869	674.5999756
1315.859257	673.2000122
1316.397589	676.2000122
1316.935866	674.2000122
1317.474086	673.4000244
1318.012251	670.0
1318.55036	671.5999756
1319.088413	673.2000122
1319.62641	670.7999878
1320.164351	672.0
1320.702236	670.5999756
1321.240066	673.0
1321.777839	670.0
1322.315557	675.2000122
1322.853219	671.0
1323.390826	672.4000244
1323.928376	680.7999878
1324.465871	672.4000244
1325.003309	669.7999878
1325.540692	676.2000122
1326.07802	671.2000122
1326.615291	672.4000244
1327.152506	673.2000122
1327.689666	672.4000244
1328.22677	673.4000244
1328.763818	668.2000122
1329.300811	671.0
1329.837747	674.2000122
1330.374628	672.2000122
1330.911453	672.5999756
1331.448222	671.5999756
1331.984936	672.4000244
1332.521594	669.4000244
1333.058196	670.2000122
1333.594742	670.7999878
1334.131232	673.4000244
1334.667667	674.2000122
1335.204046	672.7999878
1335.740369	673.4000244
1336.276637	673.0
1336.812848	673.7999878
1337.349004	668.5999756
1337.885105	671.7999878
1338.421149	671.0
1338.957138	672.7999878
1339.493071	675.4000244
1340.028949	669.0
1340.56477	671.4000244
1341.100536	673.2000122
1341.636246	672.5999756
1342.171901	667.7999878
1342.7075	672.2000122
1343.243043	671.7999878
1343.77853	676.2000122
1344.313962	672.4000244
1344.849338	672.7999878
1345.384659	672.0
1345.919923	672.7999878
1346.455133	669.5999756
1346.990286	671.7999878
1347.525384	672.2000122
1348.060426	672.2000122
1348.595412	672.0
1349.130343	670.5999756
1349.665218	669.0
1350.200037	673.2000122
1350.734801	671.5999756
1351.269509	671.5999756
1351.804162	673.7999878
1352.338758	671.0
1352.8733	674.2000122
1353.407785	673.0
1353.942215	673.4000244
1354.476589	672.5999756
1355.010908	671.7999878
1355.545171	673.7999878
1356.079379	675.0
1356.61353	673.0
1357.147627	672.5999756
1357.681667	675.4000244
1358.215652	672.2000122
1358.749582	674.0
1359.283456	673.7999878
1359.817274	676.4000244
1360.351037	672.7999878
1360.884744	674.7999878
1361.418395	672.4000244
1361.951991	676.7999878
1362.485531	673.5999756
1363.019016	674.5999756
1363.552445	675.2000122
1364.085819	676.7999878
1364.619137	674.7999878
1365.1524	674.4000244
1365.685607	678.2000122
1366.218758	674.5999756
1366.751854	676.0
1367.284894	677.2000122
1367.817879	676.0
1368.350808	677.7999878
1368.883682	677.5999756
1369.4165	685.2000122
1369.949263	695.2000122
1370.48197	695.7999878
1371.014622	684.0
1371.547218	676.0
1372.079758	676.5999756
1372.612244	678.0
1373.144673	677.0
1373.677047	673.7999878
1374.209366	678.7999878
1374.741629	677.7999878
1375.273836	672.5999756
1375.805989	680.5999756
1376.338085	678.0
1376.870126	680.2000122
1377.402112	675.2000122
1377.934042	676.5999756
1378.465917	679.7999878
1378.997736	681.2000122
1379.5295	682.4000244
1380.061208	685.4000244
1380.592861	683.2000122
1381.124459	684.2000122
1381.656	684.7999878
1382.187487	687.2000122
1382.718918	690.0
1383.250294	689.5999756
1383.781614	697.0
1384.312879	699.7999878
1384.844088	709.5999756
1385.375242	712.2000122
1385.90634	739.0
1386.437383	786.0
1386.968371	908.5999756
1387.499303	1195.599976
1388.03018	1728.0
1388.561001	1722.800049
1389.091767	1168.800049
1389.622478	851.5999756
1390.153133	754.7999878
1390.683733	718.4000244
1391.214277	708.0
1391.744766	700.4000244
1392.2752	693.4000244
1392.805578	688.7999878
1393.335901	685.5999756
1393.866168	687.5999756
1394.396381	686.5999756
1394.926537	682.2000122
1395.456639	682.5999756
1395.986685	683.5999756
1396.516675	684.2000122
1397.046611	679.7999878
1397.576491	680.4000244
1398.106315	677.5999756
1398.636084	675.4000244
1399.165798	677.7999878
1399.695457	680.5999756
1400.22506	682.4000244
1400.754608	679.5999756
1401.284101	677.4000244
1401.813538	678.2000122
1402.34292	679.4000244
1402.872247	676.5999756
1403.401518	679.0
1403.930734	678.4000244
1404.459895	679.7999878
1404.989	679.4000244
1405.51805	684.7999878
1406.047045	679.7999878
1406.575984	680.7999878
1407.104869	689.4000244
1407.633697	691.0
1408.162471	703.4000244
1408.691189	711.7999878
1409.219852	722.0
1409.74846	737.4000244
1410.277013	730.0
1410.80551	705.7999878
1411.333952	693.0
1411.862339	686.4000244
1412.39067	679.7999878
1412.918946	677.2000122
1413.447167	675.4000244
1413.975333	674.0
1414.503444	676.4000244
1415.031499	674.0
1415.559499	686.2000122
1416.087444	674.4000244
1416.615333	673.2000122
1417.143167	672.4000244
1417.670947	674.5999756
1418.19867	670.4000244
1418.726339	674.5999756
1419.253952	672.2000122
1419.781511	672.4000244
1420.309014	670.4000244
1420.836461	671.5999756
1421.363854	672.5999756
1421.891191	673.5999756
1422.418474	673.4000244
1422.945701	672.4000244
1423.472872	670.7999878
1423.999989	671.4000244
1424.52705	673.7999878
1425.054057	674.7999878
1425.581008	672.7999878
1426.107904	671.4000244
1426.634745	671.5999756
1427.16153	669.7999878
1427.688261	672.5999756
1428.214936	672.4000244
1428.741556	671.5999756
1429.268121	672.7999878
1429.794631	671.0
1430.321085	675.2000122
1430.847485	668.0
1431.373829	673.4000244
1431.900118	670.4000244
1432.426353	669.0
1432.952532	668.7999878
1433.478655	667.0
1434.004724	669.5999756
1434.530738	668.5999756
1435.056696	670.5999756
1435.5826	671.4000244
1436.108448	670.7999878
1436.634241	670.0
1437.159979	669.7999878
1437.685662	672.5999756
1438.21129	668.5999756
1438.736863	668.2000122
1439.262381	670.0
1439.787843	670.4000244
1440.313251	668.5999756
1440.838603	668.5999756
1441.3639	668.7999878
1441.889143	670.4000244
1442.41433	671.5999756
1442.939462	667.7999878
1443.464539	666.5999756
1443.989561	670.4000244
1444.514528	667.2000122
1445.03944	669.4000244
1445.564297	668.7999878
1446.089099	668.7999878
1446.613846	667.0
1447.138537	667.4000244
1447.663174	670.5999756
1448.187756	666.2000122
1448.712282	671.0
1449.236754	669.4000244
1449.761171	668.2000122
1450.285532	667.7999878
1450.809839	667.4000244
1451.33409	668.0
1451.858287	666.4000244
1452.382428	669.0
1452.906515	666.4000244
1453.430546	669.7999878
1453.954523	667.2000122
1454.478444	668.2000122
1455.002311	670.0
1455.526123	666.7999878
1456.049879	668.2000122
1456.573581	667.0
1457.097227	669.0
1457.620819	667.4000244
1458.144356	670.4000244
1458.667837	669.5999756
1459.191264	668.7999878
1459.714636	667.7999878
1460.237952	667.7999878
1460.761214	665.5999756
1461.284421	666.0
1461.807573	667.7999878
1462.33067	668.5999756
1462.853712	690.7999878
1463.376699	693.0
1463.899632	670.0
1464.422509	669.5999756
1464.945331	667.4000244
1465.468099	665.7999878
1465.990811	668.7999878
1466.513469	667.2000122
1467.036071	665.4000244
1467.558619	669.5999756
1468.081112	663.5999756
1468.60355	669.7999878
1469.125933	667.0
1469.648261	666.2000122
1470.170534	670.4000244
1470.692752	663.7999878
1471.214916	668.2000122
1471.737024	665.7999878
1472.259078	667.4000244
1472.781077	665.7999878
1473.303021	669.0
1473.82491	665.5999756
1474.346744	666.7999878
1474.868523	667.2000122
1475.390248	666.4000244
1475.911917	666.5999756
1476.433532	668.4000244
1476.955092	664.0
1477.476597	663.4000244
1477.998047	666.4000244
1478.519442	664.5999756
1479.040783	667.4000244
1479.562068	669.0
1480.083299	663.2000122
1480.604475	663.7999878
1481.125596	666.2000122
1481.646663	666.5999756
1482.167674	667.5999756
1482.688631	664.5999756
1483.209533	665.2000122
1484.771909	664.4000244
1485.292592	668.2000122
1485.81322	665.4000244
1486.333793	667.0
1486.854311	666.2000122
1487.374775	664.5999756
1487.895183	665.5999756
1488.415537	666.2000122
1488.935836	664.4000244
1489.456081	666.2000122
1489.97627	664.5999756
1490.496405	665.4000244
1491.016485	664.5999756
1491.536511	665.2000122
1492.056481	668.2000122
1492.576397	664.0
1493.096258	664.0
1493.616064	664.4000244
1494.135816	665.5999756
1494.655513	666.0
1495.175155	665.5999756
1495.694742	667.4000244
1496.214274	663.4000244
1496.733752	668.5999756
1497.253175	664.4000244
1497.772544	668.4000244
1498.291858	665.2000122
1498.811116	665.0
1499.330321	665.2000122
1499.84947	675.7999878
1500.368565	667.4000244
1500.887605	668.4000244
1501.406591	665.7999878
1501.925521	662.5999756
1502.444397	667.5999756
1502.963219	665.2000122
1503.481985	664.7999878
1504.000697	662.4000244
1504.519355	663.4000244
1505.037957	664.7999878
1505.556505	665.5999756
1506.074999	665.0
1506.593437	664.0
1507.111821	665.4000244
1507.63015	663.7999878
1508.148425	664.4000244
1508.666645	662.4000244
1509.18481	665.4000244
1509.702921	664.4000244
1510.220977	667.4000244
1510.738979	671.0
1511.256925	662.2000122
1511.774817	664.7999878
1512.292655	664.5999756
1512.810438	665.7999878
1513.328166	665.7999878
1513.84584	664.0
1514.363459	665.2000122
1514.881023	665.0
1515.398533	666.7999878
1515.915988	665.0
1516.433389	663.5999756
1516.950734	666.4000244
1517.468026	664.2000122
1517.985263	662.7999878
1518.502445	666.2000122
1519.019572	665.2000122
1519.536645	665.4000244
1520.053664	661.5999756
1520.570628	663.0
1521.087537	665.7999878
1521.604392	664.5999756
1522.121192	662.5999756
1522.637937	663.4000244
1523.154628	664.7999878
1523.671265	666.2000122
1524.187847	667.0
1524.704374	662.7999878
1525.220847	665.2000122
1525.737265	676.7999878
1526.253629	692.4000244
1526.769938	673.2000122
1527.286192	668.4000244
1527.802392	667.5999756
1528.318538	664.2000122
1528.834629	663.2000122
1529.350666	665.5999756
1529.866648	665.7999878
1530.382575	664.7999878
1530.898448	664.4000244
1531.414266	664.4000244
1531.93003	666.4000244
1532.44574	664.0
1532.961395	663.0
1533.476995	665.5999756
1533.992541	665.4000244
1534.508033	664.2000122
1535.02347	666.7999878
1535.538852	666.0
1536.05418	666.0
1536.569454	666.4000244
1537.084673	666.5999756
1537.599837	664.2000122
1538.114947	667.4000244
1538.630003	663.0
1539.145004	667.0
1539.659951	664.7999878
1540.174843	668.7999878
1540.689681	663.4000244
1541.204465	665.0
1541.719194	667.5999756
1542.233868	664.0
1542.748488	662.7999878
1543.263054	665.7999878
1543.777565	665.7999878
1544.292022	666.0
1544.806424	665.4000244
1545.320772	665.2000122
1545.835066	666.5999756
1546.349305	667.7999878
1546.863489	667.5999756
1547.37762	664.4000244
1547.891696	667.4000244
1548.405717	664.0
1548.919684	665.7999878
1549.433597	666.5999756
1549.947455	667.2000122
1550.461259	667.0
1550.975009	665.4000244
1551.488704	669.2000122
1552.002345	666.0
1552.515931	666.4000244
1553.029463	666.4000244
1553.542941	663.4000244
1554.056364	666.7999878
1554.569733	666.2000122
1555.083048	665.4000244
1555.596308	667.2000122
1556.109514	667.5999756
1556.622665	667.0
1557.135762	665.4000244
1557.648805	664.7999878
1558.161794	665.7999878
1558.674728	662.7999878
1559.187608	666.7999878
1559.700433	664.5999756
1560.213205	666.5999756
1560.725921	666.7999878
1561.238584	668.4000244
1561.751192	667.0
1562.263746	667.0
1562.776246	664.5999756
1563.288691	668.4000244
1563.801082	663.5999756
1564.313419	668.2000122
1564.825701	666.4000244
1565.337929	668.5999756
1565.850103	669.2000122
1566.362223	668.7999878
1566.874288	667.5999756
1567.386299	668.2000122
1567.898256	668.7999878
1568.410158	671.7999878
1568.922007	667.4000244
1569.4338	665.5999756
1569.94554	666.7999878
1570.457226	665.2000122
1570.968857	664.7999878
1571.480434	665.2000122
1571.991956	665.0
1572.503425	665.0
1573.014839	665.5999756
1573.526199	665.0
1574.037505	664.0
1574.548756	663.4000244
1575.059953	666.5999756
1575.571096	665.7999878
1576.082185	666.7999878
1576.59322	666.5999756
1577.1042	666.2000122
1577.615126	666.5999756
1578.125998	667.5999756
1578.636816	665.2000122
1579.14758	665.0
1579.658289	663.7999878
1580.168944	665.7999878
1580.679545	664.0
1581.190092	662.7999878
1581.700585	664.0
1582.211023	662.5999756
1582.721407	666.0
1583.231737	666.0
1583.742013	665.5999756
1584.252235	664.5999756
1584.762403	664.5999756
1585.272516	666.2000122
1585.782575	666.2000122
1586.292581	664.0
1586.802532	664.4000244
1587.312428	664.4000244
1587.822271	666.4000244
1588.33206	667.2000122
1588.841794	664.2000122
1589.351474	663.7999878
1589.8611	663.7999878
1590.370672	666.0
1590.88019	663.5999756
1591.389654	666.2000122
1591.899064	667.2000122
1592.408419	664.0
