1042.452273	688.2000122
1043.018714	692.5999756
1043.585098	687.2000122
1044.151424	683.4000244
1044.717692	682.5999756
1045.283903	682.0
1045.850056	679.2000122
1046.416151	677.4000244
1046.982188	680.7999878
1047.548167	681.0
1048.114089	680.2000122
1048.679953	677.4000244
1049.24576	674.2000122
1049.811509	674.7999878
1050.3772	675.4000244
1050.942833	676.7999878
1051.508408	670.7999878
1052.073926	676.7999878
1052.639387	675.2000122
1053.204789	673.2000122
1053.770134	674.2000122
1054.335421	674.2000122
1054.900651	674.7999878
1055.465823	667.7999878
1056.030937	674.0
1056.595993	669.5999756
1057.160992	671.0
1057.725934	670.2000122
1058.290817	670.0
1058.855643	670.7999878
1059.420411	669.2000122
1059.985122	671.5999756
1060.549775	672.7999878
1061.114371	668.4000244
1061.678908	668.4000244
1062.243389	671.7999878
1062.807811	666.2000122
1063.372176	671.0
1063.936483	668.4000244
1064.500733	668.4000244
1065.064925	667.5999756
1065.62906	669.4000244
1066.193137	669.7999878
1066.757156	668.2000122
1067.321118	666.5999756
1067.885022	666.7999878
1068.448869	672.0
1069.012658	667.0
1069.57639	665.7999878
1070.140063	674.2000122
1070.70368	665.7999878
1071.267239	669.0
1071.83074	667.0
1072.394184	668.4000244
1072.95757	666.7999878
1073.520899	669.2000122
1074.08417	667.5999756
1074.647383	664.2000122
1075.21054	663.7999878
1075.773638	669.2000122
1076.336679	666.0
1076.899663	669.2000122
1077.462589	668.5999756
1078.025457	666.4000244
1078.588268	668.4000244
1079.151022	664.4000244
1079.713718	666.4000244
1080.276356	668.7999878
1080.838937	670.2000122
1081.401461	665.5999756
1081.963927	667.4000244
1082.526336	667.7999878
1083.088687	661.5999756
1083.650981	664.0
1084.213217	667.2000122
1084.775396	665.5999756
1085.337517	665.5999756
1085.899581	665.7999878
1086.461587	666.0
1087.023536	666.7999878
1087.585428	665.0
1088.147262	666.0
1088.709039	666.5999756
1089.270758	665.2000122
1089.83242	665.7999878
1090.394024	667.5999756
1090.955571	664.2000122
1091.517061	666.4000244
1092.078493	663.7999878
1092.639868	666.7999878
1093.201185	665.2000122
1093.762445	664.7999878
1094.323648	667.4000244
1094.884793	666.0
1095.445881	669.7999878
1096.006911	668.5999756
1096.567884	665.0
1097.1288	673.4000244
1097.689659	667.4000244
1098.25046	665.7999878
1098.811203	665.5999756
1099.37189	666.5999756
1099.932518	667.7999878
1100.49309	667.5999756
1101.053604	668.5999756
1101.614061	664.2000122
1102.174461	665.7999878
1102.734803	664.2000122
1103.295088	664.5999756
1103.855316	665.5999756
1104.415486	665.0
1104.975599	666.7999878
1105.535655	666.5999756
1106.095653	666.0
1106.655594	665.7999878
1107.215478	667.2000122
1107.775305	665.7999878
1108.335074	664.7999878
1108.894786	663.2000122
1109.45444	665.5999756
1110.014038	666.4000244
1110.573578	666.2000122
1111.133061	668.5999756
1111.692486	666.4000244
1112.251854	668.7999878
1112.811165	668.4000244
1113.370419	666.0
1113.929616	666.0
1114.488755	663.7999878
1115.047837	663.7999878
1115.606862	665.5999756
1116.16583	667.7999878
1116.72474	667.2000122
1117.283593	671.0
1117.842389	667.7999878
1118.401128	665.0
1118.959809	664.5999756
1119.518433	665.5999756
1120.077	664.7999878
1120.63551	665.2000122
1121.193963	662.7999878
1121.752358	664.4000244
1122.310697	664.7999878
1122.868978	667.2000122
1123.427202	667.0
1123.985368	661.2000122
1124.543478	665.7999878
1125.10153	664.7999878
1125.659526	666.0
1126.217464	664.7999878
1126.775345	667.0
1127.333168	666.2000122
1127.890935	664.5999756
1128.448644	662.2000122
1129.006297	666.5999756
1129.563892	662.7999878
1130.12143	663.7999878
1130.678911	665.2000122
1131.236335	664.4000244
1131.793701	667.2000122
1132.351011	664.4000244
1132.908263	667.7999878
1133.465458	666.4000244
1134.022597	665.4000244
1134.579678	667.4000244
1135.136702	666.5999756
1135.693669	666.0
1136.250578	665.7999878
1136.807431	666.0
1137.364227	663.5999756
1137.920965	666.7999878
1138.477647	667.0
1139.034271	667.4000244
1139.590839	665.0
1140.147349	665.5999756
1140.703802	663.4000244
1141.260198	664.7999878
1141.816537	665.4000244
1142.37282	664.5999756
1142.929045	668.2000122
1143.485213	666.5999756
1144.041323	665.5999756
1144.597377	665.5999756
1145.153374	664.0
1145.709314	667.0
1146.265197	666.2000122
1146.821023	663.7999878
1147.376792	667.2000122
1147.932503	666.0
1148.488158	667.2000122
1149.043756	666.2000122
1149.599297	665.2000122
1150.154781	666.4000244
1150.710207	668.7999878
1151.265577	665.4000244
1151.82089	664.0
1152.376146	665.2000122
1152.931345	666.4000244
1153.486487	662.7999878
1154.041572	666.5999756
1154.5966	666.2000122
1155.151571	664.2000122
1155.706485	665.5999756
1156.261342	663.7999878
1156.816142	668.0
1157.370885	665.7999878
1157.925572	666.0
1158.480201	665.0
1159.034774	666.7999878
1159.589289	664.4000244
1160.143748	662.2000122
1160.698149	666.7999878
1161.252494	668.4000244
1161.806782	666.7999878
1162.361013	665.0
1162.915187	668.7999878
1163.469304	665.0
1164.023364	666.5999756
1164.577368	666.2000122
1165.131314	665.4000244
1165.685204	663.2000122
1166.239036	663.7999878
1166.792812	666.0
1167.346531	664.0
1167.900193	663.5999756
1168.453798	664.0
1169.007347	664.4000244
1169.560838	665.0
1170.114273	661.5999756
1170.66765	662.4000244
1171.220971	664.4000244
1171.774235	664.4000244
1172.327443	662.4000244
1172.880593	665.0
1173.433687	663.4000244
1173.986723	665.2000122
1174.539703	666.2000122
1175.092626	666.4000244
1175.645493	667.2000122
1176.198302	663.2000122
1176.751055	665.4000244
1177.303751	663.2000122
1177.85639	666.0
1178.408972	664.4000244
1178.961498	668.7999878
1179.513966	664.4000244
1180.066378	667.0
1180.618733	664.0
1181.171032	666.0
1181.723273	665.7999878
1182.275458	666.2000122
1182.827586	663.0
1183.379657	663.4000244
1183.931672	664.7999878
1184.48363	668.0
1185.035531	665.4000244
1185.587375	667.7999878
1186.139162	663.7999878
1186.690893	665.0
1187.242567	664.0
1187.794184	665.0
1188.345745	665.7999878
1188.897249	666.2000122
1189.448696	662.5999756
1190.000086	666.5999756
1190.55142	663.2000122
1191.102697	665.0
1191.653918	665.4000244
1192.205081	664.2000122
1192.756188	662.5999756
1193.307238	688.2000122
1193.858232	663.4000244
1194.409169	663.2000122
1194.960049	664.4000244
1195.510872	664.7999878
1196.061639	665.2000122
1196.612349	665.7999878
1197.163003	664.4000244
1197.713599	667.0
1198.264139	666.2000122
1198.814623	664.5999756
1199.36505	662.2000122
1199.91542	664.7999878
1200.465734	665.2000122
1201.01599	667.0
1201.566191	662.2000122
1202.116334	664.4000244
1202.666421	663.5999756
1203.216452	663.0
1203.766425	663.7999878
1204.316343	667.0
1204.866203	662.0
1205.416007	665.5999756
1205.965754	665.0
1206.515445	663.5999756
1207.065079	665.4000244
1207.614657	666.7999878
1208.164177	668.2000122
1208.713642	663.5999756
1209.26305	665.7999878
1209.812401	664.2000122
1210.361695	663.7999878
1210.910933	668.7999878
1211.460115	665.5999756
1212.00924	665.2000122
1212.558308	665.4000244
1213.10732	665.0
1213.656275	665.0
1214.205174	665.2000122
1214.754016	668.5999756
1215.302801	664.7999878
1215.85153	664.5999756
1216.400203	667.0
1216.948819	669.0
1217.497378	665.2000122
1218.045881	665.5999756
1218.594327	666.4000244
1219.142717	666.0
1219.691051	667.2000122
1220.239327	664.2000122
1220.787548	664.2000122
1221.335712	664.5999756
1221.883819	666.7999878
1222.43187	666.2000122
1222.979864	669.0
1223.527802	664.2000122
1224.075683	665.2000122
1224.623508	665.7999878
1225.171277	664.0
1225.718989	665.5999756
1226.266644	667.4000244
1226.814243	664.7999878
1227.361786	664.7999878
1227.909272	663.2000122
1228.456702	664.5999756
1229.004075	666.7999878
1229.551392	665.0
1230.098652	664.5999756
1230.645856	663.0
1231.193003	666.4000244
1231.740094	668.7999878
1232.287129	665.0
1232.834107	667.0
1233.381029	667.0
1233.927894	663.5999756
1234.474703	666.2000122
1235.021455	665.7999878
1235.568151	664.7999878
1236.114791	668.4000244
1236.661374	667.0
1237.207901	664.2000122
1237.754372	664.5999756
1238.300786	663.7999878
1238.847144	666.5999756
1239.393445	665.5999756
1239.93969	667.2000122
1240.485879	665.4000244
1241.032011	665.2000122
1241.578087	664.4000244
1242.124106	663.4000244
1242.67007	665.5999756
1243.215976	668.0
1243.761827	665.2000122
1244.307621	666.5999756
1244.853359	664.7999878
1245.39904	665.4000244
1245.944665	665.2000122
1246.490234	667.0
1247.035746	665.5999756
1247.581203	667.7999878
1248.126602	666.4000244
1248.671946	666.2000122
1249.217233	670.2000122
1249.762464	667.4000244
1250.307638	668.0
1250.852757	666.0
1251.397819	667.4000244
1251.942824	665.2000122
1252.487774	666.5999756
1253.032667	666.2000122
1253.577503	665.7999878
1254.122284	667.4000244
1254.667008	665.4000244
1255.211676	666.0
1255.756288	665.2000122
1256.300843	668.5999756
1256.845342	667.4000244
1257.389785	666.7999878
1257.934172	668.4000244
1258.478502	670.7999878
1259.022776	668.0
1259.566994	669.5999756
1260.111156	677.0
1260.655261	670.4000244
1261.199311	668.7999878
1261.743304	674.0
1262.28724	674.2000122
1262.831121	681.4000244
1263.374945	682.5999756
1263.918713	686.2000122
1264.462425	690.4000244
1265.006081	685.4000244
1265.54968	679.2000122
1266.093223	670.5999756
1266.636711	672.2000122
1267.180141	669.7999878
1267.723516	671.4000244
1268.266835	670.5999756
1268.810097	666.7999878
1269.353303	667.5999756
1269.896453	670.7999878
1270.439547	669.0
1270.982584	665.4000244
1271.525566	668.7999878
1272.068491	667.7999878
1272.61136	668.0
1273.154173	670.2000122
1273.69693	667.4000244
1274.239631	668.7999878
1274.782275	666.7999878
1275.324864	668.7999878
1275.867396	669.2000122
1276.409872	670.4000244
1276.952292	667.2000122
1277.494656	671.0
1278.036964	671.4000244
1278.579215	672.4000244
1279.121411	670.5999756
1279.66355	674.2000122
1280.205634	677.2000122
1280.747661	681.2000122
1281.289632	687.5999756
1281.831547	708.0
1282.373406	735.7999878
1282.915209	795.4000244
1283.456955	891.5999756
1283.998646	1007.0
1284.540281	1022.599976
1285.081859	909.5999756
1285.623381	786.4000244
1286.164848	718.7999878
1286.706258	696.7999878
1287.247612	685.7999878
1287.788911	681.5999756
1288.330153	675.4000244
1288.871339	669.4000244
1289.412469	671.5999756
1289.953543	670.7999878
1290.494561	669.0
1291.035523	671.5999756
1291.576428	669.4000244
1292.117278	668.0
1292.658072	667.0
1293.19881	668.0
1293.739492	667.2000122
1294.280118	668.4000244
1294.820687	666.0
1295.361201	669.5999756
1295.901659	668.0
1296.442061	667.7999878
1296.982406	669.0
1297.522696	669.2000122
1298.06293	664.7999878
1298.603108	667.2000122
1299.143229	664.4000244
1299.683295	670.5999756
1300.223305	669.2000122
1300.763259	665.7999878
1301.303157	668.0
1301.842999	666.5999756
1302.382785	665.4000244
1302.922515	667.2000122
1303.462189	667.2000122
1304.001807	666.5999756
1304.541369	666.5999756
1305.080875	666.7999878
1305.620326	665.5999756
1306.15972	665.2000122
1306.699058	667.7999878
1307.238341	667.7999878
1307.777567	666.7999878
1308.316738	664.7999878
1308.855853	666.5999756
1309.394912	665.5999756
1309.933915	665.0
1310.472862	665.7999878
1311.011753	665.0
1311.550588	663.2000122
1312.089367	668.5999756
1312.62809	664.7999878
1313.166758	667.2000122
1313.70537	664.7999878
1314.243925	666.5999756
1314.782425	665.5999756
1315.320869	664.4000244
1315.859257	665.5999756
1316.397589	668.5999756
1316.935866	665.5999756
1317.474086	663.4000244
1318.012251	666.0
1318.55036	664.7999878
1319.088413	666.0
1319.62641	665.7999878
1320.164351	666.0
1320.702236	665.4000244
1321.240066	666.2000122
1321.777839	666.0
1322.315557	664.4000244
1322.853219	664.7999878
1323.390826	666.7999878
1323.928376	669.0
1324.465871	664.0
1325.003309	664.2000122
1325.540692	666.2000122
1326.07802	667.2000122
1326.615291	664.2000122
1327.152506	665.4000244
1327.689666	667.0
1328.22677	663.4000244
1328.763818	662.0
1329.300811	663.7999878
1329.837747	665.7999878
1330.374628	666.0
1330.911453	663.0
1331.448222	661.5999756
1331.984936	665.7999878
1332.521594	663.5999756
1333.058196	665.5999756
1333.594742	664.7999878
1334.131232	664.7999878
1334.667667	667.0
1335.204046	662.4000244
1335.740369	665.0
1336.276637	667.0
1336.812848	664.5999756
1337.349004	666.4000244
1337.885105	664.2000122
1338.421149	664.0
1338.957138	663.2000122
1339.493071	666.2000122
1340.028949	664.7999878
1340.56477	663.5999756
1341.100536	662.7999878
1341.636246	664.0
1342.171901	661.5999756
1342.7075	663.5999756
1343.243043	666.4000244
1343.77853	662.4000244
1344.313962	664.7999878
1344.849338	664.2000122
1345.384659	665.2000122
1345.919923	664.5999756
1346.455133	668.2000122
1346.990286	665.4000244
1347.525384	666.2000122
1348.060426	666.4000244
1348.595412	666.0
1349.130343	663.5999756
1349.665218	664.5999756
1350.200037	666.7999878
1350.734801	664.5999756
1351.269509	665.7999878
1351.804162	664.2000122
1352.338758	664.7999878
1352.8733	667.4000244
1353.407785	666.5999756
1353.942215	664.0
1354.476589	667.4000244
1355.010908	666.2000122
1355.545171	666.5999756
1356.079379	662.0
1356.61353	666.4000244
1357.147627	663.4000244
1357.681667	666.2000122
1358.215652	663.2000122
1358.749582	666.4000244
1359.283456	665.7999878
1359.817274	666.2000122
1360.351037	668.0
1360.884744	667.2000122
1361.418395	666.5999756
1361.951991	667.2000122
1362.485531	665.7999878
1363.019016	665.7999878
1363.552445	668.4000244
1364.085819	665.0
1364.619137	666.4000244
1365.1524	668.4000244
1365.685607	666.4000244
1366.218758	669.2000122
1366.751854	665.4000244
1367.284894	665.2000122
1367.817879	666.5999756
1368.350808	666.5999756
1368.883682	668.4000244
1369.4165	670.2000122
1369.949263	679.2000122
1370.48197	678.2000122
1371.014622	671.2000122
1371.547218	668.7999878
1372.079758	668.2000122
1372.612244	668.4000244
1373.144673	670.4000244
1373.677047	669.0
1374.209366	665.7999878
1374.741629	668.0
1375.273836	669.7999878
1375.805989	667.4000244
1376.338085	666.5999756
1376.870126	668.0
1377.402112	669.0
1377.934042	669.4000244
1378.465917	665.4000244
1378.997736	671.7999878
1379.5295	670.5999756
1380.061208	669.5999756
1380.592861	671.2000122
1381.124459	674.2000122
1381.656	673.7999878
1382.187487	674.0
1382.718918	675.4000244
1383.250294	676.0
1383.781614	679.0
1384.312879	683.2000122
1384.844088	688.5999756
1385.375242	700.0
1385.90634	714.5999756
1386.437383	759.7999878
1386.968371	855.0
1387.499303	1087.800049
1388.03018	1414.599976
1388.561001	1295.199951
1389.091767	949.2000122
1389.622478	771.2000122
1390.153133	719.2000122
1390.683733	696.0
1391.214277	683.0
1391.744766	680.2000122
1392.2752	676.4000244
1392.805578	675.5999756
1393.335901	674.5999756
1393.866168	672.7999878
1394.396381	672.4000244
1394.926537	671.0
1395.456639	670.4000244
1395.986685	668.5999756
1396.516675	670.4000244
1397.046611	669.4000244
1397.576491	670.0
1398.106315	671.7999878
1398.636084	670.4000244
1399.165798	670.4000244
1399.695457	666.7999878
1400.22506	670.2000122
1400.754608	667.7999878
1401.284101	670.5999756
1401.813538	669.2000122
1402.34292	668.2000122
1402.872247	667.2000122
1403.401518	669.7999878
1403.930734	668.2000122
1404.459895	670.4000244
1404.989	672.2000122
1405.51805	670.0
1406.047045	671.4000244
1406.575984	669.5999756
1407.104869	675.2000122
1407.633697	677.2000122
1408.162471	685.2000122
1408.691189	691.5999756
1409.219852	702.2000122
1409.74846	705.7999878
1410.277013	700.0
1410.80551	690.5999756
1411.333952	676.7999878
1411.862339	675.2000122
1412.39067	667.7999878
1412.918946	668.5999756
1413.447167	666.2000122
1413.975333	667.5999756
1414.503444	667.4000244
1415.031499	666.4000244
1415.559499	680.5999756
1416.087444	667.7999878
1416.615333	664.7999878
1417.143167	666.7999878
1417.670947	665.5999756
1418.19867	666.7999878
1418.726339	666.4000244
1419.253952	663.5999756
1419.781511	664.4000244
1420.309014	665.4000244
1420.836461	665.0
1421.363854	664.4000244
1421.891191	665.2000122
1422.418474	663.0
1422.945701	664.0
1423.472872	666.5999756
1423.999989	664.5999756
1424.52705	665.4000244
1425.054057	667.2000122
1425.581008	664.7999878
1426.107904	666.4000244
1426.634745	664.5999756
1427.16153	663.7999878
1427.688261	667.2000122
1428.214936	662.4000244
1428.741556	661.7999878
1429.268121	663.7999878
1429.794631	666.2000122
1430.321085	664.2000122
1430.847485	663.2000122
1431.373829	661.2000122
1431.900118	664.5999756
1432.426353	664.4000244
1432.952532	663.4000244
1433.478655	662.5999756
1434.004724	662.5999756
1434.530738	665.4000244
1435.056696	664.0
1435.5826	662.5999756
1436.108448	665.5999756
1436.634241	662.4000244
1437.159979	661.4000244
1437.685662	661.5999756
1438.21129	666.2000122
1438.736863	663.5999756
1439.262381	663.0
1439.787843	660.2000122
1440.313251	662.0
1440.838603	662.0
1441.3639	662.0
1441.889143	660.7999878
1442.41433	663.7999878
1442.939462	663.4000244
1443.464539	663.7999878
1443.989561	663.4000244
1444.514528	664.5999756
1445.03944	661.2000122
1445.564297	663.2000122
1446.089099	663.2000122
1446.613846	664.0
1447.138537	666.2000122
1447.663174	665.2000122
1448.187756	665.2000122
1448.712282	659.5999756
1449.236754	663.2000122
1449.761171	664.5999756
1450.285532	662.7999878
1450.809839	662.7999878
1451.33409	664.7999878
1451.858287	662.7999878
1452.382428	665.7999878
1452.906515	662.5999756
1453.430546	661.2000122
1453.954523	663.0
1454.478444	663.7999878
1455.002311	664.0
1455.526123	661.2000122
1456.049879	663.2000122
1456.573581	663.0
1457.097227	661.2000122
1457.620819	662.7999878
1458.144356	663.4000244
1458.667837	663.7999878
1459.191264	663.0
1459.714636	665.2000122
1460.237952	662.5999756
1460.761214	665.7999878
1461.284421	664.4000244
1461.807573	663.5999756
1462.33067	663.4000244
1462.853712	672.4000244
1463.376699	670.7999878
1463.899632	663.2000122
1464.422509	663.2000122
1464.945331	660.5999756
1465.468099	664.0
1465.990811	664.2000122
1466.513469	661.4000244
1467.036071	662.2000122
1467.558619	659.5999756
1468.081112	661.5999756
1468.60355	661.5999756
1469.125933	664.0
1469.648261	660.2000122
1470.170534	662.5999756
1470.692752	660.7999878
1471.214916	663.2000122
1471.737024	662.0
1472.259078	663.2000122
1472.781077	662.0
1473.303021	662.2000122
1473.82491	662.4000244
1474.346744	661.7999878
1474.868523	664.2000122
1475.390248	661.0
1475.911917	662.4000244
1476.433532	660.0
1476.955092	662.2000122
1477.476597	663.0
1477.998047	661.5999756
1478.519442	660.0
1479.040783	661.7999878
1479.562068	662.0
1480.083299	659.4000244
1480.604475	661.0
1481.125596	661.2000122
1481.646663	660.5999756
1482.167674	660.7999878
1482.688631	662.2000122
1483.209533	663.7999878
1483.73038	661.5999756
1484.251172	663.2000122
1484.771909	659.7999878
1485.292592	660.2000122
1485.81322	661.2000122
1486.333793	661.7999878
1486.854311	661.5999756
1487.374775	660.4000244
1487.895183	659.2000122
1488.415537	663.4000244
1488.935836	661.2000122
1489.456081	659.2000122
1489.97627	662.0
1490.496405	661.5999756
1491.016485	659.4000244
1491.536511	663.4000244
1492.056481	658.7999878
1492.576397	660.7999878
1493.096258	660.4000244
1493.616064	659.4000244
1494.135816	663.2000122
1494.655513	661.2000122
1495.175155	660.5999756
1495.694742	665.0
1496.214274	659.5999756
1496.733752	663.7999878
1497.253175	662.5999756
1497.772544	661.0
1498.811116	664.7999878
1499.330321	661.5999756
1499.84947	668.7999878
1500.368565	662.5999756
1500.887605	663.0
1501.406591	662.0
1501.925521	662.7999878
1502.444397	661.2000122
1502.963219	662.0
1503.481985	661.5999756
1504.000697	662.4000244
1504.519355	663.4000244
1505.037957	663.5999756
1505.556505	662.4000244
1506.074999	660.7999878
1506.593437	660.5999756
1507.111821	662.5999756
1507.63015	661.7999878
1508.148425	662.4000244
1508.666645	659.4000244
1509.18481	661.5999756
1509.702921	662.5999756
1510.220977	659.5999756
1510.738979	671.4000244
1511.256925	660.4000244
1511.774817	661.7999878
1512.292655	660.7999878
1512.810438	661.5999756
1513.328166	662.4000244
1513.84584	660.4000244
1514.363459	660.7999878
1514.881023	659.4000244
1515.398533	658.5999756
1515.915988	659.7999878
1516.433389	660.4000244
1516.950734	661.5999756
1517.468026	660.5999756
1517.985263	661.7999878
1518.502445	660.7999878
1519.019572	660.7999878
1519.536645	662.2000122
1520.053664	659.4000244
1520.570628	661.2000122
1521.087537	661.5999756
1521.604392	659.7999878
1522.121192	662.5999756
1522.637937	661.4000244
1523.154628	661.2000122
1523.671265	659.2000122
1524.187847	660.2000122
1524.704374	661.5999756
1525.220847	662.2000122
1525.737265	666.5999756
1526.253629	666.5999756
1526.769938	663.2000122
1527.286192	660.7999878
1527.802392	659.0
1528.318538	659.7999878
1528.834629	660.4000244
1529.350666	660.0
1529.866648	661.0
1530.382575	663.2000122
1530.898448	661.7999878
1531.414266	661.2000122
1531.93003	661.2000122
1532.44574	658.0
1532.961395	661.2000122
1533.476995	657.4000244
1533.992541	661.4000244
1534.508033	657.2000122
1535.02347	661.5999756
1535.538852	659.7999878
1536.05418	663.4000244
1536.569454	660.2000122
1537.084673	658.4000244
1537.599837	661.2000122
1538.114947	661.5999756
1538.630003	660.5999756
1539.145004	659.0
1539.659951	661.5999756
1540.174843	659.7999878
1540.689681	660.4000244
1541.204465	658.4000244
1541.719194	662.5999756
1542.233868	664.4000244
1542.748488	657.5999756
1543.263054	662.4000244
1543.777565	660.7999878
1544.292022	660.7999878
1544.806424	659.5999756
1545.320772	660.0
1545.835066	660.7999878
1546.349305	660.7999878
1546.863489	659.7999878
1547.37762	661.4000244
1547.891696	660.0
1548.405717	660.2000122
1548.919684	661.4000244
1549.433597	660.5999756
1549.947455	659.7999878
1550.461259	660.2000122
1550.975009	661.7999878
1551.488704	661.7999878
1552.002345	660.7999878
1552.515931	662.2000122
1553.029463	659.7999878
1553.542941	657.2000122
1554.056364	661.0
1554.569733	659.7999878
1555.083048	659.2000122
1555.596308	661.5999756
1556.109514	661.4000244
1556.622665	659.4000244
1557.135762	662.2000122
1557.648805	661.2000122
1558.161794	663.0
1558.674728	662.4000244
1559.187608	659.7999878
1559.700433	662.5999756
1560.213205	661.7999878
1560.725921	661.4000244
1561.238584	660.7999878
1561.751192	662.5999756
1562.263746	661.2000122
1562.776246	660.0
1563.288691	659.7999878
1563.801082	661.2000122
1564.313419	661.7999878
1564.825701	662.5999756
1565.337929	664.5999756
1565.850103	661.7999878
1566.362223	662.2000122
1566.874288	661.2000122
1567.386299	661.5999756
1567.898256	663.4000244
1568.410158	663.0
1568.922007	660.4000244
1569.4338	661.4000244
1569.94554	663.4000244
1570.457226	661.2000122
1570.968857	660.5999756
1571.480434	660.7999878
1571.991956	661.4000244
1572.503425	662.7999878
1573.014839	662.4000244
1573.526199	663.5999756
1574.037505	663.0
1574.548756	661.0
1575.059953	658.4000244
1575.571096	659.0
1576.082185	659.5999756
1576.59322	661.0
1577.1042	661.2000122
1577.615126	663.0
1578.125998	659.5999756
1578.636816	662.0
1579.14758	660.2000122
1579.658289	657.7999878
1580.168944	657.5999756
1580.679545	661.0
1581.190092	659.2000122
1581.700585	661.5999756
1582.211023	661.0
1582.721407	660.0
1583.231737	662.2000122
1583.742013	663.0
1584.252235	660.7999878
1584.762403	660.0
1585.272516	659.0
1585.782575	657.2000122
1586.292581	660.0
1586.802532	659.7999878
1587.312428	659.0
1587.822271	660.4000244
1588.33206	661.7999878
1588.841794	660.4000244
1589.351474	657.5999756
1589.8611	657.7999878
1590.370672	660.0
1590.88019	659.7999878
1591.389654	662.4000244
1591.899064	659.7999878
1592.408419	659.0
