1042.414189	680.0
1042.980685	679.5
1043.547124	678.5
1044.113505	680.75
1044.679828	679.0
1045.246093	677.75
1045.8123	675.25
1046.378449	675.25
1046.94454	677.75
1047.510573	676.0
1048.076548	674.5
1048.642465	674.75
1049.208325	675.25
1049.774126	674.75
1050.339869	671.25
1050.905555	673.75
1051.471183	673.25
1052.036752	670.75
1052.602264	673.5
1053.167718	676.75
1053.733114	672.5
1054.298452	671.0
1054.863733	674.5
1055.428955	672.5
1055.994119	670.5
1056.559226	673.5
1057.124275	670.25
1057.689266	675.5
1058.254199	672.25
1058.819074	671.25
1059.383891	667.5
1059.94865	669.75
1060.513352	673.5
1061.077996	672.0
1061.642582	672.25
1062.20711	673.5
1062.77158	672.5
1063.335992	671.5
1063.900347	669.0
1064.464643	670.25
1065.028882	669.75
1065.593063	669.5
1066.157187	670.25
1066.721252	667.0
1067.28526	669.75
1067.84921	670.0
1068.413102	668.5
1068.976936	670.75
1069.540713	671.25
1070.104431	678.0
1070.668092	670.25
1071.231696	667.25
1071.795241	668.75
1072.358729	670.75
1072.922159	669.5
1073.485531	667.25
1074.048845	669.5
1074.612102	669.0
1075.175301	671.5
1075.738442	667.75
1076.301525	669.25
1076.864551	669.75
1077.427519	667.0
1077.990429	669.5
1078.553281	668.0
1079.116076	667.0
1079.678813	668.5
1080.241492	670.75
1080.804114	668.75
1081.366678	669.5
1081.929184	666.0
1082.491633	668.25
1083.054024	666.25
1083.616357	669.75
1084.178632	667.0
1084.74085	667.0
1085.30301	666.0
1085.865113	668.0
1086.427158	668.5
1086.989145	669.75
1087.551074	668.5
1088.112946	669.25
1088.67476	670.0
1089.236517	671.0
1089.798216	668.25
1090.359857	666.75
1090.92144	669.25
1091.482966	668.5
1092.044435	671.0
1092.605845	669.0
1093.167199	664.5
1093.728494	668.5
1094.289732	669.0
1094.850912	670.0
1095.412035	683.5
1095.9731	669.0
1096.534107	665.0
1097.095057	675.0
1097.65595	666.25
1098.216784	669.5
1098.777561	666.75
1099.338281	671.5
1099.898943	669.25
1100.459547	669.5
1101.020094	672.5
1101.580584	667.0
1102.141015	670.25
1102.701389	668.25
1103.261706	667.75
1103.821965	669.75
1104.382167	669.0
1104.942311	667.5
1105.502397	669.0
1106.062426	670.5
1106.622398	672.25
1107.182312	670.0
1107.742168	669.75
1108.301967	671.25
1108.861708	667.5
1109.421392	670.5
1109.981019	671.25
1110.540587	669.75
1111.100099	668.75
1111.659553	668.75
1112.218949	667.5
1112.778288	666.0
1113.33757	668.0
1113.896794	669.75
1114.45596	669.75
1115.015069	669.25
1115.574121	669.5
1116.133115	670.0
1116.692052	669.25
1117.250931	672.25
1117.809753	664.5
1118.368517	670.5
1118.927224	669.75
1119.485873	670.0
1120.044465	669.25
1120.603	666.5
1121.161477	668.5
1121.719897	668.0
1122.278259	666.5
1122.836564	668.25
1123.394812	670.5
1123.953002	667.5
1124.511135	666.75
1125.06921	667.25
1125.627228	670.0
1126.185189	669.25
1126.743092	665.75
1127.300938	666.25
1127.858726	668.25
1128.416457	668.25
1128.974131	668.5
1129.531748	668.75
1130.089307	666.5
1130.646808	665.0
1131.204252	667.0
1131.761639	667.0
1132.318969	671.75
1132.876241	663.75
1133.433456	669.0
1133.990614	667.5
1134.547714	670.0
1135.104757	670.0
1135.661743	670.0
1136.218671	665.5
1136.775542	665.0
1137.332356	669.5
1137.889112	669.0
1138.445811	668.0
1139.002453	669.0
1139.559037	665.75
1140.115565	669.75
1140.672035	667.25
1141.228447	667.25
1141.784803	669.5
1142.341101	666.0
1142.897342	668.0
1143.453525	668.25
1144.009651	672.0
1144.565721	671.0
1145.121732	668.5
1145.677687	667.5
1146.233584	668.75
1146.789424	667.75
1147.345207	666.25
1147.900933	669.75
1148.456601	666.25
1149.012212	663.0
1149.567766	666.75
1150.123263	667.5
1150.678702	670.5
1151.234085	668.75
1151.78941	669.75
1152.344678	671.75
1152.899888	665.0
1153.455042	668.75
1154.010138	667.75
1154.565177	668.75
1155.120159	666.75
1155.675084	667.25
1156.229951	670.5
1156.784762	666.5
1157.339515	668.5
1157.894211	671.0
1158.44885	670.75
1159.003432	668.0
1159.557956	666.25
1160.112424	668.75
1160.666834	669.5
1161.221187	666.25
1161.775483	668.75
1162.329722	669.5
1162.883904	670.0
1163.438029	670.75
1163.992096	667.25
1164.546107	669.25
1165.10006	668.75
1165.653956	668.0
1166.207795	670.5
1166.761577	667.25
1167.315302	668.0
1167.86897	667.5
1168.422581	666.0
1168.976134	666.0
1169.529631	668.25
1170.08307	667.75
1170.636453	669.25
1171.189778	668.5
1171.743046	668.0
1172.296257	667.25
1172.849412	670.0
1173.402509	668.0
1173.955549	668.75
1174.508532	666.5
1175.061458	668.5
1175.614327	666.0
1176.167138	668.25
1176.719893	671.0
1177.272591	672.5
1177.825232	668.0
1178.377816	669.5
1178.930342	671.5
1179.482812	667.5
1180.035225	668.5
1180.587581	670.25
1181.139879	668.5
1181.692121	669.25
1182.244306	669.25
1182.796434	668.25
1183.348504	667.75
1183.900518	665.75
1184.452475	668.25
1185.004375	668.75
1185.556218	669.5
1186.108004	670.25
1186.659733	667.75
1187.211405	668.0
1187.76302	665.75
1188.314578	666.5
1188.866079	672.25
1189.417523	666.25
1189.96891	671.75
1190.520241	668.25
1191.071514	667.75
1191.622731	669.75
1192.17389	669.75
1192.724993	668.25
1193.276039	687.0
1193.827027	666.75
1194.377959	666.75
1194.928834	670.5
1195.479653	669.5
1196.030414	667.25
1196.581118	669.5
1197.131766	668.5
1197.682356	666.75
1198.23289	668.25
1198.783367	668.0
1199.333786	669.5
1199.88415	671.0
1200.434456	667.25
1200.984705	668.25
1201.534898	667.5
1202.085033	669.5
1202.635112	666.75
1203.185134	667.0
1203.735099	668.25
1204.285007	665.25
1204.834859	668.5
1205.384653	667.0
1205.934391	669.75
1206.484072	665.75
1207.033696	667.25
1207.583263	668.25
1208.132774	667.25
1208.682228	668.75
1209.231624	670.0
1209.780965	670.25
1210.330248	669.0
1210.879474	668.25
1211.428644	666.0
1211.977757	670.25
1212.526813	670.25
1213.075813	670.75
1213.624755	666.0
1214.173641	670.25
1214.72247	670.75
1215.271242	669.0
1215.819958	671.0
1216.368617	667.5
1216.917219	667.5
1217.465764	670.0
1218.014253	670.5
1218.562685	669.5
1219.11106	667.5
1219.659378	670.75
1220.20764	670.25
1220.755845	670.0
1221.303993	668.75
1221.852085	669.25
1222.400119	667.5
1222.948097	669.75
1223.496019	671.25
1224.043883	668.5
1224.591691	669.75
1225.139443	670.75
1225.687137	668.5
1226.234775	671.25
1226.782357	672.0
1227.329881	667.25
1227.877349	667.75
1228.42476	669.75
1228.972115	671.5
1229.519413	671.5
1230.066654	673.25
1230.613839	672.5
1231.160967	670.25
1231.708038	674.25
1232.255053	667.75
1232.802011	670.25
1233.348912	669.75
1233.895757	670.0
1234.442545	673.0
1234.989277	670.0
1235.535951	670.25
1236.08257	668.5
1236.629131	668.5
1237.175636	671.75
1237.722085	668.25
1238.268477	670.5
1238.814812	672.5
1239.361091	670.25
1239.907313	670.5
1240.453478	668.25
1240.999587	672.25
1241.54564	667.5
1242.091636	670.75
1242.637575	672.75
1243.183457	672.5
1243.729284	672.0
1244.275053	670.75
1244.820766	670.75
1245.366423	669.25
1245.912022	671.5
1246.457566	673.25
1247.003053	672.75
1247.548483	672.0
1248.093857	671.75
1248.639174	672.0
1249.184435	671.25
1249.729639	670.75
1250.274787	671.75
1250.819878	671.5
1251.364912	669.5
1251.909891	672.75
1252.454812	674.0
1252.999677	669.5
1253.544486	674.25
1254.089238	675.25
1254.633934	674.0
1255.178573	673.5
1255.723156	673.0
1256.267682	676.25
1256.812152	678.75
1257.356565	675.25
1257.900922	679.75
1258.445223	680.5
1258.989467	679.25
1259.533654	675.25
1260.077785	693.25
1260.62186	680.75
1261.165878	686.0
1261.70984	688.5
1262.253745	692.5
1262.797594	704.25
1263.341386	704.25
1263.885123	706.25
1264.428802	702.25
1264.972425	698.25
1265.515992	691.5
1266.059503	685.0
1266.602957	684.0
1267.146354	681.0
1267.689696	681.5
1268.23298	679.75
1268.776209	676.5
1269.319381	679.0
1269.862497	675.5
1270.405556	677.5
1270.948559	680.75
1271.491506	678.0
1272.034396	676.5
1272.57723	678.5
1273.120007	675.5
1273.662728	679.25
1274.205393	679.5
1274.748002	675.0
1275.290554	678.5
1275.83305	677.75
1276.375489	677.5
1276.917872	678.25
1277.460199	681.5
1278.00247	683.75
1278.544684	688.0
1279.086842	688.25
1279.628943	696.75
1280.170989	700.25
1280.712978	714.0
1281.25491	741.0
1281.796787	787.0
1282.338607	898.5
1282.880371	1083.5
1283.422078	1296.75
1283.963729	1316.75
1284.505324	1137.75
1285.046863	922.25
1285.588345	812.75
1286.129772	749.75
1286.671142	717.25
1287.212455	707.0
1287.753713	698.5
1288.294914	690.5
1288.836059	689.25
1289.377147	687.25
1289.91818	681.0
1290.459156	679.75
1291.000076	678.0
1291.54094	682.25
1292.081747	676.25
1292.622499	682.0
1293.163194	681.0
1293.703833	677.25
1294.244415	675.75
1294.784942	682.75
1295.325412	679.75
1295.865826	677.25
1296.406184	677.25
1296.946486	676.75
1297.486731	674.25
1298.026921	675.75
1298.567054	672.5
1299.107131	677.25
1299.647152	677.0
1300.187116	676.5
1300.727025	671.5
1301.266877	674.5
1301.806673	671.0
1302.346413	675.25
1302.886097	675.25
1303.425725	672.0
1303.965297	673.25
1304.504812	675.5
1305.044272	672.5
1305.583675	675.25
1306.123022	672.25
1306.662313	671.75
1307.201548	675.75
1307.740727	674.75
1308.279849	671.0
1308.818916	673.0
1309.357926	675.0
1309.896881	674.5
1310.435779	672.0
1310.974621	671.75
1311.513407	672.75
1312.052137	671.25
1312.590811	674.5
1313.129429	671.75
1313.667991	674.0
1314.206497	671.0
1314.744946	672.0
1315.28334	671.5
1315.821678	671.75
1316.359959	671.25
1316.898184	675.5
1317.436354	670.25
1317.974467	672.5
1318.512525	671.5
1319.050526	671.0
1319.588471	670.25
1320.12636	673.75
1320.664194	669.75
1321.201971	671.25
1321.739692	671.0
1322.277357	670.5
1322.814967	673.5
1323.35252	673.75
1323.890017	676.5
1324.427458	673.0
1324.964843	674.75
1325.502173	669.75
1326.039446	672.25
1326.576663	672.5
1327.113824	672.75
1327.65093	674.75
1328.187979	672.75
1328.724972	669.0
1329.26191	670.5
1329.798791	670.75
1330.335617	670.75
1330.872386	671.5
1331.4091	674.25
1331.945758	671.5
1332.48236	672.25
1333.018905	670.75
1333.555395	669.5
1334.091829	673.25
1334.628207	671.25
1335.164529	670.75
1335.700796	674.0
1336.237006	667.0
1336.77316	672.5
1337.309259	675.5
1337.845301	672.0
1338.381288	673.75
1338.917219	672.75
1339.453094	669.25
1339.988913	672.25
1340.524676	670.5
1341.060383	670.25
1341.596034	673.0
1342.13163	673.0
1342.66717	673.5
1343.202653	672.75
1343.738081	674.0
1344.273453	673.25
1344.80877	676.25
1345.34403	673.5
1345.879235	673.25
1346.414383	672.25
1346.949476	670.5
1347.484513	671.75
1348.019494	672.75
1348.55442	671.25
1349.089289	672.5
1349.624103	674.0
1350.158861	674.25
1350.693563	673.5
1351.228209	672.25
1351.7628	672.25
1352.297334	673.5
1352.831813	675.0
1353.366236	672.5
1353.900604	673.25
1354.434915	674.5
1354.969171	670.75
1355.503371	675.25
1356.037515	671.25
1356.571604	671.75
1357.105636	670.25
1357.639613	670.5
1358.173535	669.5
1358.7074	675.0
1359.24121	670.75
1359.774964	671.75
1360.308662	671.75
1360.842304	672.5
1361.375891	675.0
1361.909422	674.5
1362.442897	677.25
1362.976317	672.5
1363.50968	671.75
1364.042989	677.75
1364.576241	675.0
1365.109438	677.0
1365.642579	679.25
1366.175664	675.5
1366.708693	675.75
1367.241667	674.5
1367.774585	671.25
1368.307448	678.5
1368.840255	677.5
1369.373006	683.5
1369.905701	699.5
1370.438341	697.0
1370.970925	684.0
1371.503454	677.75
1372.035926	678.0
1372.568344	675.75
1373.100705	677.5
1373.633011	679.5
1374.165261	677.25
1374.697456	680.0
1375.229595	676.25
1375.761678	681.25
1376.293705	679.25
1376.825677	679.25
1377.357594	677.75
1377.889455	682.0
1378.42126	684.5
1378.953009	681.5
1379.484703	682.75
1380.016342	684.25
1380.547924	687.5
1381.079452	689.75
1381.610923	691.0
1382.142339	694.25
1382.673699	696.25
1383.205004	696.5
1383.736253	710.25
1384.267447	716.25
1384.798585	729.5
1385.329668	755.75
1385.860695	800.25
1386.391666	909.0
1386.922582	1140.75
1387.453442	1690.5
1387.984247	2117.75
1388.514996	1737.0
1389.04569	1156.5
1389.576328	889.25
1390.10691	788.25
1390.637437	751.75
1391.167909	723.75
1391.698325	708.0
1392.228685	704.0
1392.75899	699.75
1393.28924	691.75
1393.819434	694.5
1394.349572	687.0
1394.879655	689.75
1395.409683	684.0
1395.939655	683.0
1396.469571	684.25
1396.999432	682.0
1397.529237	677.5
1398.058987	682.75
1398.588682	683.0
1399.118321	680.75
1399.647905	682.5
1400.177433	679.5
1400.706906	680.25
1401.236323	682.5
1401.765685	679.0
1402.294991	679.5
1402.824242	680.75
1403.353437	679.25
1403.882577	682.0
1404.411662	684.25
1404.940691	684.75
1405.469665	685.5
1405.998583	694.5
1406.527446	692.0
1407.056253	699.25
1407.585005	707.0
1408.113702	711.0
1408.642343	723.0
1409.170929	735.0
1409.69946	739.25
1410.227935	730.0
1410.756354	709.25
1411.284719	702.0
1411.813028	694.0
1412.341281	685.75
1412.869479	684.0
1413.397622	675.25
1413.92571	680.0
1414.453742	677.25
1414.981718	674.5
1415.50964	687.75
1416.037506	674.5
1416.565316	676.75
1417.093072	674.25
1417.620772	674.25
1418.148416	675.75
1418.676005	673.0
1419.203539	672.25
1419.731018	669.25
1420.258441	675.5
1420.785809	672.25
1421.313122	673.25
1421.840379	671.0
1422.367582	673.5
1422.894728	672.5
1423.42182	676.5
1423.948856	672.25
1424.475837	671.25
1425.002762	675.0
1425.529633	669.5
1426.056448	673.75
1426.583207	668.25
1427.109912	667.75
1427.636561	673.25
1428.163155	671.25
1428.689694	671.5
1429.216177	669.25
1429.742605	669.75
1430.268978	669.75
1430.795296	670.0
1431.321558	667.25
1431.847765	668.75
1432.373917	668.0
1432.900014	670.0
1433.426056	668.25
1433.952042	670.25
1434.477973	672.0
1435.003849	671.0
1435.529669	669.0
1436.055435	672.0
1436.581145	668.75
1437.1068	669.75
1437.632399	670.75
1438.157944	668.75
1438.683433	668.75
1439.208868	667.25
1439.734247	668.0
1440.25957	670.0
1440.784839	669.25
1441.310053	669.0
1441.835211	667.25
1442.360314	669.25
1442.885362	669.25
1443.410355	669.0
1443.935292	671.0
1444.460175	670.5
1444.985002	669.75
1445.509774	668.0
1446.034491	667.0
1446.559153	667.25
1447.08376	667.5
1447.608312	667.25
1448.132808	667.0
1448.65725	671.75
1449.181636	667.25
1449.705967	666.75
1450.230243	668.5
1450.754464	668.25
1451.27863	667.0
1451.802741	667.25
1452.326797	668.25
1452.850797	669.5
1453.374743	666.75
1453.898633	668.5
1454.422468	669.0
1454.946249	665.75
1455.469974	669.75
1455.993644	666.75
1456.517259	669.0
1457.040819	669.25
1457.564324	662.75
1458.087773	668.0
1458.611168	667.5
1459.134508	670.5
1459.657793	667.0
1460.181022	667.5
1460.704197	667.5
1461.227316	669.75
1461.750381	669.0
1462.27339	669.0
1462.796345	677.5
1463.319244	692.25
1463.842089	670.5
1464.364878	665.75
1464.887613	669.0
1465.410292	666.5
1465.932916	666.75
1466.455486	669.0
1466.978	665.5
1467.50046	665.75
1468.022864	666.0
1468.545214	666.0
1469.067508	667.0
1469.589748	666.5
1470.111932	670.25
1470.634062	665.75
1471.156136	668.25
1471.678156	669.75
1472.72203	665.5
1473.243885	667.75
1473.765685	665.25
1474.28743	668.75
1474.80912	665.5
1475.330755	663.5
1475.852335	667.25
1476.37386	665.0
1476.89533	670.25
1477.416745	665.75
1477.938106	666.75
1478.459411	666.0
1478.980662	667.75
1479.501857	666.75
1480.022998	668.25
1480.544084	668.0
1481.065115	668.0
1481.586091	665.75
1482.107012	667.5
1482.627878	665.75
1483.14869	665.75
1483.669446	668.0
1484.190148	668.0
1484.710794	665.25
1485.231386	664.75
1485.751923	667.0
1486.272406	665.25
1486.792833	666.25
1487.313205	664.25
1487.833523	667.75
1488.353786	663.5
1488.873994	662.0
1489.394147	667.25
1489.914245	665.75
1490.434288	665.25
1490.954277	665.75
1491.474211	666.0
1491.99409	666.25
1492.513914	667.0
1493.033683	664.0
1493.553398	666.5
1494.073057	665.5
1494.592662	666.25
1495.112212	668.75
1495.631708	667.5
1496.151148	665.25
1496.670534	666.75
1497.189865	668.75
1497.709141	666.5
1498.228362	663.5
1498.747529	666.75
1499.266641	666.25
1499.785698	673.75
1500.3047	662.5
1500.823648	667.5
1501.34254	662.25
1501.861379	666.25
1502.380162	666.25
1502.89889	667.25
1503.417564	664.25
1503.936183	667.0
1504.454748	668.5
1504.973257	665.25
1505.491712	670.0
1506.010112	666.0
1506.528458	668.25
1507.046748	667.0
1507.564984	664.25
1508.083166	667.25
1508.601292	666.75
1509.119364	664.5
1509.637381	668.25
1510.155344	665.0
1510.673252	675.5
1511.191105	666.0
1511.708903	666.0
1512.226647	663.75
1512.744336	667.5
1513.261971	665.25
1513.77955	666.0
1514.297076	664.0
1514.814546	666.25
1515.331962	670.0
1515.849323	667.0
1516.366629	667.0
1516.883881	666.5
1517.401078	665.0
1517.918221	666.5
1518.435309	666.5
1518.952342	666.25
1519.469321	664.5
1519.986245	662.5
1520.503114	664.75
1521.019929	666.0
1521.536689	669.25
1522.053395	662.75
1522.570046	665.5
1523.086642	668.0
1523.603184	664.5
1524.119671	666.5
1524.636103	665.5
1525.152481	666.25
1525.668805	671.5
1526.185073	682.5
1526.701288	674.75
1527.217447	664.75
1527.733552	665.25
1528.249603	665.25
1528.765599	664.5
1529.28154	665.25
1529.797427	667.5
1530.313259	665.25
1530.829037	663.75
1531.34476	667.0
1531.860429	666.25
1532.376043	669.0
1532.891602	665.75
1533.407107	662.25
1533.922558	666.25
1534.437954	665.5
1534.953295	667.25
1535.468582	667.75
1535.983815	663.75
1536.498993	666.0
1537.014116	663.25
1537.529185	666.5
1538.044199	668.0
1538.559159	667.0
1539.074064	665.75
1539.588915	668.0
1540.103712	667.75
1540.618454	665.75
1541.133141	668.25
1541.647774	665.0
1542.162353	666.0
1542.676877	664.5
1543.191346	667.5
1543.705761	664.25
1544.220122	664.25
1544.734428	666.25
1545.24868	665.0
1545.762877	666.75
1546.27702	664.5
1546.791109	667.75
1547.305143	665.5
1547.819122	668.5
1548.333047	665.75
1548.846918	664.25
1549.360734	667.25
1549.874496	663.75
1550.388204	668.0
1550.901857	666.25
1551.415455	663.25
1551.929	666.75
1552.442489	666.25
1552.955925	666.75
1553.469306	667.0
1553.982632	664.75
1554.495905	666.25
1555.009123	666.75
1555.522286	666.5
1556.035395	666.25
1556.54845	664.0
1557.06145	666.25
1557.574396	669.5
1558.087288	666.75
1558.600125	664.5
1559.112908	666.75
1559.625637	670.25
1560.138311	669.75
1560.650931	667.75
1561.163497	665.5
1561.676008	663.75
1562.188465	667.0
1562.700867	666.5
1563.213216	665.0
1563.725509	665.25
1564.237749	664.0
1564.749934	665.75
1565.262065	666.0
1565.774142	668.25
1566.286164	666.5
1566.798132	668.0
1567.310046	666.75
1567.821906	665.5
1568.333711	669.25
1568.845462	666.75
1569.357158	667.75
1569.868801	664.25
1570.380389	663.75
1570.891922	666.5
1571.403402	668.25
1571.914827	668.25
1572.426198	666.0
1572.937515	668.5
1573.448777	665.0
1573.959985	661.25
1574.471139	666.75
1574.982239	665.0
1575.493285	663.75
1576.004276	667.0
1576.515213	665.0
1577.026096	663.25
1577.536924	665.0
1578.047698	665.25
1578.558419	666.75
1579.069084	666.25
1579.579696	667.0
1580.090254	662.5
1580.600757	668.25
1581.111206	666.75
1581.621601	665.5
1582.131941	666.5
1582.642228	667.5
1583.15246	667.75
1583.662638	667.5
1584.172762	664.25
1584.682832	666.75
1585.192847	666.0
1585.702809	665.0
1586.212716	665.75
1586.722569	665.75
1587.232368	665.25
1587.742113	664.5
1588.251803	666.25
1588.76144	666.75
1589.271022	668.25
1589.78055	664.0
1590.290024	666.5
1590.799444	663.25
1591.30881	663.5
1591.818121	664.25
1592.327379	666.75
