1042.414189	690.0
1042.980685	687.0
1043.547124	687.5
1044.113505	691.0
1044.679828	685.75
1045.246093	687.5
1045.8123	684.25
1046.378449	683.75
1046.94454	685.75
1047.510573	684.25
1048.076548	681.75
1048.642465	682.25
1049.208325	680.0
1049.774126	678.75
1050.339869	678.5
1050.905555	679.5
1051.471183	678.75
1052.036752	682.0
1052.602264	675.75
1053.167718	683.25
1053.733114	678.75
1054.298452	678.25
1054.863733	679.75
1055.428955	680.75
1055.994119	679.25
1056.559226	678.5
1057.124275	680.75
1057.689266	673.75
1058.254199	677.75
1058.819074	679.75
1059.383891	678.25
1059.94865	676.5
1060.513352	677.0
1061.077996	677.0
1061.642582	671.0
1062.20711	679.0
1062.77158	678.75
1063.335992	675.0
1063.900347	678.5
1064.464643	678.25
1065.028882	677.0
1065.593063	677.5
1066.157187	676.25
1066.721252	678.75
1067.28526	675.5
1067.84921	675.75
1068.413102	677.5
1068.976936	675.75
1069.540713	674.75
1070.104431	684.75
1070.668092	676.25
1071.231696	676.0
1071.795241	675.0
1072.358729	677.25
1072.922159	676.0
1073.485531	675.0
1074.048845	678.0
1074.612102	674.75
1075.175301	676.5
1075.738442	675.0
1076.301525	677.5
1076.864551	673.75
1077.427519	674.25
1077.990429	676.0
1078.553281	677.0
1079.116076	676.25
1079.678813	677.5
1080.241492	673.0
1080.804114	675.5
1081.366678	676.25
1081.929184	677.75
1082.491633	675.5
1083.054024	674.0
1083.616357	676.75
1084.178632	675.0
1084.74085	674.25
1085.30301	675.5
1085.865113	673.0
1086.427158	674.0
1086.989145	675.75
1087.551074	676.75
1088.112946	673.75
1088.67476	675.0
1089.236517	673.75
1089.798216	675.5
1090.359857	673.5
1090.92144	677.5
1091.482966	675.5
1092.044435	675.5
1092.605845	673.5
1093.167199	672.5
1093.728494	675.75
1094.289732	674.25
1094.850912	675.5
1095.412035	688.0
1095.9731	673.25
1096.534107	676.75
1097.095057	680.5
1097.65595	678.0
1098.216784	676.0
1098.777561	674.5
1099.338281	674.25
1099.898943	670.25
1100.459547	677.0
1101.020094	673.5
1101.580584	676.0
1102.141015	674.5
1102.701389	675.5
1103.261706	675.0
1103.821965	675.0
1104.382167	673.5
1104.942311	673.75
1105.502397	676.75
1106.062426	679.0
1106.622398	675.0
1107.182312	677.0
1107.742168	671.25
1108.301967	673.75
1108.861708	673.0
1109.421392	676.75
1109.981019	674.75
1110.540587	677.0
1111.100099	672.75
1111.659553	678.75
1112.218949	674.5
1112.778288	675.75
1113.33757	674.0
1113.896794	677.25
1114.45596	673.5
1115.015069	677.0
1115.574121	673.0
1116.133115	677.75
1116.692052	675.75
1117.250931	675.75
1117.809753	674.0
1118.368517	675.5
1118.927224	675.5
1119.485873	675.75
1120.044465	673.75
1120.603	672.5
1121.161477	676.75
1121.719897	676.5
1122.278259	674.5
1122.836564	673.0
1123.394812	673.25
1123.953002	671.25
1124.511135	672.5
1125.06921	674.25
1125.627228	674.75
1126.185189	675.5
1126.743092	680.0
1127.300938	678.5
1127.858726	681.75
1128.416457	679.0
1128.974131	677.0
1129.531748	677.0
1130.089307	675.5
1130.646808	677.25
1131.204252	674.0
1131.761639	674.5
1132.318969	675.5
1132.876241	678.5
1133.433456	672.5
1133.990614	674.25
1134.547714	672.5
1135.104757	675.25
1135.661743	676.5
1136.218671	674.0
1136.775542	676.5
1137.332356	676.0
1137.889112	673.25
1138.445811	674.75
1139.002453	675.25
1139.559037	673.75
1140.115565	674.5
1140.672035	675.0
1141.228447	670.75
1141.784803	669.0
1142.341101	669.25
1142.897342	670.5
1143.453525	674.25
1144.009651	673.5
1144.565721	675.75
1145.121732	675.0
1145.677687	674.25
1146.233584	672.25
1146.789424	673.75
1147.345207	675.5
1147.900933	674.5
1148.456601	673.25
1149.012212	668.5
1149.567766	674.5
1150.123263	671.0
1150.678702	672.75
1151.234085	673.75
1151.78941	674.0
1152.344678	674.75
1152.899888	676.0
1153.455042	675.75
1154.010138	673.75
1154.565177	676.25
1155.120159	676.0
1155.675084	677.25
1156.229951	675.5
1156.784762	678.25
1157.339515	675.25
1157.894211	678.0
1158.44885	674.75
1159.003432	673.75
1159.557956	675.5
1160.112424	674.75
1160.666834	676.25
1161.221187	674.75
1161.775483	673.5
1162.329722	674.25
1162.883904	676.0
1163.438029	674.75
1163.992096	672.75
1164.546107	677.75
1165.10006	676.25
1165.653956	670.25
1166.207795	674.25
1166.761577	671.5
1167.315302	674.25
1167.86897	671.75
1168.422581	673.5
1168.976134	673.5
1169.529631	675.25
1170.08307	675.75
1170.636453	672.5
1171.189778	674.5
1171.743046	673.75
1172.296257	674.75
1172.849412	672.25
1173.402509	677.0
1173.955549	674.5
1174.508532	673.5
1175.061458	672.25
1175.614327	670.25
1176.167138	675.75
1176.719893	673.25
1177.272591	672.25
1177.825232	675.25
1178.377816	673.0
1178.930342	670.0
1179.482812	674.5
1180.035225	675.25
1180.587581	674.0
1181.139879	673.75
1181.692121	673.25
1182.244306	675.0
1182.796434	676.25
1183.348504	673.25
1183.900518	674.25
1184.452475	676.0
1185.004375	674.75
1185.556218	671.0
1186.108004	673.5
1186.659733	675.0
1187.211405	676.5
1187.76302	671.5
1188.314578	675.0
1188.866079	674.25
1189.417523	674.5
1189.96891	671.25
1190.520241	672.75
1191.071514	677.0
1191.622731	678.25
1192.17389	674.25
1192.724993	673.0
1193.276039	695.25
1193.827027	675.5
1194.377959	675.75
1194.928834	672.75
1195.479653	678.25
1196.030414	673.75
1196.581118	674.25
1197.131766	673.75
1197.682356	675.75
1198.23289	673.5
1198.783367	674.25
1199.333786	676.0
1199.88415	671.25
1200.434456	675.0
1200.984705	671.0
1201.534898	671.75
1202.085033	673.75
1202.635112	674.75
1203.185134	672.25
1203.735099	672.0
1204.285007	670.0
1204.834859	675.25
1205.384653	672.5
1205.934391	671.0
1206.484072	674.75
1207.033696	672.0
1207.583263	674.25
1208.132774	671.0
1208.682228	674.75
1209.231624	676.25
1209.780965	672.75
1210.330248	673.0
1210.879474	676.0
1211.428644	676.25
1211.977757	670.5
1212.526813	676.25
1213.075813	676.75
1213.624755	672.5
1214.173641	676.25
1214.72247	674.25
1215.271242	674.75
1215.819958	668.5
1216.368617	672.75
1216.917219	675.25
1217.465764	676.0
1218.014253	674.0
1218.562685	671.0
1219.11106	676.75
1219.659378	669.0
1220.20764	676.25
1220.755845	670.5
1221.303993	672.25
1221.852085	673.0
1222.400119	673.5
1222.948097	671.25
1223.496019	676.75
1224.043883	674.0
1224.591691	672.25
1225.139443	676.5
1225.687137	678.0
1226.234775	676.0
1226.782357	673.75
1227.329881	674.75
1227.877349	674.0
1228.42476	673.0
1228.972115	677.5
1229.519413	673.0
1230.066654	675.75
1230.613839	674.75
1231.160967	675.25
1231.708038	675.0
1232.255053	673.0
1232.802011	676.75
1233.348912	670.5
1233.895757	675.0
1234.442545	676.75
1234.989277	673.5
1235.535951	673.25
1236.08257	672.25
1236.629131	676.0
1237.175636	678.5
1237.722085	674.5
1238.268477	672.5
1238.814812	673.5
1239.361091	675.5
1239.907313	674.5
1240.453478	671.5
1240.999587	673.0
1241.54564	675.5
1242.091636	674.25
1242.637575	673.5
1243.183457	674.5
1243.729284	672.0
1244.275053	674.25
1244.820766	675.25
1245.366423	673.5
1245.912022	672.75
1246.457566	676.5
1247.003053	673.75
1247.548483	675.5
1248.093857	672.25
1248.639174	677.25
1249.184435	673.0
1249.729639	675.5
1250.274787	677.75
1250.819878	674.25
1251.364912	676.25
1251.909891	673.75
1252.454812	675.75
1252.999677	675.75
1253.544486	672.0
1254.089238	674.0
1254.633934	673.5
1255.178573	673.5
1255.723156	673.75
1256.267682	674.5
1256.812152	675.0
1257.356565	673.5
1257.900922	674.75
1258.445223	671.5
1258.989467	676.25
1259.533654	674.0
1260.62186	675.25
1261.165878	673.25
1261.70984	676.0
1262.253745	671.0
1262.797594	672.0
1263.341386	673.75
1263.885123	680.75
1264.428802	676.75
1264.972425	687.0
1265.515992	687.75
1266.059503	681.75
1266.602957	678.75
1267.146354	679.0
1267.689696	674.75
1268.23298	673.75
1268.776209	674.0
1269.319381	676.25
1269.862497	672.5
1270.405556	674.25
1270.948559	672.75
1271.491506	674.5
1272.034396	673.25
1272.57723	674.75
1273.120007	674.25
1273.662728	674.25
1274.205393	674.75
1274.748002	672.0
1275.290554	673.75
1275.83305	675.0
1276.375489	675.5
1276.917872	672.0
1277.460199	674.5
1278.00247	674.5
1278.544684	675.75
1279.086842	673.0
1279.628943	675.25
1280.170989	673.5
1280.712978	675.75
1281.25491	673.5
1281.796787	674.75
1282.338607	675.5
1282.880371	677.5
1283.422078	679.0
1283.963729	687.0
1284.505324	701.0
1285.046863	748.75
1285.588345	849.75
1286.129772	834.5
1286.671142	735.75
1287.212455	692.25
1287.753713	680.0
1288.294914	677.5
1288.836059	676.75
1289.377147	675.25
1289.91818	674.5
1290.459156	673.25
1291.000076	675.25
1291.54094	674.75
1292.081747	674.25
1292.622499	677.0
1293.163194	672.75
1293.703833	674.25
1294.244415	672.5
1294.784942	674.0
1295.325412	673.25
1295.865826	674.0
1296.406184	673.75
1296.946486	672.25
1297.486731	673.25
1298.026921	673.5
1298.567054	675.25
1299.107131	676.0
1299.647152	679.0
1300.187116	671.0
1300.727025	674.25
1301.266877	673.75
1301.806673	672.75
1302.346413	675.25
1302.886097	676.0
1303.425725	674.25
1303.965297	674.75
1304.504812	674.5
1305.044272	674.75
1305.583675	675.75
1306.123022	674.5
1306.662313	673.5
1307.201548	672.5
1307.740727	672.0
1308.279849	674.0
1308.818916	673.0
1309.357926	672.25
1309.896881	672.5
1310.435779	669.0
1310.974621	670.75
1311.513407	672.5
1312.052137	676.5
1312.590811	672.5
1313.129429	676.25
1313.667991	675.5
1314.206497	670.75
1314.744946	675.75
1315.28334	672.0
1315.821678	671.25
1316.359959	670.75
1316.898184	671.25
1317.436354	673.75
1317.974467	672.5
1318.512525	675.75
1319.050526	675.75
1319.588471	674.5
1320.12636	674.75
1320.664194	671.5
1321.201971	674.75
1321.739692	671.5
1322.277357	673.0
1322.814967	672.0
1323.35252	672.0
1323.890017	679.5
1324.427458	669.75
1324.964843	671.0
1325.502173	674.75
1326.039446	672.25
1326.576663	671.5
1327.113824	674.25
1327.65093	671.5
1328.187979	672.0
1328.724972	672.0
1329.26191	669.5
1329.798791	673.75
1330.335617	674.25
1330.872386	674.5
1331.4091	672.75
1331.945758	673.5
1332.48236	670.5
1333.018905	671.0
1333.555395	670.0
1334.091829	669.75
1334.628207	672.5
1335.164529	672.25
1335.700796	672.5
1336.237006	672.5
1336.77316	677.5
1337.309259	672.5
1337.845301	675.75
1338.381288	673.75
1338.917219	670.25
1339.453094	674.0
1339.988913	673.25
1340.524676	673.0
1341.060383	672.5
1341.596034	673.5
1342.13163	673.25
1342.66717	674.25
1343.202653	675.0
1343.738081	678.25
1344.273453	674.25
1344.80877	674.25
1345.34403	672.0
1345.879235	670.0
1346.414383	675.75
1346.949476	671.75
1347.484513	672.25
1348.019494	673.75
1348.55442	670.25
1349.089289	669.5
1349.624103	675.25
1350.158861	674.5
1350.693563	672.25
1351.228209	672.75
1351.7628	669.5
1352.297334	672.25
1352.831813	668.75
1353.366236	669.25
1353.900604	676.0
1354.434915	673.0
1354.969171	674.25
1355.503371	671.75
1356.037515	670.75
1356.571604	671.75
1357.105636	676.25
1357.639613	673.5
1358.173535	673.75
1358.7074	673.5
1359.24121	674.75
1359.774964	675.5
1360.308662	673.0
1360.842304	671.0
1361.375891	673.0
1361.909422	675.5
1362.442897	673.25
1362.976317	671.75
1363.50968	671.25
1364.042989	672.25
1364.576241	672.0
1365.109438	672.25
1365.642579	672.5
1366.175664	675.0
1366.708693	674.0
1367.241667	676.0
1367.774585	670.0
1368.307448	674.0
1368.840255	672.75
1369.373006	673.0
1369.905701	674.0
1370.438341	675.5
1370.970925	677.75
1371.503454	677.0
1372.035926	674.0
1372.568344	672.5
1373.100705	673.5
1373.633011	675.25
1374.165261	669.75
1374.697456	670.0
1375.229595	671.75
1375.761678	676.25
1376.293705	674.5
1376.825677	674.5
1377.357594	671.75
1377.889455	673.5
1378.42126	674.5
1378.953009	674.0
1379.484703	672.75
1380.016342	673.0
1380.547924	673.75
1381.079452	676.0
1381.610923	672.75
1382.142339	675.75
1382.673699	670.0
1383.205004	674.25
1383.736253	676.25
1384.267447	674.25
1384.798585	676.25
1385.329668	677.0
1385.860695	679.25
1386.391666	678.25
1386.922582	685.0
1387.453442	689.5
1387.984247	711.5
1388.514996	812.25
1389.04569	1006.75
1389.576328	911.75
1390.10691	727.5
1390.637437	693.25
1391.167909	683.0
1391.698325	676.0
1392.228685	674.5
1392.75899	674.25
1393.28924	672.5
1393.819434	675.75
1394.349572	673.75
1394.879655	673.0
1395.409683	672.0
1395.939655	674.5
1396.469571	673.25
1396.999432	675.75
1397.529237	670.0
1398.058987	675.5
1398.588682	674.25
1399.118321	675.75
1399.647905	673.5
1400.177433	669.75
1400.706906	673.0
1401.236323	671.5
1401.765685	672.0
1402.294991	670.5
1402.824242	672.75
1403.353437	672.5
1403.882577	673.75
1404.411662	671.0
1404.940691	672.5
1405.469665	673.75
1405.998583	676.25
1406.527446	673.0
1407.056253	670.75
1407.585005	673.75
1408.113702	673.75
1408.642343	675.25
1409.170929	676.75
1409.69946	682.25
1410.227935	692.5
1410.756354	699.0
1411.284719	682.75
1411.813028	679.25
1412.341281	674.0
1412.869479	675.25
1413.397622	672.5
1413.92571	677.25
1414.453742	673.25
1414.981718	672.25
1415.50964	687.75
1416.037506	674.25
1416.565316	670.5
1417.093072	672.75
1417.620772	672.0
1418.148416	671.0
1418.676005	675.25
1419.203539	670.0
1419.731018	670.0
1420.258441	673.25
1420.785809	674.75
1421.313122	674.25
1421.840379	672.0
1422.367582	672.0
1422.894728	671.25
1423.42182	673.25
1423.948856	672.5
1424.475837	669.75
1425.002762	674.5
1425.529633	673.75
1426.056448	676.5
1426.583207	675.0
1427.109912	674.75
1427.636561	671.5
1428.163155	671.25
1428.689694	670.75
1429.216177	672.0
1429.742605	674.5
1430.268978	673.25
1430.795296	673.75
1431.321558	671.75
1431.847765	671.25
1432.373917	672.25
1432.900014	669.25
1433.426056	674.75
1433.952042	672.0
1434.477973	671.0
1435.003849	674.25
1435.529669	670.25
1436.055435	674.5
1436.581145	673.0
1437.1068	670.25
1437.632399	670.75
1438.157944	670.5
1438.683433	674.0
1439.208868	674.0
1439.734247	674.25
1440.25957	671.5
1440.784839	671.75
1441.310053	671.0
1441.835211	675.0
1442.360314	672.0
1442.885362	670.25
1443.410355	672.25
1443.935292	671.25
1444.460175	673.0
1444.985002	672.0
1445.509774	674.5
1446.034491	674.5
1446.559153	673.75
1447.08376	669.0
1447.608312	672.5
1448.132808	671.0
1448.65725	673.5
1449.181636	673.5
1449.705967	670.25
1450.230243	669.5
1450.754464	671.75
1451.27863	671.75
1451.802741	670.5
1452.326797	673.5
1452.850797	673.25
1453.374743	671.75
1453.898633	674.75
1454.422468	672.75
1454.946249	672.5
1455.469974	672.0
1455.993644	671.75
1456.517259	674.25
1457.040819	669.75
1457.564324	670.25
1458.087773	674.75
1458.611168	672.75
1459.134508	670.0
1459.657793	672.75
1460.181022	672.5
1460.704197	672.25
1461.227316	674.5
1461.750381	673.25
1462.27339	672.5
1462.796345	679.0
1463.319244	691.75
1463.842089	677.0
1464.364878	673.0
1464.887613	670.0
1465.410292	672.0
1465.932916	671.75
1466.455486	671.25
1466.978	671.25
1467.50046	670.25
1468.022864	674.25
1468.545214	672.75
1469.067508	670.75
1469.589748	673.0
1470.111932	673.75
1470.634062	674.75
1471.156136	672.0
1471.678156	673.0
1472.20012	674.25
1472.72203	674.0
1473.243885	673.0
1473.765685	675.25
1474.28743	670.75
1474.80912	672.0
1475.330755	669.75
1475.852335	670.5
1476.37386	673.0
1476.89533	672.25
1477.416745	669.5
1477.938106	671.25
1478.459411	670.25
1478.980662	671.5
1479.501857	668.25
1480.022998	670.5
1480.544084	670.5
1481.065115	671.25
1481.586091	669.5
1482.107012	671.25
1482.627878	674.0
1483.14869	671.5
1483.669446	673.25
1484.190148	671.25
1484.710794	672.0
1485.231386	671.0
1485.751923	668.75
1486.272406	667.75
1486.792833	672.75
1487.313205	667.25
1487.833523	671.75
1488.353786	669.25
1488.873994	671.5
1489.394147	672.75
1489.914245	671.25
1490.434288	671.75
1490.954277	667.5
1491.474211	674.5
1491.99409	671.75
1492.513914	670.0
1493.033683	668.75
1493.553398	670.5
1494.073057	673.0
1494.592662	668.75
1495.112212	672.5
1495.631708	673.0
1496.151148	672.0
1496.670534	671.0
1497.189865	672.0
1497.709141	669.0
1498.228362	671.25
1498.747529	671.75
1499.266641	674.75
1499.785698	677.5
1500.3047	674.5
1500.823648	670.0
1501.34254	672.5
1501.861379	672.0
1502.380162	671.5
1502.89889	669.75
1503.417564	671.0
1503.936183	673.75
1504.454748	672.0
1504.973257	672.25
1505.491712	669.5
1506.010112	670.5
1506.528458	669.25
1507.046748	671.0
1507.564984	672.5
1508.083166	670.75
1508.601292	667.5
1509.119364	674.0
1509.637381	674.75
1510.155344	670.5
1510.673252	679.5
1511.191105	672.25
1511.708903	674.0
1512.226647	669.5
1512.744336	672.5
1513.261971	673.0
1513.77955	670.75
1514.297076	671.25
1514.814546	673.5
1515.331962	672.75
1515.849323	671.0
1516.366629	675.0
1516.883881	667.0
1517.401078	674.0
1517.918221	667.5
1518.435309	673.0
1518.952342	671.75
1519.469321	670.25
1519.986245	673.5
1520.503114	672.0
1521.019929	676.75
1521.536689	672.5
1522.053395	671.5
1522.570046	675.25
1523.086642	672.25
1523.603184	671.25
1524.119671	672.25
1524.636103	670.25
1525.152481	672.5
1525.668805	676.0
1526.185073	680.5
1526.701288	676.5
1527.217447	671.25
1527.733552	670.0
1528.249603	672.75
1528.765599	670.5
1529.28154	672.5
1529.797427	673.75
1530.313259	671.75
1530.829037	669.75
1531.34476	672.25
1531.860429	670.25
1532.376043	673.0
1532.891602	671.25
1533.407107	669.25
1533.922558	672.25
1534.437954	669.5
1534.953295	674.25
1535.468582	671.75
1535.983815	668.0
1536.498993	670.0
1537.014116	672.25
1537.529185	670.5
1538.044199	675.0
1538.559159	672.25
1539.074064	669.75
1539.588915	671.5
1540.103712	669.75
1540.618454	671.25
1541.133141	673.25
1541.647774	673.0
1542.162353	673.75
1542.676877	675.0
1543.191346	671.75
1543.705761	669.5
1544.220122	670.5
1544.734428	671.0
1545.24868	668.5
1545.762877	670.25
1546.27702	668.5
1546.791109	670.25
1547.305143	672.25
1547.819122	672.5
1548.333047	673.0
1548.846918	671.75
1549.360734	673.25
1549.874496	671.0
1550.388204	671.0
1550.901857	672.0
1551.415455	675.75
1551.929	672.25
1552.442489	671.5
1552.955925	672.25
1553.469306	669.5
1553.982632	670.0
1554.495905	672.25
1555.009123	671.75
1555.522286	673.25
1556.035395	669.0
1556.54845	670.5
1557.06145	669.0
1557.574396	671.25
1558.087288	671.0
1558.600125	670.0
1559.112908	671.25
1559.625637	670.0
1560.138311	669.0
1560.650931	670.25
1561.163497	672.25
1561.676008	669.5
1562.188465	675.25
1562.700867	673.75
1563.213216	669.25
1563.725509	671.25
1564.237749	669.5
1564.749934	668.25
1565.262065	671.0
1565.774142	674.0
1566.286164	673.5
1566.798132	673.0
1567.310046	671.25
1567.821906	670.25
1568.333711	673.25
1568.845462	672.75
1569.357158	670.75
1569.868801	677.25
1570.380389	671.25
1570.891922	670.0
1571.403402	674.75
1571.914827	670.5
1572.426198	673.25
1572.937515	669.75
1573.448777	670.75
1573.959985	671.0
1574.471139	672.0
1574.982239	670.0
1575.493285	673.75
1576.004276	670.5
1576.515213	668.25
1577.026096	672.25
1577.536924	674.0
1578.047698	670.0
1578.558419	672.25
1579.069084	672.75
1579.579696	672.5
1580.090254	671.25
1580.600757	670.5
1581.111206	673.5
1581.621601	673.25
1582.131941	668.5
1582.642228	671.5
1583.15246	673.5
1583.662638	673.0
1584.172762	674.25
1584.682832	673.5
1585.192847	672.25
1585.702809	670.25
1586.212716	669.25
1586.722569	672.75
1587.232368	672.0
1587.742113	670.25
1588.251803	673.5
1588.76144	674.0
1589.271022	669.75
1589.78055	672.5
1590.290024	671.0
1590.799444	671.25
1591.30881	669.75
1591.818121	669.5
1592.327379	668.75
