1042.414189	684.0
1042.980685	679.75
1043.547124	684.75
1044.113505	677.75
1044.679828	682.75
1045.246093	680.75
1045.8123	676.0
1046.378449	677.0
1046.94454	675.25
1047.510573	671.75
1048.076548	677.0
1048.642465	673.25
1049.208325	676.25
1049.774126	672.75
1050.339869	675.75
1050.905555	672.25
1051.471183	675.0
1052.036752	671.25
1052.602264	671.75
1053.167718	669.25
1053.733114	671.25
1054.298452	670.75
1054.863733	671.75
1055.428955	671.25
1055.994119	670.5
1056.559226	670.25
1057.124275	669.75
1057.689266	668.5
1058.254199	669.5
1058.819074	667.25
1059.383891	670.5
1059.94865	668.25
1060.513352	669.5
1061.077996	668.75
1061.642582	666.5
1062.20711	667.5
1062.77158	670.25
1063.335992	667.0
1063.900347	670.25
1064.464643	667.75
1065.028882	669.25
1065.593063	669.25
1066.157187	667.25
1066.721252	668.5
1067.28526	666.5
1067.84921	667.0
1068.413102	666.0
1068.976936	666.5
1069.540713	670.75
1070.104431	674.25
1070.668092	669.0
1071.231696	665.5
1071.795241	666.25
1072.358729	669.25
1072.922159	666.0
1073.485531	666.5
1074.048845	666.5
1074.612102	666.0
1075.175301	665.75
1075.738442	668.0
1076.301525	665.75
1076.864551	666.5
1077.427519	667.5
1077.990429	666.0
1078.553281	667.5
1079.116076	666.75
1079.678813	667.5
1080.241492	668.75
1080.804114	665.75
1081.366678	669.5
1081.929184	668.0
1082.491633	667.5
1083.054024	669.5
1083.616357	671.5
1084.178632	668.0
1084.74085	666.75
1085.30301	669.5
1085.865113	671.5
1086.427158	666.25
1086.989145	669.25
1087.551074	670.25
1088.112946	666.75
1088.67476	665.25
1089.236517	671.75
1089.798216	665.75
1090.359857	667.5
1090.92144	667.75
1091.482966	665.0
1092.044435	666.0
1092.605845	668.75
1093.167199	664.75
1093.728494	668.0
1094.289732	665.25
1094.850912	664.75
1095.412035	680.0
1095.9731	667.5
1096.534107	665.5
1097.095057	677.0
1097.65595	663.5
1098.216784	667.75
1098.777561	666.75
1099.338281	665.25
1099.898943	667.75
1100.459547	663.0
1101.020094	664.5
1101.580584	666.25
1102.141015	665.5
1102.701389	666.25
1103.261706	668.0
1103.821965	665.0
1104.382167	665.25
1104.942311	666.5
1105.502397	664.5
1106.062426	668.0
1106.622398	667.25
1107.182312	666.25
1107.742168	668.75
1108.301967	666.75
1108.861708	664.75
1109.421392	666.0
1109.981019	667.0
1110.540587	664.75
1111.100099	667.0
1111.659553	665.0
1112.218949	666.0
1112.778288	664.25
1113.33757	665.75
1113.896794	666.75
1114.45596	670.0
1115.015069	664.0
1115.574121	666.75
1116.133115	669.5
1116.692052	666.25
1117.250931	667.0
1117.809753	664.75
1118.368517	667.5
1118.927224	665.0
1119.485873	666.25
1120.044465	668.75
1120.603	664.5
1121.161477	666.25
1121.719897	662.75
1122.278259	666.0
1122.836564	664.25
1123.394812	666.0
1123.953002	665.75
1124.511135	665.75
1125.06921	664.0
1125.627228	666.0
1126.185189	666.0
1126.743092	666.0
1127.300938	663.5
1127.858726	663.75
1128.416457	669.5
1128.974131	666.0
1129.531748	666.75
1130.089307	665.75
1130.646808	665.75
1131.204252	667.5
1131.761639	664.75
1132.318969	667.25
1132.876241	668.0
1133.433456	664.25
1133.990614	665.5
1134.547714	666.0
1135.104757	666.0
1135.661743	667.0
1136.218671	669.25
1136.775542	665.5
1137.332356	666.0
1137.889112	665.75
1138.445811	666.5
1139.002453	666.75
1139.559037	664.5
1140.115565	664.5
1140.672035	667.5
1141.228447	666.75
1141.784803	666.75
1142.341101	666.5
1142.897342	669.0
1143.453525	669.75
1144.009651	669.25
1144.565721	665.5
1145.121732	668.5
1145.677687	666.75
1146.233584	668.5
1146.789424	667.0
1147.345207	671.5
1147.900933	672.25
1148.456601	668.5
1149.012212	671.25
1149.567766	669.25
1150.123263	675.25
1150.678702	702.25
1151.234085	719.5
1151.78941	685.0
1152.344678	673.0
1152.899888	667.25
1153.455042	668.75
1154.010138	667.75
1154.565177	668.25
1155.120159	666.5
1155.675084	667.5
1156.229951	665.75
1156.784762	666.75
1157.339515	667.25
1157.894211	664.0
1158.44885	667.75
1159.003432	667.25
1159.557956	666.75
1160.112424	665.25
1160.666834	666.25
1161.221187	666.25
1161.775483	666.5
1162.329722	667.0
1162.883904	664.5
1163.438029	663.25
1163.992096	666.5
1164.546107	665.75
1165.10006	669.0
1165.653956	665.25
1166.207795	664.75
1166.761577	663.75
1167.315302	669.25
1167.86897	664.5
1168.422581	666.5
1168.976134	663.5
1169.529631	666.0
1170.08307	670.25
1170.636453	667.0
1171.189778	664.5
1171.743046	662.75
1172.296257	665.25
1172.849412	664.75
1173.402509	667.0
1173.955549	665.0
1174.508532	668.75
1175.061458	668.5
1175.614327	665.5
1176.167138	667.5
1176.719893	666.0
1177.272591	667.25
1177.825232	665.0
1178.377816	669.25
1178.930342	662.25
1179.482812	662.75
1180.035225	666.0
1180.587581	662.25
1181.139879	662.5
1181.692121	666.0
1182.244306	665.25
1182.796434	665.5
1183.348504	666.25
1183.900518	667.0
1184.452475	668.0
1185.004375	667.75
1185.556218	662.5
1186.108004	664.25
1186.659733	665.0
1187.211405	665.5
1187.76302	664.75
1188.314578	666.75
1188.866079	664.25
1189.417523	666.0
1189.96891	663.0
1190.520241	662.5
1191.071514	664.25
1191.622731	665.5
1192.17389	666.25
1192.724993	666.75
1193.276039	685.75
1193.827027	663.5
1194.377959	665.25
1194.928834	666.25
1195.479653	666.5
1196.030414	666.5
1196.581118	667.0
1197.131766	663.0
1197.682356	666.5
1198.23289	666.0
1198.783367	668.5
1199.333786	666.25
1199.88415	663.0
1200.434456	668.0
1200.984705	664.25
1201.534898	665.25
1202.085033	666.75
1202.635112	663.0
1203.185134	663.5
1203.735099	666.25
1204.285007	665.0
1204.834859	666.5
1205.384653	662.25
1205.934391	664.5
1206.484072	666.75
1207.033696	667.0
1207.583263	666.25
1208.132774	664.25
1208.682228	663.75
1209.231624	662.0
1209.780965	665.5
1210.330248	664.75
1210.879474	666.25
1211.428644	665.25
1211.977757	666.5
1212.526813	664.0
1213.075813	667.5
1213.624755	664.75
1214.173641	667.25
1214.72247	666.25
1215.271242	665.0
1215.819958	667.25
1216.368617	667.25
1216.917219	664.75
1217.465764	665.75
1218.014253	666.25
1218.562685	664.0
1219.11106	666.25
1219.659378	665.75
1220.20764	667.5
1220.755845	665.0
1221.303993	665.0
1221.852085	665.5
1222.400119	666.25
1222.948097	664.75
1223.496019	666.25
1224.043883	665.75
1224.591691	666.0
1225.139443	665.25
1225.687137	664.75
1226.234775	662.25
1226.782357	665.0
1227.329881	666.5
1227.877349	668.0
1228.42476	663.5
1228.972115	664.5
1229.519413	664.75
1230.066654	664.75
1230.613839	664.75
1231.160967	664.25
1231.708038	663.75
1232.255053	667.25
1232.802011	665.75
1233.348912	662.5
1233.895757	667.0
1234.442545	666.0
1234.989277	666.5
1235.535951	664.25
1236.08257	663.5
1236.629131	663.5
1237.175636	665.75
1237.722085	668.0
1238.268477	664.25
1238.814812	666.75
1239.361091	664.5
1239.907313	665.75
1240.453478	667.0
1240.999587	666.5
1241.54564	666.0
1242.091636	664.0
1242.637575	665.5
1243.183457	664.25
1243.729284	667.25
1244.275053	665.0
1244.820766	667.0
1245.366423	665.5
1245.912022	667.0
1246.457566	664.5
1247.003053	668.25
1247.548483	663.5
1248.093857	666.5
1248.639174	667.5
1249.184435	667.75
1249.729639	667.25
1250.274787	667.25
1250.819878	665.25
1251.364912	666.75
1251.909891	666.5
1252.454812	668.0
1252.999677	666.75
1253.544486	666.5
1254.089238	663.5
1254.633934	667.5
1255.178573	664.25
1255.723156	664.0
1256.267682	666.75
1256.812152	666.25
1257.356565	668.0
1257.900922	662.5
1258.445223	666.0
1258.989467	665.25
1259.533654	666.25
1260.62186	666.75
1261.165878	667.0
1261.70984	664.0
1262.253745	666.75
1262.797594	668.5
1263.341386	667.75
1263.885123	670.5
1264.428802	674.25
1264.972425	684.75
1265.515992	686.25
1266.059503	683.25
1266.602957	678.25
1267.146354	669.5
1267.689696	667.25
1268.23298	671.25
1268.776209	667.0
1269.319381	668.5
1269.862497	665.5
1270.405556	665.75
1270.948559	668.0
1271.491506	669.5
1272.034396	668.25
1272.57723	668.5
1273.120007	665.5
1273.662728	667.0
1274.205393	665.5
1274.748002	667.25
1275.290554	667.5
1275.83305	668.0
1276.375489	665.25
1276.917872	667.0
1277.460199	671.75
1278.00247	666.0
1278.544684	667.5
1279.086842	668.0
1279.628943	667.25
1280.170989	668.0
1280.712978	671.75
1281.25491	670.0
1281.796787	670.0
1282.338607	668.5
1282.880371	678.5
1283.422078	680.75
1283.963729	691.25
1284.505324	731.0
1285.046863	824.25
1285.588345	932.5
1286.129772	870.25
1286.671142	737.0
1287.212455	689.0
1287.753713	677.75
1288.294914	672.5
1288.836059	672.0
1289.377147	668.0
1289.91818	668.75
1290.459156	666.25
1291.000076	669.5
1291.54094	669.25
1292.081747	670.25
1292.622499	670.0
1293.163194	665.75
1293.703833	665.0
1294.244415	668.0
1294.784942	663.5
1295.325412	665.5
1295.865826	667.5
1296.406184	665.75
1296.946486	665.75
1297.486731	663.5
1298.026921	667.25
1298.567054	664.75
1299.107131	666.5
1299.647152	666.5
1300.187116	666.0
1300.727025	662.25
1301.266877	665.0
1301.806673	666.0
1302.346413	663.25
1302.886097	666.25
1303.425725	668.5
1303.965297	667.75
1304.504812	664.0
1305.044272	663.75
1305.583675	667.75
1306.123022	666.0
1306.662313	662.75
1307.201548	666.0
1307.740727	669.0
1308.279849	667.5
1308.818916	662.0
1309.357926	665.25
1309.896881	665.5
1310.435779	667.75
1310.974621	665.25
1311.513407	665.5
1312.052137	663.75
1312.590811	666.25
1313.129429	670.5
1313.667991	668.25
1314.206497	664.75
1314.744946	664.25
1315.28334	667.5
1315.821678	666.0
1316.359959	666.25
1316.898184	664.5
1317.436354	666.25
1317.974467	664.25
1318.512525	664.25
1319.050526	667.0
1319.588471	665.0
1320.12636	668.0
1320.664194	662.25
1321.201971	662.75
1321.739692	664.25
1322.277357	666.5
1322.814967	665.5
1323.35252	667.0
1323.890017	669.5
1324.427458	667.75
1324.964843	665.0
1325.502173	666.0
1326.039446	667.0
1326.576663	664.0
1327.113824	664.75
1327.65093	667.25
1328.187979	666.5
1328.724972	662.25
1329.26191	665.25
1329.798791	663.5
1330.335617	664.75
1330.872386	666.25
1331.4091	668.75
1331.945758	667.0
1332.48236	665.25
1333.018905	663.25
1333.555395	664.75
1334.091829	663.0
1334.628207	667.5
1335.164529	664.5
1335.700796	664.25
1336.237006	665.0
1336.77316	663.25
1337.309259	666.5
1337.845301	666.0
1338.381288	667.25
1338.917219	665.75
1339.453094	667.0
1339.988913	666.0
1340.524676	665.25
1341.060383	664.5
1341.596034	664.75
1342.13163	662.5
1342.66717	664.25
1343.202653	663.0
1343.738081	663.75
1344.273453	669.0
1344.80877	662.5
1345.34403	666.25
1345.879235	662.25
1346.414383	667.5
1346.949476	663.0
1347.484513	665.25
1348.019494	667.25
1348.55442	668.5
1349.089289	663.5
1349.624103	664.75
1350.158861	666.25
1350.693563	667.25
1351.228209	663.75
1351.7628	665.5
1352.297334	666.75
1352.831813	665.25
1353.366236	667.0
1353.900604	664.25
1354.434915	666.25
1354.969171	667.5
1355.503371	667.5
1356.037515	664.75
1356.571604	666.25
1357.105636	666.75
1357.639613	665.25
1358.173535	667.75
1358.7074	663.5
1359.24121	666.0
1359.774964	667.25
1360.308662	667.25
1360.842304	664.75
1361.375891	666.0
1361.909422	668.0
1362.442897	666.0
1362.976317	667.75
1363.50968	666.5
1364.042989	663.75
1364.576241	667.0
1365.109438	668.0
1365.642579	666.5
1366.175664	665.0
1366.708693	663.5
1367.241667	667.5
1367.774585	668.5
1368.307448	667.25
1368.840255	663.5
1369.373006	666.25
1369.905701	665.5
1370.438341	670.5
1370.970925	674.25
1371.503454	668.0
1372.035926	665.75
1372.568344	664.0
1373.100705	668.25
1373.633011	666.25
1374.165261	663.0
1374.697456	667.5
1375.229595	665.5
1375.761678	667.5
1376.293705	667.25
1376.825677	667.5
1377.357594	665.0
1377.889455	665.75
1378.42126	666.0
1378.953009	666.0
1379.484703	668.25
1380.016342	667.25
1380.547924	668.0
1381.079452	668.25
1381.610923	666.75
1382.142339	668.25
1382.673699	666.25
1383.205004	665.5
1383.736253	670.25
1384.267447	671.0
1384.798585	670.0
1385.329668	669.5
1385.860695	670.5
1386.391666	679.5
1386.922582	687.0
1387.453442	691.75
1387.984247	752.5
1388.514996	934.0
1389.04569	1218.0
1389.576328	962.0
1390.10691	744.0
1390.637437	691.5
1391.167909	679.75
1391.698325	677.25
1392.228685	673.0
1392.75899	670.5
1393.28924	673.75
1393.819434	669.0
1394.349572	670.75
1394.879655	670.25
1395.409683	667.0
1395.939655	667.0
1396.469571	665.5
1396.999432	669.5
1397.529237	666.25
1398.058987	667.5
1398.588682	668.5
1399.118321	666.75
1399.647905	666.0
1400.177433	666.0
1400.706906	665.5
1401.236323	668.25
1401.765685	666.25
1402.294991	667.25
1402.824242	666.75
1403.353437	664.25
1403.882577	663.25
1404.411662	667.25
1404.940691	667.0
1405.469665	666.75
1405.998583	668.25
1406.527446	665.75
1407.056253	668.5
1407.585005	669.25
1408.113702	672.5
1408.642343	670.75
1409.170929	672.75
1409.69946	687.0
1410.227935	702.75
1410.756354	703.25
1411.284719	683.0
1411.813028	674.25
1412.341281	670.5
1412.869479	667.0
1413.397622	667.25
1413.92571	666.25
1414.453742	670.5
1414.981718	667.5
1415.50964	678.5
1416.037506	660.75
1416.565316	665.5
1417.093072	666.0
1417.620772	664.25
1418.148416	663.0
1418.676005	664.75
1419.203539	664.25
1419.731018	662.75
1420.258441	665.5
1420.785809	663.5
1421.313122	666.0
1421.840379	665.75
1422.367582	665.5
1422.894728	667.75
1423.42182	665.5
1423.948856	662.75
1424.475837	664.25
1425.002762	665.5
1425.529633	668.0
1426.056448	663.5
1426.583207	665.25
1427.109912	666.25
1427.636561	667.25
1428.163155	667.0
1428.689694	664.25
1429.216177	666.5
1429.742605	664.25
1430.268978	663.0
1430.795296	663.0
1431.321558	665.0
1431.847765	664.0
1432.373917	664.75
1432.900014	664.5
1433.426056	665.25
1433.952042	663.75
1434.477973	664.5
1435.003849	666.75
1435.529669	664.5
1436.055435	665.25
1436.581145	662.25
1437.1068	664.75
1437.632399	667.25
1438.157944	663.25
1438.683433	663.25
1439.208868	664.0
1439.734247	663.75
1440.25957	665.0
1440.784839	665.0
1441.310053	662.5
1441.835211	661.0
1442.360314	662.25
1442.885362	666.0
1443.410355	663.0
1443.935292	665.0
1444.460175	664.5
1444.985002	665.25
1445.509774	661.75
1446.034491	664.75
1446.559153	663.75
1447.08376	663.25
1447.608312	662.75
1448.132808	663.75
1448.65725	663.5
1449.181636	664.0
1449.705967	663.0
1450.230243	664.0
1450.754464	662.25
1451.27863	663.25
1451.802741	663.75
1452.326797	666.5
1452.850797	663.75
1453.374743	663.5
1453.898633	662.75
1454.422468	660.75
1454.946249	660.25
1455.469974	661.5
1455.993644	661.75
1456.517259	661.5
1457.040819	662.75
1457.564324	662.75
1458.087773	665.5
1458.611168	662.0
1459.134508	661.5
1459.657793	661.25
1460.181022	663.0
1460.704197	662.0
1461.227316	662.25
1461.750381	661.5
1462.27339	663.75
1462.796345	661.25
1463.319244	669.5
1463.842089	663.75
1464.364878	666.5
1464.887613	663.5
1465.410292	662.75
1465.932916	659.75
1466.455486	661.75
1466.978	661.5
1467.50046	664.5
1468.022864	662.5
1468.545214	664.0
1469.067508	663.25
1469.589748	664.0
1470.111932	666.75
1470.634062	664.25
1471.156136	661.5
1471.678156	658.5
1472.20012	662.5
1472.72203	665.0
1473.243885	664.5
1473.765685	663.5
1474.28743	664.5
1474.80912	662.25
1475.330755	664.0
1475.852335	664.75
1476.37386	662.5
1476.89533	663.75
1477.416745	664.0
1477.938106	662.5
1478.459411	665.0
1478.980662	663.0
1479.501857	662.5
1480.022998	664.5
1480.544084	662.5
1481.065115	663.0
1481.586091	664.5
1482.107012	665.0
1482.627878	664.0
1483.14869	663.25
1483.669446	662.5
1484.190148	665.25
1484.710794	665.25
1485.231386	662.25
1485.751923	661.75
1486.272406	662.0
1486.792833	663.75
1487.313205	663.0
1487.833523	662.25
1488.353786	662.75
1488.873994	663.25
1489.394147	661.5
1489.914245	663.5
1490.434288	663.5
1490.954277	662.5
1491.474211	664.5
1491.99409	661.5
1492.513914	663.0
1493.033683	664.75
1493.553398	661.25
1494.073057	664.0
1494.592662	663.25
1495.112212	661.0
1495.631708	660.5
1496.151148	662.75
1496.670534	664.5
1497.189865	662.25
1497.709141	663.0
1498.228362	661.75
1498.747529	663.75
1499.266641	663.25
1499.785698	670.75
1500.3047	662.25
1500.823648	662.5
1501.34254	662.75
1501.861379	662.75
1502.380162	663.75
1502.89889	659.5
1503.417564	662.5
1503.936183	662.25
1504.454748	662.0
1504.973257	665.25
1505.491712	660.5
1506.010112	664.0
1506.528458	661.25
1507.046748	662.5
1507.564984	660.5
1508.083166	662.75
1508.601292	662.75
1509.119364	662.75
1509.637381	661.25
1510.155344	665.75
1510.673252	672.5
1511.191105	660.5
1511.708903	663.0
1512.226647	662.75
1512.744336	663.25
1513.261971	661.5
1513.77955	663.75
1514.297076	663.75
1514.814546	663.25
1515.331962	662.0
1515.849323	665.0
1516.366629	662.25
1516.883881	663.5
1517.401078	662.75
1517.918221	660.0
1518.435309	664.0
1518.952342	662.0
1519.469321	664.0
1519.986245	662.5
1520.503114	662.5
1521.019929	663.0
1521.536689	661.0
1522.053395	661.5
1522.570046	665.25
1523.086642	663.75
1523.603184	664.25
1524.119671	662.25
1524.636103	662.0
1525.152481	661.75
1525.668805	661.75
1526.185073	664.75
1526.701288	663.25
1527.217447	663.5
1527.733552	662.0
1528.249603	662.5
1528.765599	661.75
1529.28154	660.0
1529.797427	662.5
1530.313259	662.25
1530.829037	660.75
1531.34476	664.5
1531.860429	662.25
1532.376043	661.25
1532.891602	662.5
1533.407107	662.5
1533.922558	661.5
1534.437954	663.25
1534.953295	663.25
1535.468582	662.25
1535.983815	660.5
1536.498993	662.25
1537.014116	663.5
1537.529185	661.75
1538.044199	661.5
1538.559159	660.5
1539.074064	660.5
1539.588915	661.75
1540.103712	662.25
1540.618454	662.0
1541.133141	662.25
1541.647774	660.5
1542.162353	661.25
1542.676877	661.0
1543.191346	664.75
1543.705761	661.75
1544.220122	660.25
1544.734428	663.5
1545.24868	660.75
1545.762877	664.0
1546.27702	663.75
1546.791109	660.0
1547.305143	663.75
1547.819122	662.75
1548.333047	661.5
1548.846918	664.0
1549.360734	664.5
1549.874496	661.75
1550.388204	661.0
1550.901857	664.5
1551.415455	662.75
1551.929	664.0
1552.442489	663.0
1552.955925	662.0
1553.469306	661.75
1553.982632	659.5
1554.495905	662.0
1555.009123	662.75
1555.522286	661.0
1556.035395	659.75
1556.54845	662.75
1557.06145	659.5
1557.574396	660.0
1558.087288	664.25
1558.600125	666.0
1559.112908	661.75
1559.625637	661.5
1560.138311	664.25
1560.650931	660.0
1561.163497	660.5
1561.676008	661.0
1562.188465	662.0
1562.700867	659.75
1563.213216	661.75
1563.725509	663.0
1564.237749	662.75
1564.749934	660.25
1565.262065	663.25
1565.774142	663.0
1566.286164	661.0
1566.798132	663.0
1567.310046	658.25
1567.821906	661.5
1568.333711	664.5
1568.845462	662.75
1569.357158	662.25
1569.868801	660.0
1570.380389	664.0
1570.891922	666.5
1571.403402	661.75
1571.914827	662.75
1572.426198	664.0
1572.937515	662.75
1573.448777	663.0
1573.959985	663.75
1574.471139	661.75
1574.982239	662.75
1575.493285	664.0
1576.004276	660.25
1576.515213	658.25
1577.026096	660.75
1577.536924	660.25
1578.047698	663.5
1578.558419	661.0
1579.069084	664.0
1579.579696	664.0
1580.090254	660.0
1580.600757	663.0
1581.111206	661.0
1581.621601	659.75
1582.131941	662.5
1582.642228	661.5
1583.15246	660.5
1583.662638	662.75
1584.172762	660.75
1584.682832	661.75
1585.192847	660.0
1585.702809	660.5
1586.212716	663.75
1586.722569	663.5
1587.232368	661.0
1587.742113	662.25
1588.251803	660.25
1588.76144	661.75
1589.271022	661.5
1589.78055	659.75
1590.290024	663.25
1590.799444	660.0
1591.30881	660.75
1591.818121	662.0
1592.327379	658.25
