1042.414189	692.5
1042.980685	693.25
1043.547124	688.25
1044.113505	685.5
1044.679828	688.75
1045.246093	687.25
1045.8123	684.25
1046.378449	684.5
1046.94454	685.0
1047.510573	683.25
1048.076548	678.25
1048.642465	678.0
1049.208325	679.75
1049.774126	678.5
1050.339869	677.25
1050.905555	684.0
1051.471183	679.75
1052.036752	680.75
1052.602264	679.0
1053.167718	677.75
1053.733114	676.75
1054.298452	677.25
1054.863733	677.0
1055.428955	677.25
1055.994119	678.0
1056.559226	676.25
1057.124275	678.25
1057.689266	676.5
1058.254199	674.75
1058.819074	673.75
1059.383891	675.0
1059.94865	677.0
1060.513352	672.25
1061.077996	673.5
1061.642582	675.75
1062.20711	676.5
1062.77158	676.0
1063.335992	676.0
1063.900347	678.0
1064.464643	671.75
1065.028882	672.75
1065.593063	676.75
1066.157187	672.0
1066.721252	674.75
1067.28526	672.0
1067.84921	677.25
1068.413102	672.25
1068.976936	673.25
1069.540713	672.5
1070.104431	681.75
1070.668092	673.5
1071.231696	673.5
1071.795241	671.0
1072.358729	674.25
1072.922159	671.5
1073.485531	673.25
1074.048845	674.0
1074.612102	673.75
1075.175301	671.75
1075.738442	670.5
1076.301525	672.5
1076.864551	671.5
1077.427519	670.25
1077.990429	673.75
1078.553281	673.0
1079.116076	669.75
1079.678813	673.0
1080.241492	672.75
1080.804114	672.25
1081.366678	674.75
1081.929184	673.75
1082.491633	672.0
1083.054024	672.5
1083.616357	671.5
1084.178632	672.0
1084.74085	675.25
1085.865113	671.75
1086.427158	673.0
1086.989145	675.75
1087.551074	673.0
1088.112946	673.5
1088.67476	670.75
1089.236517	670.75
1089.798216	673.5
1090.359857	675.0
1090.92144	674.25
1091.482966	672.5
1092.044435	673.25
1092.605845	672.25
1093.167199	671.0
1093.728494	671.0
1094.289732	670.0
1094.850912	672.25
1095.412035	687.0
1095.9731	672.75
1096.534107	674.5
1097.095057	683.5
1097.65595	671.75
1098.216784	674.75
1098.777561	669.0
1099.338281	674.5
1099.898943	674.0
1100.459547	669.75
1101.020094	674.0
1101.580584	671.0
1102.141015	672.25
1102.701389	670.5
1103.261706	673.75
1103.821965	673.0
1104.382167	674.25
1104.942311	674.75
1105.502397	672.25
1106.062426	674.0
1106.622398	672.0
1107.182312	674.0
1107.742168	672.25
1108.301967	674.0
1108.861708	674.5
1109.421392	675.0
1109.981019	674.5
1110.540587	672.75
1111.100099	676.0
1111.659553	674.75
1112.218949	674.75
1112.778288	673.75
1113.33757	673.75
1113.896794	675.5
1114.45596	674.0
1115.015069	675.25
1115.574121	673.5
1116.133115	673.0
1116.692052	674.5
1117.250931	675.75
1117.809753	673.5
1118.368517	675.0
1118.927224	673.75
1119.485873	674.0
1120.044465	669.75
1120.603	673.0
1121.161477	671.75
1121.719897	672.5
1122.278259	672.0
1122.836564	671.0
1123.394812	668.75
1123.953002	669.0
1124.511135	667.25
1125.06921	669.25
1125.627228	672.0
1126.185189	675.5
1126.743092	670.25
1127.300938	670.25
1127.858726	675.75
1128.416457	673.0
1128.974131	671.25
1129.531748	676.25
1130.089307	674.5
1130.646808	675.5
1131.204252	671.0
1131.761639	670.0
1132.318969	672.0
1132.876241	668.25
1133.433456	674.5
1133.990614	671.25
1134.547714	673.75
1135.104757	673.75
1135.661743	670.5
1136.218671	672.5
1136.775542	671.75
1137.332356	670.0
1137.889112	671.75
1138.445811	671.0
1139.002453	670.25
1139.559037	669.0
1140.115565	673.0
1140.672035	667.5
1141.228447	671.5
1141.784803	670.25
1142.341101	670.5
1142.897342	674.0
1143.453525	669.0
1144.009651	670.75
1144.565721	673.25
1145.121732	672.5
1145.677687	672.25
1146.233584	671.75
1146.789424	671.25
1147.345207	671.5
1147.900933	671.75
1148.456601	673.5
1149.012212	671.0
1149.567766	670.5
1150.123263	671.25
1150.678702	670.0
1151.234085	669.75
1151.78941	672.5
1152.344678	671.5
1152.899888	668.5
1153.455042	676.0
1154.010138	671.25
1154.565177	672.0
1155.120159	673.75
1155.675084	668.0
1156.229951	668.25
1156.784762	673.5
1157.339515	669.75
1157.894211	671.0
1158.44885	671.75
1159.003432	666.25
1159.557956	669.75
1160.112424	673.0
1160.666834	673.25
1161.221187	672.0
1161.775483	671.5
1162.329722	671.0
1162.883904	670.0
1163.438029	667.75
1163.992096	670.25
1164.546107	665.5
1165.10006	672.25
1165.653956	669.75
1166.207795	671.0
1166.761577	669.5
1167.315302	674.0
1167.86897	668.25
1168.422581	668.25
1168.976134	673.5
1169.529631	668.75
1170.08307	669.0
1170.636453	669.75
1171.189778	670.0
1171.743046	673.5
1172.296257	671.0
1172.849412	669.25
1173.402509	669.0
1173.955549	668.0
1174.508532	670.0
1175.061458	671.5
1175.614327	668.75
1176.167138	671.5
1176.719893	670.5
1177.272591	673.0
1177.825232	668.25
1178.377816	674.0
1178.930342	674.0
1179.482812	673.0
1180.035225	671.25
1180.587581	672.5
1181.139879	674.0
1181.692121	673.0
1182.244306	670.75
1182.796434	670.0
1183.348504	672.0
1183.900518	674.5
1184.452475	674.75
1185.004375	673.75
1185.556218	673.0
1186.108004	669.5
1186.659733	673.25
1187.211405	670.5
1187.76302	670.0
1188.314578	670.75
1188.866079	676.5
1189.417523	672.0
1189.96891	673.5
1190.520241	673.0
1191.071514	672.25
1191.622731	675.5
1192.17389	670.25
1192.724993	669.75
1193.276039	693.25
1193.827027	668.25
1194.377959	668.75
1194.928834	671.5
1195.479653	673.75
1196.030414	675.25
1196.581118	672.75
1197.131766	670.5
1197.682356	670.25
1198.23289	672.5
1198.783367	671.0
1199.333786	670.25
1199.88415	671.0
1200.434456	674.0
1200.984705	670.75
1201.534898	671.0
1202.085033	669.5
1202.635112	671.75
1203.185134	669.5
1203.735099	673.25
1204.285007	668.75
1204.834859	672.25
1205.384653	669.25
1205.934391	671.0
1206.484072	669.0
1207.033696	670.75
1207.583263	668.5
1208.132774	669.75
1208.682228	674.25
1209.231624	671.0
1209.780965	674.25
1210.330248	671.0
1210.879474	672.5
1211.428644	674.25
1211.977757	673.5
1212.526813	670.75
1213.075813	670.5
1213.624755	668.5
1214.173641	671.75
1214.72247	672.25
1215.271242	671.5
1215.819958	673.0
1216.368617	674.0
1216.917219	670.75
1217.465764	674.25
1218.014253	672.5
1218.562685	672.25
1219.11106	674.25
1219.659378	669.5
1220.20764	674.0
1220.755845	673.75
1221.303993	673.0
1221.852085	670.75
1222.400119	670.75
1222.948097	674.75
1223.496019	670.75
1224.043883	673.0
1224.591691	670.5
1225.139443	673.25
1225.687137	675.0
1226.234775	671.75
1226.782357	672.75
1227.329881	672.0
1227.877349	673.0
1228.42476	672.25
1228.972115	671.5
1229.519413	671.0
1230.066654	671.0
1230.613839	673.75
1231.160967	672.5
1231.708038	673.75
1232.255053	674.25
1232.802011	675.25
1233.348912	668.75
1233.895757	672.0
1234.442545	671.5
1234.989277	673.5
1235.535951	670.5
1236.08257	670.5
1236.629131	672.75
1237.175636	669.5
1237.722085	668.0
1238.268477	673.0
1238.814812	672.75
1239.361091	672.25
1239.907313	670.5
1240.453478	672.25
1240.999587	673.5
1241.54564	669.75
1242.091636	669.5
1242.637575	670.75
1243.183457	673.0
1243.729284	671.0
1244.275053	671.0
1244.820766	674.25
1245.366423	669.25
1245.912022	674.5
1246.457566	669.5
1247.003053	672.5
1247.548483	673.75
1248.093857	673.25
1248.639174	671.25
1249.184435	670.0
1249.729639	673.0
1250.274787	671.5
1250.819878	674.0
1251.364912	672.25
1251.909891	673.0
1252.454812	669.75
1252.999677	670.75
1253.544486	674.0
1254.089238	673.25
1254.633934	669.5
1255.178573	674.5
1255.723156	675.25
1256.267682	669.25
1256.812152	669.5
1257.356565	669.0
1257.900922	669.75
1258.445223	674.5
1258.989467	672.0
1259.533654	672.25
1260.077785	690.5
1260.62186	673.5
1261.165878	672.0
1261.70984	671.25
1262.253745	673.25
1262.797594	672.25
1263.341386	670.5
1263.885123	674.75
1264.428802	678.25
1264.972425	673.75
1265.515992	677.5
1266.059503	676.75
1266.602957	673.25
1267.146354	672.0
1267.689696	668.75
1268.23298	672.75
1268.776209	673.0
1269.319381	670.75
1269.862497	672.25
1270.405556	670.75
1270.948559	670.75
1271.491506	669.5
1272.034396	670.75
1272.57723	670.0
1273.120007	671.75
1273.662728	668.75
1274.205393	674.25
1274.748002	671.0
1275.290554	670.0
1275.83305	669.5
1276.375489	671.0
1276.917872	670.25
1277.460199	669.75
1278.00247	669.25
1278.544684	672.75
1279.086842	673.5
1279.628943	672.0
1280.170989	672.25
1280.712978	667.75
1281.25491	671.75
1281.796787	670.25
1282.338607	670.25
1282.880371	671.0
1283.422078	675.25
1283.963729	684.75
1284.505324	698.25
1285.046863	749.5
1285.588345	802.5
1286.129772	763.5
1286.671142	702.75
1287.212455	680.25
1287.753713	677.0
1288.294914	669.25
1288.836059	675.5
1289.377147	669.5
1289.91818	671.75
1290.459156	672.0
1291.000076	676.0
1291.54094	670.5
1292.081747	673.25
1292.622499	671.0
1293.163194	670.25
1293.703833	672.0
1294.244415	671.75
1294.784942	669.75
1295.325412	674.0
1295.865826	673.75
1296.406184	669.75
1296.946486	671.25
1297.486731	670.25
1298.026921	667.25
1298.567054	674.25
1299.107131	672.75
1299.647152	668.25
1300.187116	670.75
1300.727025	670.0
1301.266877	671.75
1301.806673	670.5
1302.346413	671.75
1302.886097	672.75
1303.425725	668.0
1303.965297	669.75
1304.504812	670.75
1305.044272	670.75
1305.583675	669.5
1306.123022	669.5
1306.662313	670.75
1307.201548	667.5
1307.740727	672.75
1308.279849	671.25
1308.818916	675.75
1309.357926	667.75
1309.896881	671.0
1310.435779	668.0
1310.974621	670.75
1311.513407	669.25
1312.052137	670.5
1312.590811	672.0
1313.129429	672.75
1313.667991	667.0
1314.206497	670.5
1314.744946	671.75
1315.28334	668.25
1315.821678	669.5
1316.359959	673.25
1316.898184	670.5
1317.436354	672.25
1317.974467	672.5
1318.512525	670.5
1319.050526	672.25
1319.588471	670.25
1320.12636	670.0
1320.664194	668.75
1321.201971	672.5
1321.739692	668.0
1322.277357	671.0
1322.814967	667.25
1323.35252	667.75
1323.890017	676.0
1324.427458	671.5
1324.964843	668.25
1325.502173	670.75
1326.039446	668.5
1326.576663	671.0
1327.113824	667.25
1327.65093	672.5
1328.187979	671.5
1328.724972	667.0
1329.26191	671.25
1329.798791	670.25
1330.335617	669.5
1330.872386	670.5
1331.4091	670.0
1331.945758	667.5
1332.48236	670.5
1333.018905	671.75
1333.555395	671.5
1334.091829	672.0
1334.628207	672.5
1335.164529	668.25
1335.700796	670.0
1336.237006	667.0
1336.77316	669.75
1337.309259	671.0
1337.845301	671.0
1338.381288	671.5
1338.917219	671.25
1339.453094	669.5
1339.988913	667.75
1340.524676	670.0
1341.060383	670.5
1341.596034	671.0
1342.13163	666.5
1342.66717	668.5
1343.202653	671.5
1343.738081	668.0
1344.273453	667.5
1344.80877	669.75
1345.34403	670.5
1345.879235	673.0
1346.414383	668.25
1346.949476	672.0
1347.484513	671.25
1348.019494	671.75
1348.55442	667.75
1349.089289	671.0
1349.624103	668.25
1350.158861	671.5
1350.693563	669.5
1351.228209	670.0
1351.7628	669.5
1352.297334	670.0
1352.831813	668.75
1353.366236	668.75
1353.900604	672.0
1354.434915	668.0
1354.969171	668.75
1355.503371	671.75
1356.037515	670.5
1356.571604	672.25
1357.105636	669.0
1357.639613	669.25
1358.173535	671.0
1358.7074	667.0
1359.24121	671.0
1359.774964	667.75
1360.308662	670.0
1360.842304	668.25
1361.375891	669.5
1361.909422	668.75
1362.442897	669.75
1362.976317	667.0
1363.50968	671.0
1364.042989	671.5
1364.576241	668.75
1365.109438	668.0
1365.642579	668.75
1366.175664	668.25
1366.708693	669.5
1367.241667	669.5
1367.774585	667.5
1368.307448	669.0
1368.840255	670.5
1369.373006	671.0
1369.905701	667.5
1370.438341	673.75
1370.970925	673.25
1371.503454	671.0
1372.035926	667.75
1372.568344	669.75
1373.100705	670.5
1373.633011	671.0
1374.165261	669.25
1374.697456	669.25
1375.229595	666.75
1375.761678	670.5
1376.293705	669.25
1376.825677	674.0
1377.357594	671.25
1377.889455	669.5
1378.42126	672.25
1378.953009	670.5
1379.484703	672.25
1380.016342	672.0
1380.547924	673.0
1381.079452	671.5
1381.610923	671.5
1382.142339	669.25
1382.673699	667.25
1383.205004	672.0
1383.736253	672.75
1384.267447	670.5
1384.798585	673.0
1385.329668	670.75
1385.860695	673.75
1386.391666	673.5
1386.922582	678.0
1387.453442	682.75
1387.984247	707.25
1388.514996	795.25
1389.04569	926.25
1389.576328	794.0
1390.10691	703.0
1390.637437	683.0
1391.167909	674.5
1391.698325	672.0
1392.228685	670.75
1392.75899	670.75
1393.28924	673.25
1393.819434	673.25
1394.349572	670.25
1394.879655	670.25
1395.409683	669.75
1395.939655	670.0
1396.469571	669.25
1396.999432	670.75
1397.529237	664.75
1398.058987	668.75
1398.588682	670.75
1399.118321	670.75
1399.647905	674.5
1400.177433	671.5
1400.706906	669.5
1401.236323	669.0
1401.765685	669.0
1402.294991	672.5
1402.824242	667.75
1403.353437	671.5
1403.882577	669.0
1404.411662	670.75
1404.940691	671.0
1405.469665	671.75
1405.998583	671.75
1406.527446	670.25
1407.056253	669.25
1407.585005	672.75
1408.113702	670.25
1408.642343	671.25
1409.170929	673.5
1409.69946	675.25
1410.227935	687.5
1410.756354	685.25
1411.284719	676.5
1411.813028	671.75
1412.341281	670.5
1412.869479	669.75
1413.397622	670.75
1413.92571	671.0
1414.453742	667.75
1414.981718	669.75
1415.50964	681.25
1416.037506	667.75
1416.565316	670.5
1417.093072	671.75
1417.620772	668.75
1418.148416	671.25
1418.676005	671.5
1419.203539	671.5
1419.731018	673.5
1420.258441	671.25
1420.785809	668.75
1421.313122	667.5
1421.840379	670.75
1422.367582	670.5
1422.894728	668.0
1423.42182	671.75
1423.948856	667.75
1424.475837	669.75
1425.002762	671.5
1425.529633	672.75
1426.056448	669.5
1426.583207	674.25
1427.109912	670.25
1427.636561	668.0
1428.163155	670.25
1428.689694	668.75
1429.216177	669.75
1429.742605	669.75
1430.268978	669.0
1430.795296	669.75
1431.321558	669.25
1431.847765	666.25
1432.373917	669.5
1432.900014	669.75
1433.426056	670.75
1433.952042	669.25
1434.477973	668.75
1435.003849	668.75
1435.529669	669.0
1436.055435	668.0
1436.581145	670.25
1437.1068	669.25
1437.632399	669.25
1438.157944	669.75
1438.683433	673.25
1439.208868	671.0
1439.734247	667.0
1440.25957	671.25
1440.784839	669.5
1441.310053	669.75
1441.835211	670.75
1442.360314	666.25
1442.885362	671.5
1443.410355	669.5
1443.935292	668.75
1444.460175	669.25
1444.985002	671.5
1445.509774	675.75
1446.034491	667.0
1446.559153	672.25
1447.08376	674.25
1447.608312	671.5
1448.132808	667.5
1448.65725	670.5
1449.181636	670.5
1449.705967	671.75
1450.230243	670.5
1450.754464	671.25
1451.27863	671.25
1451.802741	669.75
1452.326797	669.75
1452.850797	672.75
1453.374743	668.25
1453.898633	671.5
1454.422468	666.5
1454.946249	668.5
1455.469974	671.5
1455.993644	671.0
1456.517259	672.25
1457.040819	672.25
1457.564324	668.0
1458.087773	670.75
1458.611168	669.25
1459.134508	670.0
1459.657793	669.75
1460.181022	674.0
1460.704197	672.75
1461.227316	671.25
1461.750381	672.0
1462.27339	672.5
1462.796345	679.25
1463.319244	691.25
1463.842089	673.25
1464.364878	672.25
1464.887613	668.75
1465.410292	667.25
1465.932916	672.25
1466.455486	673.5
1466.978	669.25
1467.50046	670.75
1468.022864	672.25
1468.545214	670.75
1469.067508	668.5
1469.589748	672.5
1470.111932	676.0
1470.634062	672.25
1471.156136	667.5
1471.678156	666.5
1472.20012	670.25
1472.72203	672.5
1473.243885	669.25
1473.765685	671.0
1474.28743	670.25
1474.80912	669.5
1475.330755	670.5
1475.852335	669.75
1476.37386	670.25
1476.89533	671.25
1477.416745	670.25
1477.938106	668.75
1478.459411	674.25
1478.980662	670.25
1479.501857	667.5
1480.022998	668.25
1480.544084	668.75
1481.065115	668.0
1481.586091	668.0
1482.107012	669.0
1482.627878	669.25
1483.14869	670.75
1483.669446	667.75
1484.190148	670.75
1484.710794	668.5
1485.231386	667.75
1485.751923	667.5
1486.272406	668.75
1486.792833	668.25
1487.313205	669.0
1487.833523	668.0
1488.353786	667.75
1488.873994	669.75
1489.394147	665.5
1489.914245	669.0
1490.434288	667.75
1490.954277	669.75
1491.474211	669.0
1491.99409	670.0
1492.513914	668.25
1493.033683	670.75
1493.553398	666.0
1494.073057	669.75
1494.592662	668.75
1495.112212	669.25
1495.631708	670.25
1496.151148	667.25
1496.670534	669.25
1497.189865	671.0
1497.709141	666.5
1498.228362	671.75
1498.747529	669.5
1499.266641	669.0
1499.785698	680.75
1500.3047	669.0
1500.823648	670.75
1501.34254	668.75
1501.861379	666.0
1502.380162	670.25
1502.89889	667.75
1503.417564	669.25
1503.936183	671.0
1504.454748	669.0
1504.973257	668.0
1505.491712	668.0
1506.010112	668.5
1506.528458	667.75
1507.046748	666.0
1507.564984	670.5
1508.083166	667.5
1508.601292	670.75
1509.119364	663.5
1509.637381	670.75
1510.155344	669.0
1510.673252	677.0
1511.191105	669.5
1511.708903	667.75
1512.226647	667.75
1512.744336	670.75
1513.261971	670.0
1513.77955	671.25
1514.297076	667.0
1514.814546	668.75
1515.331962	670.75
1515.849323	666.0
1516.366629	670.0
1516.883881	669.5
1517.401078	667.25
1517.918221	670.0
1518.435309	669.0
1518.952342	668.0
1519.469321	670.0
1519.986245	671.25
1520.503114	667.75
1521.019929	671.75
1521.536689	671.75
1522.053395	665.25
1522.570046	666.0
1523.086642	669.0
1523.603184	671.0
1524.119671	665.75
1524.636103	669.5
1525.152481	669.75
1525.668805	671.0
1526.185073	685.25
1526.701288	673.0
1527.217447	668.75
1527.733552	666.25
1528.249603	668.0
1528.765599	671.25
1529.28154	668.5
1529.797427	668.75
1530.313259	669.25
1530.829037	669.25
1531.34476	669.75
1531.860429	670.25
1532.376043	666.25
1532.891602	670.25
1533.407107	666.0
1533.922558	667.5
1534.437954	670.5
1534.953295	673.5
1535.468582	667.0
1535.983815	666.25
1536.498993	667.5
1537.014116	666.0
1537.529185	667.0
1538.044199	670.0
1538.559159	669.25
1539.074064	667.75
1539.588915	673.0
1540.103712	667.0
1540.618454	668.5
1541.133141	668.0
1541.647774	669.25
1542.162353	667.75
1542.676877	666.25
1543.191346	667.25
1543.705761	667.75
1544.220122	671.75
1544.734428	670.25
1545.24868	669.75
1545.762877	669.5
1546.27702	666.5
1546.791109	668.25
1547.305143	667.0
1547.819122	667.5
1548.333047	668.5
1548.846918	665.75
1549.360734	668.75
1549.874496	669.5
1550.388204	668.5
1550.901857	669.5
1551.415455	672.5
1551.929	671.5
1552.442489	670.5
1552.955925	669.25
1553.469306	667.0
1553.982632	663.25
1554.495905	668.5
1555.009123	670.75
1555.522286	667.25
1556.035395	668.0
1556.54845	669.25
1557.06145	670.75
1557.574396	670.75
1558.087288	666.5
1558.600125	668.0
1559.112908	670.5
1559.625637	667.75
1560.138311	667.0
1560.650931	668.75
1561.163497	667.5
1561.676008	669.5
1562.188465	669.25
1562.700867	671.5
1563.213216	669.5
1563.725509	669.0
1564.237749	672.25
1564.749934	670.25
1565.262065	668.5
1565.774142	672.5
1566.286164	670.0
1566.798132	665.5
1567.310046	669.0
1567.821906	672.25
1568.333711	671.25
1568.845462	670.75
1569.357158	670.0
1569.868801	671.0
1570.380389	669.25
1570.891922	669.75
1571.403402	671.0
1571.914827	669.0
1572.426198	667.5
1572.937515	668.75
1573.448777	668.0
1573.959985	669.75
1574.471139	669.25
1574.982239	668.75
1575.493285	673.0
1576.004276	669.0
1576.515213	667.25
1577.026096	668.75
1577.536924	668.75
1578.047698	666.25
1578.558419	669.75
1579.069084	667.25
1579.579696	667.25
1580.090254	668.0
1580.600757	667.0
1581.111206	667.5
1581.621601	668.25
1582.131941	668.75
1582.642228	669.25
1583.15246	665.75
1583.662638	671.0
1584.172762	667.0
1584.682832	669.75
1585.192847	667.25
1585.702809	670.75
1586.212716	667.25
1586.722569	666.75
1587.232368	668.0
1587.742113	669.25
1588.251803	667.5
1588.76144	666.75
1589.271022	668.75
1589.78055	668.25
1590.290024	667.5
1590.799444	671.0
1591.30881	666.0
1591.818121	671.75
1592.327379	665.5
