1042.414189	716.5
1042.980685	718.0
1043.547124	714.75
1044.113505	715.25
1044.679828	712.25
1045.246093	710.0
1045.8123	709.0
1046.378449	706.0
1046.94454	707.5
1047.510573	703.25
1048.076548	704.75
1048.642465	706.25
1049.208325	706.0
1049.774126	703.25
1050.339869	704.75
1050.905555	705.75
1051.471183	702.75
1052.036752	703.0
1052.602264	703.25
1053.167718	701.75
1053.733114	704.75
1054.298452	697.0
1054.863733	699.5
1055.428955	702.0
1055.994119	702.75
1056.559226	696.5
1057.124275	698.25
1057.689266	701.25
1058.254199	691.25
1058.819074	700.75
1059.383891	694.75
1059.94865	700.25
1060.513352	693.5
1061.077996	694.75
1061.642582	696.0
1062.20711	699.75
1062.77158	693.25
1063.335992	697.75
1063.900347	695.75
1064.464643	699.75
1065.028882	701.5
1065.593063	692.75
1066.157187	698.25
1066.721252	698.5
1067.28526	696.75
1067.84921	697.0
1068.413102	695.75
1068.976936	696.0
1069.540713	693.5
1070.104431	704.25
1070.668092	692.0
1071.231696	699.25
1071.795241	694.25
1072.358729	690.5
1072.922159	695.25
1073.485531	692.75
1074.048845	693.25
1074.612102	697.5
1075.175301	694.0
1075.738442	696.25
1076.301525	695.0
1076.864551	695.25
1077.427519	699.0
1077.990429	699.75
1078.553281	697.25
1079.116076	699.75
1079.678813	698.25
1080.241492	697.5
1080.804114	699.0
1081.366678	696.75
1081.929184	697.5
1082.491633	700.0
1083.054024	703.25
1083.616357	696.5
1084.178632	698.0
1084.74085	697.25
1085.30301	699.5
1085.865113	698.5
1086.427158	701.0
1086.989145	697.25
1087.551074	704.25
1088.112946	697.0
1088.67476	697.75
1089.236517	700.75
1089.798216	696.25
1090.359857	699.0
1090.92144	696.5
1091.482966	694.5
1092.044435	700.25
1092.605845	698.0
1093.167199	700.25
1093.728494	696.5
1094.289732	696.75
1094.850912	696.5
1095.412035	710.5
1095.9731	698.0
1096.534107	700.75
1097.095057	704.25
1097.65595	693.0
1098.216784	695.5
1098.777561	693.0
1099.338281	695.75
1099.898943	698.75
1100.459547	700.5
1101.020094	702.25
1101.580584	698.75
1102.141015	704.5
1102.701389	703.25
1103.261706	702.25
1103.821965	703.0
1104.382167	703.0
1104.942311	709.75
1105.502397	712.75
1106.062426	711.5
1106.622398	719.5
1107.182312	714.25
1107.742168	718.5
1108.301967	721.5
1108.861708	726.25
1109.421392	731.5
1109.981019	733.75
1110.540587	735.25
1111.100099	739.25
1111.659553	745.5
1112.218949	745.5
1112.778288	746.75
1113.33757	747.5
1113.896794	744.75
1114.45596	741.25
1115.015069	743.5
1115.574121	736.5
1116.133115	735.25
1116.692052	730.75
1117.250931	728.25
1117.809753	728.5
1118.368517	720.25
1118.927224	718.5
1119.485873	717.5
1120.044465	715.75
1120.603	712.0
1121.161477	708.75
1121.719897	710.5
1122.278259	710.75
1122.836564	708.0
1123.394812	702.75
1123.953002	708.75
1124.511135	701.25
1125.06921	702.25
1125.627228	704.75
1126.185189	700.25
1126.743092	699.25
1127.300938	702.25
1127.858726	704.25
1128.416457	701.0
1128.974131	699.25
1129.531748	693.0
1130.089307	696.0
1130.646808	697.75
1131.204252	700.75
1131.761639	701.25
1132.318969	695.25
1132.876241	695.0
1133.433456	694.5
1133.990614	695.0
1134.547714	697.0
1135.104757	697.75
1135.661743	698.25
1136.218671	694.75
1136.775542	694.0
1137.332356	694.75
1137.889112	696.0
1138.445811	697.75
1139.002453	691.0
1139.559037	695.0
1140.115565	690.5
1140.672035	693.5
1141.228447	693.5
1141.784803	695.25
1142.341101	693.5
1142.897342	693.25
1143.453525	691.75
1144.009651	690.5
1144.565721	695.25
1145.121732	696.0
1145.677687	694.25
1146.233584	696.25
1146.789424	693.75
1147.345207	696.0
1147.900933	694.25
1148.456601	693.0
1149.012212	693.0
1149.567766	693.25
1150.123263	694.0
1150.678702	693.75
1151.234085	696.0
1151.78941	695.0
1152.344678	695.75
1152.899888	692.75
1153.455042	698.5
1154.010138	697.0
1154.565177	694.5
1155.120159	696.5
1155.675084	695.75
1156.229951	691.75
1156.784762	690.5
1157.339515	694.75
1157.894211	694.5
1158.44885	694.75
1159.003432	696.25
1159.557956	690.0
1160.112424	698.25
1160.666834	694.75
1161.221187	693.25
1161.775483	695.75
1162.329722	693.75
1162.883904	691.75
1163.438029	691.75
1163.992096	696.25
1164.546107	688.25
1165.10006	692.75
1165.653956	691.25
1166.207795	693.25
1166.761577	686.5
1167.315302	693.0
1167.86897	694.5
1168.422581	689.75
1168.976134	688.5
1169.529631	690.0
1170.08307	692.25
1170.636453	691.25
1171.189778	686.5
1171.743046	694.0
1172.296257	691.5
1172.849412	692.5
1173.402509	694.25
1173.955549	691.5
1174.508532	694.75
1175.061458	695.25
1175.614327	694.25
1176.167138	697.75
1176.719893	698.75
1177.272591	699.5
1177.825232	696.0
1178.377816	701.5
1178.930342	702.75
1179.482812	707.75
1180.035225	704.5
1180.587581	705.0
1181.139879	711.5
1181.692121	713.5
1182.244306	713.75
1182.796434	713.5
1183.348504	729.5
1183.900518	717.25
1184.452475	718.0
1185.004375	726.25
1185.556218	721.75
1186.108004	720.75
1186.659733	722.0
1187.211405	719.5
1187.76302	723.0
1188.314578	727.5
1188.866079	718.75
1189.417523	716.0
1189.96891	714.5
1190.520241	713.0
1191.071514	712.5
1191.622731	708.25
1192.17389	704.0
1192.724993	702.25
1193.276039	724.0
1193.827027	702.25
1194.377959	696.75
1194.928834	695.5
1195.479653	693.75
1196.030414	693.25
1196.581118	698.0
1197.131766	695.25
1197.682356	691.0
1198.23289	692.0
1198.783367	687.0
1199.333786	692.75
1199.88415	693.25
1200.434456	690.0
1200.984705	688.75
1201.534898	692.5
1202.085033	690.75
1202.635112	687.25
1203.185134	692.5
1203.735099	689.25
1204.285007	691.25
1204.834859	690.75
1205.384653	687.75
1205.934391	691.75
1206.484072	691.0
1207.033696	690.0
1207.583263	695.75
1208.132774	692.25
1208.682228	689.0
1209.231624	693.25
1209.780965	696.75
1210.330248	696.75
1210.879474	696.25
1211.428644	696.0
1211.977757	691.25
1212.526813	692.5
1213.075813	699.5
1213.624755	699.5
1214.173641	700.25
1214.72247	697.75
1215.271242	699.75
1215.819958	703.0
1216.368617	702.0
1216.917219	699.0
1217.465764	698.5
1218.014253	703.25
1218.562685	708.25
1219.11106	708.75
1219.659378	703.25
1220.20764	707.5
1220.755845	706.5
1221.303993	704.25
1221.852085	711.75
1222.400119	708.75
1222.948097	710.0
1223.496019	707.0
1224.043883	709.75
1224.591691	711.25
1225.139443	707.25
1225.687137	716.75
1226.234775	712.25
1226.782357	712.75
1227.329881	713.75
1227.877349	716.0
1228.42476	713.0
1228.972115	715.5
1229.519413	715.5
1230.066654	717.75
1230.613839	715.75
1231.160967	712.0
1231.708038	715.25
1232.255053	712.5
1232.802011	717.5
1233.348912	709.75
1233.895757	714.75
1234.442545	714.75
1234.989277	709.75
1235.535951	713.25
1236.08257	709.5
1236.629131	707.5
1237.175636	708.25
1237.722085	706.25
1238.268477	709.0
1238.814812	706.75
1239.361091	707.25
1239.907313	707.5
1240.453478	704.25
1240.999587	704.75
1241.54564	703.5
1242.091636	705.5
1242.637575	708.0
1243.183457	705.5
1243.729284	708.0
1244.275053	708.75
1244.820766	706.5
1245.366423	704.75
1245.912022	714.0
1246.457566	703.5
1247.003053	707.75
1247.548483	708.0
1248.093857	707.25
1248.639174	711.0
1249.184435	707.25
1249.729639	705.5
1250.274787	711.0
1250.819878	708.25
1251.364912	710.25
1251.909891	708.5
1252.454812	703.75
1252.999677	709.75
1253.544486	706.5
1254.089238	707.5
1254.633934	710.25
1255.178573	709.5
1255.723156	707.5
1256.267682	708.5
1256.812152	703.75
1257.356565	708.25
1257.900922	707.25
1258.445223	704.25
1258.989467	708.25
1259.533654	704.0
1260.62186	702.25
1261.165878	706.75
1261.70984	704.75
1262.253745	698.75
1262.797594	701.25
1263.341386	698.75
1263.885123	700.75
1264.428802	702.5
1264.972425	701.75
1265.515992	702.25
1266.059503	702.25
1266.602957	698.5
1267.146354	697.0
1267.689696	696.0
1268.23298	699.5
1268.776209	695.75
1269.319381	696.0
1269.862497	699.25
1270.405556	693.25
1270.948559	699.75
1271.491506	698.75
1272.034396	694.0
1272.57723	701.0
1273.120007	695.5
1273.662728	693.5
1274.205393	695.5
1274.748002	693.0
1275.290554	697.0
1275.83305	694.25
1276.375489	696.5
1276.917872	697.5
1277.460199	697.5
1278.00247	695.5
1278.544684	700.5
1279.086842	697.5
1279.628943	693.75
1280.170989	697.25
1280.712978	698.75
1281.25491	694.0
1281.796787	698.5
1282.338607	698.25
1282.880371	704.75
1283.422078	704.0
1283.963729	713.25
1284.505324	724.0
1285.046863	741.25
1285.588345	740.0
1286.129772	718.25
1286.671142	706.75
1287.212455	704.75
1287.753713	701.0
1288.294914	701.0
1288.836059	707.0
1289.377147	701.5
1289.91818	709.75
1290.459156	704.0
1291.000076	707.25
1291.54094	705.5
1292.081747	709.5
1292.622499	704.0
1293.163194	708.75
1293.703833	710.0
1294.244415	707.75
1294.784942	706.75
1295.325412	710.5
1295.865826	711.75
1296.406184	709.75
1296.946486	701.75
1297.486731	708.25
1298.026921	709.25
1298.567054	707.5
1299.107131	708.0
1299.647152	708.75
1300.187116	706.75
1300.727025	713.75
1301.266877	713.25
1301.806673	708.0
1302.346413	703.75
1302.886097	709.5
1303.425725	710.75
1303.965297	708.0
1304.504812	703.5
1305.044272	705.5
1305.583675	708.0
1306.123022	704.25
1306.662313	704.5
1307.201548	706.25
1307.740727	702.25
1308.279849	702.25
1308.818916	707.0
1309.357926	703.0
1309.896881	704.5
1310.435779	698.75
1310.974621	701.75
1311.513407	695.0
1312.052137	704.5
1312.590811	698.25
1313.129429	704.75
1313.667991	701.0
1314.206497	696.75
1314.744946	699.25
1315.28334	698.5
1315.821678	699.5
1316.359959	697.5
1316.898184	696.25
1317.436354	693.5
1317.974467	692.75
1318.512525	690.5
1319.050526	692.25
1319.588471	691.75
1320.12636	688.5
1320.664194	688.75
1321.201971	687.75
1321.739692	691.0
1322.277357	691.25
1322.814967	685.0
1323.35252	689.5
1323.890017	695.25
1324.427458	691.0
1324.964843	689.25
1325.502173	687.5
1326.039446	689.0
1326.576663	690.75
1327.113824	690.25
1327.65093	688.25
1328.187979	683.0
1328.724972	686.75
1329.26191	688.0
1329.798791	688.75
1330.335617	687.5
1330.872386	687.5
1331.4091	685.75
1331.945758	685.75
1332.48236	684.5
1333.018905	683.5
1333.555395	688.0
1334.091829	687.25
1334.628207	686.25
1335.164529	684.5
1335.700796	686.5
1336.237006	688.0
1336.77316	685.75
1337.309259	690.25
1337.845301	687.0
1338.381288	690.0
1338.917219	686.5
1339.453094	686.75
1339.988913	687.75
1340.524676	686.0
1341.060383	689.5
1341.596034	686.75
1342.13163	688.5
1342.66717	686.0
1343.202653	687.25
1343.738081	686.25
1344.273453	687.25
1344.80877	687.0
1345.34403	689.75
1345.879235	685.5
1346.414383	684.0
1346.949476	686.75
1347.484513	685.75
1348.019494	686.75
1348.55442	687.25
1349.089289	690.25
1349.624103	688.25
1350.158861	690.0
1350.693563	690.0
1351.228209	691.0
1351.7628	689.0
1352.297334	688.25
1352.831813	686.75
1353.366236	688.0
1353.900604	685.5
1354.434915	685.25
1354.969171	684.25
1355.503371	687.5
1356.037515	686.75
1356.571604	686.25
1357.105636	689.5
1357.639613	685.75
1358.173535	680.75
1358.7074	687.25
1359.24121	685.75
1359.774964	687.0
1360.308662	687.25
1360.842304	686.5
1361.375891	688.75
1361.909422	686.75
1362.442897	690.75
1362.976317	685.75
1363.50968	691.25
1364.042989	682.25
1364.576241	689.25
1365.109438	685.75
1365.642579	684.25
1366.175664	686.0
1366.708693	686.0
1367.241667	687.75
1367.774585	687.5
1368.307448	687.0
1368.840255	688.5
1369.373006	685.25
1369.905701	685.25
1370.438341	688.0
1370.970925	685.25
1371.503454	685.5
1372.035926	685.75
1372.568344	688.5
1373.100705	684.25
1373.633011	684.75
1374.165261	686.75
1374.697456	682.75
1375.229595	688.5
1375.761678	686.0
1376.293705	686.75
1376.825677	691.75
1377.357594	688.75
1377.889455	688.25
1378.42126	686.75
1378.953009	685.0
1379.484703	687.25
1380.016342	690.5
1380.547924	690.0
1381.079452	684.75
1381.610923	693.0
1382.142339	687.5
1382.673699	691.75
1383.205004	688.0
1383.736253	688.0
1384.267447	694.25
1384.798585	688.75
1385.329668	691.5
1385.860695	688.0
1386.391666	688.75
1386.922582	694.75
1387.453442	700.75
1387.984247	717.5
1388.514996	758.25
1389.04569	768.75
1389.576328	719.0
1390.10691	696.75
1390.637437	690.0
1391.167909	691.5
1391.698325	685.5
1392.228685	692.0
1392.75899	684.5
1393.28924	689.25
1393.819434	686.75
1394.349572	688.25
1394.879655	689.25
1395.409683	688.5
1395.939655	689.0
1396.469571	687.25
1396.999432	685.75
1397.529237	686.5
1398.058987	691.0
1398.588682	687.75
1399.118321	692.5
1399.647905	685.25
1400.177433	690.25
1400.706906	685.75
1401.236323	688.5
1401.765685	692.5
1402.294991	688.25
1402.824242	689.75
1403.353437	687.75
1403.882577	686.0
1404.411662	683.25
1404.940691	689.0
1405.469665	686.25
1405.998583	690.0
1406.527446	687.0
1407.056253	690.25
1407.585005	688.25
1408.113702	692.75
1408.642343	690.5
1409.170929	689.25
1409.69946	693.75
1410.227935	696.0
1410.756354	690.0
1411.284719	692.25
1411.813028	687.25
1412.341281	688.75
1412.869479	688.5
1413.397622	687.0
1413.92571	686.5
1414.453742	690.25
1414.981718	690.25
1415.50964	695.75
1416.037506	689.5
1416.565316	686.25
1417.093072	688.0
1417.620772	688.0
1418.148416	685.75
1418.676005	690.0
1419.203539	690.25
1419.731018	685.0
1420.258441	688.0
1420.785809	683.5
1421.313122	683.75
1421.840379	683.75
1422.367582	686.5
1422.894728	688.0
1423.42182	689.75
1423.948856	688.25
1424.475837	685.25
1425.002762	688.25
1425.529633	689.75
1426.056448	687.75
1426.583207	684.75
1427.109912	688.75
1427.636561	685.75
1428.163155	692.0
1428.689694	687.75
1429.216177	689.5
1429.742605	691.5
1430.268978	688.25
1430.795296	694.5
1431.321558	695.75
1431.847765	695.0
1432.373917	695.25
1432.900014	693.25
1433.426056	693.5
1433.952042	694.25
1434.477973	694.0
1435.003849	696.0
1435.529669	695.5
1436.055435	697.25
1436.581145	694.5
1437.1068	698.75
1437.632399	694.5
1438.157944	699.5
1438.683433	700.5
1439.208868	703.25
1439.734247	697.5
1440.25957	698.25
1440.784839	698.0
1441.310053	698.0
1441.835211	706.5
1442.360314	700.75
1442.885362	704.5
1443.410355	701.25
1443.935292	704.0
1444.460175	702.75
1444.985002	699.0
1445.509774	702.0
1446.034491	705.75
1446.559153	701.25
1447.08376	701.75
1447.608312	702.25
1448.132808	704.75
1448.65725	705.0
1449.181636	704.0
1449.705967	703.25
1450.230243	707.25
1450.754464	705.25
1451.27863	705.0
1451.802741	707.0
1452.326797	710.25
1452.850797	706.25
1453.374743	708.25
1453.898633	706.0
1454.422468	709.25
1454.946249	710.25
1455.469974	706.5
1455.993644	710.75
1456.517259	707.5
1457.040819	705.5
1457.564324	709.25
1458.087773	702.75
1458.611168	709.75
1459.134508	711.75
1459.657793	706.75
1460.181022	709.0
1460.704197	708.5
1461.227316	707.75
1461.750381	706.75
1462.27339	706.75
1462.796345	714.25
1463.319244	718.5
1463.842089	710.0
1464.364878	710.75
1464.887613	708.0
1465.410292	709.0
1465.932916	704.25
1466.455486	708.0
1466.978	705.25
1467.50046	705.5
1468.022864	705.0
1468.545214	705.25
1469.067508	706.0
1469.589748	700.5
1470.111932	702.5
1470.634062	702.25
1471.156136	703.25
1471.678156	696.25
1472.20012	702.0
1472.72203	701.25
1473.243885	694.75
1473.765685	699.5
1474.28743	698.5
1474.80912	698.25
1475.330755	699.25
1475.852335	695.25
1476.37386	691.0
1476.89533	692.75
1477.416745	698.0
1477.938106	694.5
1478.459411	689.0
1478.980662	691.0
1479.501857	690.25
1480.022998	689.5
1480.544084	691.5
1481.065115	690.5
1481.586091	692.5
1482.107012	686.5
1482.627878	689.0
1483.14869	690.25
1483.669446	690.5
1484.190148	688.0
1484.710794	689.75
1485.231386	687.5
1485.751923	684.25
1486.272406	685.5
1486.792833	684.25
1487.313205	684.5
1487.833523	683.5
1488.353786	687.75
1488.873994	687.75
1489.394147	684.0
1489.914245	678.0
1490.434288	681.25
1490.954277	685.5
1491.474211	682.5
1491.99409	682.75
1492.513914	685.25
1493.033683	680.5
1493.553398	678.75
1494.073057	681.75
1494.592662	683.25
1495.112212	687.0
1495.631708	681.25
1496.151148	677.75
1496.670534	680.75
1497.189865	683.75
1497.709141	680.25
1498.228362	683.25
1498.747529	683.25
1499.266641	679.25
1499.785698	691.25
1500.3047	682.0
1500.823648	678.25
1501.34254	684.5
1501.861379	680.25
1502.380162	682.0
1502.89889	683.25
1503.417564	682.75
1503.936183	680.75
1504.454748	684.5
1504.973257	683.5
1505.491712	683.5
1506.010112	679.25
1506.528458	681.75
1507.046748	682.75
1507.564984	685.25
1508.083166	685.0
1508.601292	684.25
1509.119364	682.75
1509.637381	681.5
1510.155344	684.0
1510.673252	691.5
1511.191105	682.5
1511.708903	680.5
1512.226647	681.25
1512.744336	683.25
1513.261971	678.25
1513.77955	681.0
1514.297076	685.25
1514.814546	685.75
1515.331962	681.5
1515.849323	682.5
1516.366629	677.75
1516.883881	684.25
1517.401078	682.0
1517.918221	681.25
1518.435309	679.0
1518.952342	680.25
1519.469321	680.0
1519.986245	678.75
1520.503114	679.0
1521.019929	680.25
1521.536689	678.5
1522.053395	678.25
1522.570046	679.75
1523.086642	680.25
1523.603184	682.0
1524.119671	679.75
1524.636103	677.75
1525.152481	680.75
1525.668805	681.25
1526.185073	683.75
1526.701288	685.5
1527.217447	682.25
1527.733552	682.25
1528.249603	683.5
1528.765599	678.5
1529.28154	680.25
1529.797427	682.0
1530.313259	679.25
1530.829037	679.25
1531.34476	681.75
1531.860429	676.25
1532.376043	683.25
1532.891602	682.5
1533.407107	686.25
1533.922558	680.5
1534.437954	681.25
1534.953295	682.0
1535.468582	679.5
1535.983815	681.75
1536.498993	676.0
1537.014116	678.5
1537.529185	680.0
1538.044199	678.75
1538.559159	677.75
1539.074064	682.75
1539.588915	682.75
1540.103712	678.25
1540.618454	681.0
1541.133141	678.25
1541.647774	682.5
1542.162353	678.75
1542.676877	678.0
1543.191346	683.0
1543.705761	678.75
1544.220122	677.5
1544.734428	678.25
1545.24868	679.0
1545.762877	679.75
1546.27702	679.25
1546.791109	680.0
1547.305143	683.75
1547.819122	683.5
1548.333047	679.25
1548.846918	680.75
1549.360734	680.0
1549.874496	681.75
1550.388204	678.5
1550.901857	683.5
1551.415455	682.0
1551.929	684.75
1552.442489	679.5
1552.955925	683.75
1553.469306	682.5
1553.982632	679.75
1554.495905	685.5
1555.009123	680.25
1555.522286	684.25
1556.035395	682.5
1556.54845	681.5
1557.06145	677.5
1557.574396	683.5
1558.087288	683.0
1558.600125	680.5
1559.112908	681.0
1559.625637	681.25
1560.138311	683.75
1560.650931	683.75
1561.163497	682.5
1561.676008	682.0
1562.188465	683.0
1562.700867	681.25
1563.213216	681.25
1563.725509	678.5
1564.237749	681.0
1564.749934	682.25
1565.262065	680.75
1565.774142	685.25
1566.286164	680.5
1566.798132	681.75
1567.310046	680.25
1567.821906	685.25
1568.333711	682.0
1568.845462	685.0
1569.357158	681.25
1569.868801	683.25
1570.380389	685.75
1570.891922	680.5
1571.403402	680.75
1571.914827	686.5
1572.426198	682.75
1572.937515	683.75
1573.448777	682.5
1573.959985	686.25
1574.471139	685.25
1574.982239	683.75
1575.493285	684.75
1576.004276	686.25
1576.515213	687.25
1577.026096	680.0
1577.536924	690.0
1578.047698	689.25
1578.558419	689.0
1579.069084	691.0
1579.579696	690.5
1580.090254	690.5
1580.600757	691.0
1581.111206	694.5
1581.621601	692.75
1582.131941	692.25
1582.642228	689.5
1583.15246	693.75
1583.662638	694.5
1584.172762	687.75
1584.682832	688.5
1585.192847	687.25
1585.702809	691.25
1586.212716	691.25
1586.722569	687.25
1587.232368	686.0
1587.742113	689.25
1588.251803	689.25
1588.76144	689.25
1589.271022	687.0
1589.78055	685.25
1590.290024	685.25
1590.799444	688.5
1591.30881	684.75
1591.818121	688.0
1592.327379	689.5
