1042.414189	695.25
1042.980685	695.5
1043.547124	698.75
1044.113505	695.75
1044.679828	695.5
1045.246093	694.25
1045.8123	687.5
1046.378449	687.75
1046.94454	691.5
1047.510573	683.5
1048.076548	684.25
1048.642465	685.0
1049.208325	685.25
1049.774126	681.75
1050.339869	683.75
1050.905555	681.75
1051.471183	681.5
1052.036752	681.0
1052.602264	682.5
1053.167718	683.25
1053.733114	679.0
1054.298452	676.5
1054.863733	679.5
1055.428955	679.5
1055.994119	676.5
1056.559226	677.25
1057.124275	676.0
1057.689266	678.5
1058.254199	674.75
1058.819074	680.25
1059.383891	675.75
1059.94865	676.75
1060.513352	683.25
1061.077996	678.0
1061.642582	677.0
1062.20711	676.0
1062.77158	676.5
1063.335992	677.25
1063.900347	677.25
1064.464643	672.0
1065.028882	674.25
1065.593063	674.25
1066.157187	675.25
1066.721252	674.75
1067.28526	675.0
1067.84921	675.0
1068.413102	676.0
1068.976936	675.25
1069.540713	673.5
1070.104431	679.0
1070.668092	672.0
1071.231696	674.75
1071.795241	672.5
1072.358729	676.0
1072.922159	674.5
1073.485531	672.75
1074.048845	676.0
1074.612102	672.25
1075.175301	674.25
1075.738442	673.75
1076.301525	675.75
1076.864551	674.75
1077.427519	675.25
1077.990429	676.0
1078.553281	674.0
1079.116076	671.0
1079.678813	674.5
1080.241492	672.25
1080.804114	671.25
1081.366678	675.25
1081.929184	675.25
1082.491633	673.0
1083.054024	674.5
1083.616357	674.25
1084.178632	673.75
1084.74085	673.0
1085.30301	675.0
1085.865113	670.5
1086.427158	675.5
1086.989145	672.25
1087.551074	675.0
1088.112946	673.5
1088.67476	673.75
1089.236517	675.25
1089.798216	675.0
1090.359857	671.25
1090.92144	673.0
1091.482966	671.5
1092.044435	672.75
1092.605845	672.0
1093.167199	670.75
1093.728494	672.25
1094.289732	673.25
1094.850912	673.75
1095.412035	688.0
1095.9731	675.75
1096.534107	673.25
1097.095057	680.5
1097.65595	670.25
1098.216784	669.75
1098.777561	672.75
1099.338281	674.0
1099.898943	670.75
1100.459547	676.0
1101.020094	672.5
1101.580584	672.75
1102.141015	672.5
1102.701389	671.5
1103.261706	673.75
1103.821965	673.75
1104.382167	673.0
1104.942311	673.0
1105.502397	672.75
1106.062426	671.0
1106.622398	674.0
1107.182312	677.0
1107.742168	675.0
1108.301967	673.5
1108.861708	672.75
1109.421392	677.0
1109.981019	675.25
1110.540587	678.5
1111.100099	673.0
1111.659553	675.25
1112.218949	677.5
1112.778288	675.0
1113.33757	675.75
1113.896794	674.5
1114.45596	674.5
1115.015069	674.75
1115.574121	674.75
1116.133115	673.0
1116.692052	673.5
1117.250931	675.0
1117.809753	675.25
1118.368517	676.75
1118.927224	674.5
1119.485873	676.0
1120.044465	672.75
1120.603	672.75
1121.161477	672.5
1121.719897	670.5
1122.278259	673.0
1122.836564	672.0
1123.394812	675.5
1123.953002	672.25
1124.511135	671.25
1125.06921	673.0
1125.627228	674.0
1126.185189	670.0
1126.743092	670.0
1127.300938	673.5
1127.858726	671.75
1128.416457	671.75
1128.974131	672.5
1129.531748	668.75
1130.089307	669.75
1130.646808	671.0
1131.204252	675.5
1131.761639	673.25
1132.318969	672.5
1132.876241	671.75
1133.433456	669.75
1133.990614	673.25
1134.547714	673.0
1135.104757	671.5
1135.661743	671.0
1136.218671	673.75
1136.775542	672.0
1137.332356	674.5
1137.889112	673.0
1138.445811	672.0
1139.002453	671.5
1139.559037	670.75
1140.115565	670.75
1140.672035	672.75
1141.228447	672.75
1141.784803	670.25
1142.341101	670.5
1142.897342	674.0
1143.453525	672.25
1144.009651	672.0
1144.565721	672.75
1145.121732	671.0
1145.677687	674.5
1146.233584	674.75
1146.789424	670.5
1147.345207	674.0
1147.900933	674.75
1148.456601	674.0
1149.012212	671.5
1149.567766	676.0
1150.123263	678.0
1150.678702	694.25
1151.234085	685.25
1151.78941	677.25
1152.344678	674.25
1152.899888	674.75
1153.455042	673.75
1154.010138	674.75
1154.565177	670.5
1155.120159	673.25
1155.675084	670.25
1156.229951	675.25
1156.784762	674.0
1157.339515	670.0
1157.894211	673.0
1158.44885	672.5
1159.003432	671.0
1159.557956	674.75
1160.112424	674.0
1160.666834	671.25
1161.221187	675.0
1161.775483	669.75
1162.329722	673.0
1162.883904	671.5
1163.438029	674.25
1163.992096	669.0
1164.546107	673.0
1165.10006	670.75
1165.653956	671.75
1166.207795	670.0
1166.761577	672.75
1167.315302	671.0
1167.86897	671.5
1168.422581	670.5
1168.976134	673.5
1169.529631	672.0
1170.08307	674.25
1170.636453	672.25
1171.189778	672.25
1171.743046	673.5
1172.296257	669.5
1172.849412	672.5
1173.402509	672.0
1173.955549	671.0
1174.508532	670.75
1175.061458	669.25
1175.614327	670.25
1176.167138	670.0
1176.719893	670.75
1177.272591	674.75
1177.825232	671.5
1178.377816	671.5
1178.930342	670.75
1179.482812	670.25
1180.035225	676.0
1180.587581	672.75
1181.139879	671.5
1181.692121	675.25
1182.244306	674.75
1182.796434	670.0
1183.348504	672.0
1183.900518	673.5
1184.452475	670.5
1185.004375	673.5
1185.556218	672.0
1186.108004	672.25
1186.659733	672.25
1187.211405	672.25
1187.76302	672.0
1188.314578	671.0
1188.866079	674.0
1189.417523	673.75
1189.96891	670.0
1190.520241	673.75
1191.071514	672.5
1191.622731	673.75
1192.17389	671.0
1192.724993	671.5
1193.276039	692.0
1193.827027	671.25
1194.377959	672.75
1194.928834	672.0
1195.479653	676.0
1196.030414	668.5
1196.581118	674.75
1197.131766	672.0
1197.682356	673.5
1198.23289	671.5
1198.783367	670.75
1199.333786	670.75
1199.88415	672.5
1200.434456	668.5
1200.984705	673.5
1201.534898	671.5
1202.085033	672.0
1202.635112	672.25
1203.185134	671.0
1203.735099	672.25
1204.285007	669.5
1204.834859	671.25
1205.384653	672.5
1205.934391	671.0
1206.484072	669.0
1207.033696	674.5
1207.583263	671.5
1208.132774	672.5
1208.682228	672.0
1209.231624	671.0
1209.780965	670.75
1210.330248	673.75
1210.879474	672.5
1211.428644	671.75
1211.977757	677.25
1212.526813	672.75
1213.075813	671.5
1213.624755	668.0
1214.173641	674.0
1214.72247	671.75
1215.271242	671.0
1215.819958	669.25
1216.368617	672.0
1216.917219	673.0
1217.465764	674.0
1218.014253	676.0
1218.562685	673.75
1219.11106	671.25
1219.659378	671.25
1220.20764	675.75
1220.755845	674.0
1221.303993	673.75
1221.852085	672.0
1222.400119	669.75
1222.948097	675.75
1223.496019	672.25
1224.043883	672.25
1224.591691	671.75
1225.139443	671.0
1225.687137	675.0
1226.234775	672.25
1226.782357	676.5
1227.329881	672.0
1227.877349	671.0
1228.42476	673.25
1228.972115	675.0
1229.519413	671.5
1230.066654	673.25
1230.613839	671.5
1231.160967	669.0
1231.708038	675.5
1232.255053	671.75
1232.802011	674.5
1233.348912	674.25
1233.895757	675.75
1234.442545	671.5
1234.989277	673.5
1235.535951	673.25
1236.08257	672.0
1236.629131	673.5
1237.175636	671.0
1237.722085	670.5
1238.268477	672.0
1238.814812	671.5
1239.361091	673.0
1239.907313	670.0
1240.453478	671.5
1240.999587	671.5
1241.54564	671.75
1242.091636	675.75
1242.637575	669.0
1243.183457	675.25
1243.729284	669.25
1244.275053	673.25
1244.820766	676.75
1245.366423	670.75
1245.912022	670.75
1246.457566	670.0
1247.003053	669.75
1247.548483	673.0
1248.093857	675.25
1248.639174	676.0
1249.184435	673.75
1249.729639	670.25
1250.274787	671.0
1250.819878	672.0
1251.364912	677.25
1251.909891	670.25
1252.454812	673.0
1252.999677	670.0
1253.544486	670.0
1254.089238	673.0
1254.633934	670.5
1255.178573	672.75
1255.723156	671.5
1256.267682	673.5
1256.812152	669.75
1257.356565	671.25
1257.900922	675.0
1258.445223	673.75
1258.989467	671.75
1259.533654	674.75
1260.077785	687.75
1260.62186	669.75
1261.165878	673.25
1261.70984	673.75
1262.253745	673.25
1262.797594	673.25
1263.341386	675.5
1263.885123	673.5
1264.428802	678.25
1264.972425	680.0
1265.515992	682.25
1266.059503	673.75
1266.602957	674.5
1267.146354	673.0
1267.689696	672.25
1268.23298	675.25
1268.776209	670.5
1269.319381	671.75
1269.862497	671.75
1270.405556	671.5
1270.948559	670.5
1271.491506	670.75
1272.034396	671.5
1272.57723	674.25
1273.120007	672.0
1273.662728	670.5
1274.205393	671.5
1274.748002	671.75
1275.290554	673.25
1275.83305	672.25
1276.375489	671.75
1276.917872	676.0
1277.460199	673.0
1278.00247	670.5
1278.544684	669.5
1279.086842	672.5
1279.628943	671.25
1280.170989	673.0
1280.712978	675.25
1281.25491	672.0
1281.796787	672.0
1282.338607	673.25
1282.880371	678.25
1283.422078	679.75
1283.963729	690.0
1284.505324	710.25
1285.046863	769.25
1285.588345	800.25
1286.129772	731.0
1286.671142	690.25
1287.212455	679.75
1287.753713	676.25
1288.294914	675.5
1288.836059	675.25
1289.377147	674.75
1289.91818	672.25
1290.459156	675.0
1291.000076	671.0
1291.54094	670.0
1292.081747	669.75
1292.622499	671.5
1293.163194	670.75
1293.703833	673.75
1294.244415	673.75
1294.784942	669.25
1295.325412	671.5
1295.865826	672.75
1296.406184	670.5
1296.946486	671.25
1297.486731	672.5
1298.026921	672.25
1298.567054	675.25
1299.107131	671.25
1299.647152	672.5
1300.187116	673.25
1300.727025	669.5
1301.266877	670.75
1301.806673	672.75
1302.346413	670.75
1302.886097	672.25
1303.425725	672.5
1303.965297	670.5
1304.504812	671.5
1305.044272	673.0
1305.583675	673.75
1306.123022	672.25
1306.662313	669.5
1307.201548	672.5
1307.740727	675.0
1308.279849	672.75
1308.818916	667.75
1309.357926	670.5
1309.896881	668.25
1310.435779	672.75
1310.974621	671.25
1311.513407	671.25
1312.052137	675.0
1312.590811	669.75
1313.129429	670.75
1313.667991	672.0
1314.206497	670.0
1314.744946	672.0
1315.28334	671.5
1315.821678	672.25
1316.359959	671.5
1316.898184	670.25
1317.436354	673.0
1317.974467	670.5
1318.512525	671.25
1319.050526	671.75
1319.588471	673.5
1320.12636	672.0
1320.664194	672.25
1321.201971	672.25
1321.739692	669.25
1322.277357	670.5
1322.814967	670.75
1323.35252	671.75
1323.890017	677.25
1324.427458	669.75
1324.964843	667.0
1325.502173	668.5
1326.039446	670.25
1326.576663	671.75
1327.113824	669.25
1327.65093	672.5
1328.187979	672.5
1328.724972	670.0
1329.26191	672.25
1329.798791	667.75
1330.335617	672.25
1330.872386	671.25
1331.4091	673.0
1331.945758	670.5
1332.48236	669.5
1333.018905	667.25
1333.555395	669.25
1334.091829	670.0
1334.628207	676.0
1335.164529	669.5
1335.700796	670.25
1336.237006	671.5
1336.77316	671.0
1337.309259	669.75
1337.845301	672.75
1338.381288	669.0
1338.917219	668.75
1339.453094	674.5
1339.988913	669.5
1340.524676	670.5
1341.060383	672.5
1341.596034	670.75
1342.13163	671.0
1342.66717	672.25
1343.202653	671.25
1343.738081	670.25
1344.273453	668.75
1344.80877	669.0
1345.34403	669.75
1345.879235	672.5
1346.414383	674.25
1346.949476	671.75
1347.484513	669.0
1348.019494	670.25
1348.55442	669.75
1349.089289	669.0
1349.624103	671.5
1350.158861	665.75
1350.693563	672.75
1351.228209	673.75
1351.7628	672.75
1352.297334	671.5
1352.831813	672.25
1353.366236	673.75
1353.900604	684.25
1354.969171	672.25
1355.503371	674.0
1356.037515	671.25
1356.571604	671.0
1357.105636	671.25
1357.639613	670.0
1358.173535	672.0
1358.7074	674.0
1359.24121	670.25
1359.774964	667.75
1360.308662	669.0
1360.842304	671.0
1361.375891	668.75
1361.909422	668.75
1362.442897	670.75
1362.976317	673.75
1363.50968	670.75
1364.042989	667.75
1364.576241	668.5
1365.109438	671.75
1365.642579	669.0
1366.175664	671.5
1366.708693	670.0
1367.241667	671.25
1367.774585	670.0
1368.307448	671.75
1368.840255	671.25
1369.373006	671.5
1369.905701	670.75
1370.438341	675.5
1370.970925	677.75
1371.503454	671.75
1372.035926	669.25
1372.568344	668.25
1373.100705	673.75
1373.633011	673.25
1374.165261	672.0
1374.697456	670.5
1375.229595	669.25
1375.761678	669.25
1376.293705	671.0
1376.825677	673.0
1377.357594	671.5
1377.889455	670.25
1378.42126	672.0
1378.953009	674.5
1379.484703	670.75
1380.016342	672.75
1380.547924	673.25
1381.079452	673.25
1381.610923	671.75
1382.142339	671.25
1382.673699	670.5
1383.205004	675.5
1383.736253	672.0
1384.267447	670.75
1384.798585	672.0
1385.329668	672.25
1385.860695	677.0
1386.391666	678.0
1386.922582	682.0
1387.453442	691.75
1387.984247	733.0
1388.514996	857.5
1389.04569	890.75
1389.576328	745.0
1390.10691	690.0
1390.637437	678.75
1391.167909	675.25
1391.698325	673.25
1392.228685	671.25
1392.75899	673.5
1393.28924	671.0
1393.819434	675.25
1394.349572	672.5
1394.879655	671.0
1395.409683	673.0
1395.939655	671.5
1396.469571	672.5
1396.999432	672.0
1397.529237	671.5
1398.058987	672.0
1398.588682	672.5
1399.118321	672.0
1399.647905	669.75
1400.177433	673.25
1400.706906	674.75
1401.236323	674.0
1401.765685	669.0
1402.294991	670.75
1402.824242	671.75
1403.353437	670.75
1403.882577	666.75
1404.411662	673.25
1404.940691	669.25
1405.469665	670.75
1405.998583	673.5
1406.527446	672.0
1407.056253	670.25
1407.585005	670.0
1408.113702	673.25
1408.642343	673.75
1409.170929	677.75
1409.69946	678.0
1410.227935	686.0
1410.756354	682.25
1411.284719	677.0
1411.813028	674.0
1412.341281	672.25
1412.869479	670.75
1413.397622	671.75
1413.92571	671.25
1414.453742	667.5
1414.981718	669.75
1415.50964	683.25
1416.037506	670.25
1416.565316	671.25
1417.093072	672.5
1417.620772	669.5
1418.148416	670.0
1418.676005	669.25
1419.203539	669.5
1419.731018	670.25
1420.258441	668.0
1420.785809	670.5
1421.313122	669.25
1421.840379	669.0
1422.367582	669.75
1422.894728	669.25
1423.42182	669.75
1423.948856	672.25
1424.475837	671.75
1425.002762	668.0
1425.529633	670.75
1426.056448	671.5
1426.583207	670.0
1427.109912	673.5
1427.636561	668.0
1428.163155	671.5
1428.689694	668.5
1429.216177	671.25
1429.742605	669.0
1430.268978	671.5
1430.795296	672.0
1431.321558	669.0
1431.847765	666.25
1432.373917	671.0
1432.900014	667.25
1433.426056	672.25
1433.952042	668.25
1434.477973	670.75
1435.003849	673.0
1435.529669	668.75
1436.055435	669.75
1436.581145	669.75
1437.1068	670.5
1437.632399	668.75
1438.157944	669.75
1438.683433	669.0
1439.208868	670.0
1439.734247	669.75
1440.25957	668.25
1440.784839	671.0
1441.310053	668.0
1441.835211	669.5
1442.360314	671.75
1442.885362	669.0
1443.410355	671.0
1443.935292	671.75
1444.460175	672.5
1444.985002	670.5
1445.509774	670.5
1446.034491	672.75
1446.559153	670.5
1447.08376	672.0
1447.608312	670.0
1448.132808	672.75
1448.65725	672.0
1449.181636	672.5
1449.705967	669.25
1450.230243	670.5
1450.754464	672.25
1451.27863	671.5
1451.802741	671.0
1452.326797	670.5
1452.850797	672.0
1453.374743	666.75
1453.898633	673.75
1454.422468	671.5
1454.946249	671.0
1455.469974	668.75
1455.993644	671.5
1456.517259	669.5
1457.040819	671.75
1457.564324	669.25
1458.087773	670.25
1458.611168	671.25
1459.134508	668.75
1459.657793	668.0
1460.181022	671.75
1460.704197	673.25
1461.227316	670.5
1461.750381	670.0
1462.27339	675.0
1462.796345	689.25
1463.319244	686.75
1463.842089	670.75
1464.364878	667.25
1464.887613	669.5
1465.410292	670.25
1465.932916	667.75
1466.455486	669.0
1466.978	671.0
1467.50046	672.5
1468.022864	670.0
1468.545214	671.0
1469.067508	670.25
1469.589748	670.0
1470.111932	672.25
1470.634062	670.5
1471.156136	670.25
1471.678156	668.5
1472.20012	671.0
1472.72203	672.25
1473.243885	669.75
1473.765685	671.25
1474.28743	669.75
1474.80912	669.0
1475.330755	668.75
1475.852335	668.25
1476.37386	667.0
1476.89533	668.0
1477.416745	668.5
1477.938106	672.25
1478.459411	667.5
1478.980662	671.5
1479.501857	666.5
1480.022998	669.25
1480.544084	669.75
1481.065115	670.0
1481.586091	669.5
1482.107012	670.75
1482.627878	669.5
1483.14869	670.5
1483.669446	670.0
1484.190148	669.5
1484.710794	669.25
1485.231386	670.0
1485.751923	669.0
1486.272406	665.0
1486.792833	668.0
1487.313205	669.25
1487.833523	671.0
1488.353786	670.5
1488.873994	667.75
1489.394147	668.5
1489.914245	666.25
1490.434288	672.25
1490.954277	670.25
1491.474211	670.0
1491.99409	672.25
1492.513914	673.25
1493.033683	670.25
1493.553398	667.75
1494.073057	669.75
1494.592662	669.0
1495.112212	669.75
1495.631708	669.0
1496.151148	667.5
1496.670534	670.75
1497.189865	669.5
1497.709141	668.5
1498.228362	668.75
1498.747529	666.75
1499.266641	669.0
1499.785698	675.25
1500.3047	669.25
1500.823648	671.5
1501.34254	668.5
1501.861379	669.5
1502.380162	667.25
1502.89889	669.0
1503.417564	670.0
1503.936183	668.75
1504.454748	669.75
1504.973257	667.0
1505.491712	667.5
1506.010112	669.5
1506.528458	668.25
1507.046748	670.0
1507.564984	667.75
1508.083166	670.5
1508.601292	667.5
1509.119364	668.25
1509.637381	669.0
1510.155344	669.5
1510.673252	682.0
1511.191105	668.75
1511.708903	669.0
1512.226647	670.5
1512.744336	669.25
1513.261971	671.75
1513.77955	665.25
1514.297076	672.5
1514.814546	667.5
1515.331962	665.75
1515.849323	668.5
1516.366629	670.5
1516.883881	669.5
1517.401078	669.5
1517.918221	669.0
1518.435309	669.75
1518.952342	669.5
1519.469321	667.75
1519.986245	670.0
1520.503114	667.5
1521.019929	669.25
1521.536689	666.5
1522.053395	670.0
1522.570046	667.75
1523.086642	668.5
1523.603184	668.25
1524.119671	668.0
1524.636103	668.5
1525.152481	666.0
1525.668805	675.5
1526.185073	682.75
1526.701288	673.25
1527.217447	669.75
1527.733552	671.75
1528.249603	666.5
1528.765599	666.75
1529.28154	668.25
1529.797427	669.25
1530.313259	668.0
1530.829037	668.75
1531.34476	665.75
1531.860429	670.25
1532.376043	666.25
1532.891602	670.25
1533.407107	668.5
1533.922558	670.0
1534.437954	666.25
1534.953295	671.75
1535.468582	667.0
1535.983815	669.5
1536.498993	671.5
1537.014116	667.0
1537.529185	668.25
1538.044199	670.5
1538.559159	668.0
1539.074064	670.0
1539.588915	667.25
1540.103712	669.75
1540.618454	668.5
1541.133141	669.75
1541.647774	670.0
1542.162353	669.0
1542.676877	669.25
1543.191346	671.25
1543.705761	668.0
1544.220122	669.0
1544.734428	666.25
1545.24868	668.5
1545.762877	668.75
1546.27702	669.0
1546.791109	667.25
1547.305143	666.25
1547.819122	669.75
1548.333047	668.75
1548.846918	669.75
1549.360734	672.0
1549.874496	670.25
1550.388204	670.5
1550.901857	667.0
1551.415455	670.5
1551.929	670.5
1552.442489	670.25
1552.955925	667.75
1553.469306	671.25
1553.982632	669.0
1554.495905	666.25
1555.009123	667.75
1555.522286	668.75
1556.035395	671.25
1556.54845	664.75
1557.06145	668.75
1557.574396	671.0
1558.087288	670.0
1558.600125	666.5
1559.112908	666.75
1559.625637	667.75
1560.138311	668.25
1560.650931	669.75
1561.163497	671.5
1561.676008	670.0
1562.188465	666.5
1562.700867	668.5
1563.213216	670.0
1563.725509	668.25
1564.237749	670.0
1564.749934	668.0
1565.262065	670.5
1565.774142	668.75
1566.286164	668.5
1566.798132	668.5
1567.310046	671.5
1567.821906	667.75
1568.333711	669.25
1568.845462	669.5
1569.357158	673.0
1569.868801	670.75
1570.380389	671.25
1570.891922	668.25
1571.403402	669.25
1571.914827	669.0
1572.426198	669.5
1572.937515	668.75
1573.448777	670.0
1573.959985	666.5
1574.471139	669.75
1574.982239	665.5
1575.493285	666.0
1576.004276	670.5
1576.515213	668.5
1577.026096	666.0
1577.536924	668.75
1578.047698	667.5
1578.558419	666.75
1579.069084	669.25
1579.579696	667.25
1580.090254	665.0
1580.600757	668.75
1581.111206	667.5
1581.621601	665.75
1582.131941	667.0
1582.642228	668.25
1583.15246	668.75
1583.662638	671.25
1584.172762	666.5
1584.682832	668.0
1585.192847	668.75
1585.702809	669.75
1586.212716	666.5
1586.722569	668.75
1587.232368	668.0
1587.742113	671.25
1588.251803	668.0
1588.76144	668.5
1589.271022	668.75
1589.78055	668.0
1590.290024	669.0
1590.799444	666.75
1591.30881	670.0
1591.818121	669.25
1592.327379	666.25
