1042.414189	697.4000244
1042.980685	693.7999878
1043.547124	695.5999756
1044.113505	693.7999878
1044.679828	690.7999878
1045.246093	691.7999878
1045.8123	691.2000122
1046.378449	692.2000122
1046.94454	687.5999756
1047.510573	687.5999756
1048.076548	686.4000244
1048.642465	689.2000122
1049.208325	686.5999756
1049.774126	685.0
1050.339869	684.7999878
1050.905555	683.2000122
1051.471183	677.7999878
1052.036752	684.0
1052.602264	684.5999756
1053.167718	680.2000122
1053.733114	684.0
1054.298452	682.2000122
1054.863733	681.2000122
1055.428955	681.2000122
1055.994119	681.2000122
1056.559226	679.0
1057.124275	679.0
1057.689266	681.4000244
1058.254199	677.2000122
1058.819074	679.2000122
1059.383891	679.2000122
1059.94865	679.7999878
1060.513352	678.0
1061.077996	677.2000122
1061.642582	675.2000122
1062.20711	678.7999878
1062.77158	676.0
1063.335992	680.7999878
1063.900347	678.5999756
1064.464643	677.5999756
1065.028882	675.0
1065.593063	676.4000244
1066.157187	676.0
1066.721252	675.5999756
1067.28526	677.7999878
1067.84921	677.7999878
1068.413102	678.4000244
1068.976936	679.0
1069.540713	680.4000244
1070.104431	680.5999756
1070.668092	675.2000122
1071.231696	675.5999756
1071.795241	676.0
1072.358729	680.0
1072.922159	677.4000244
1073.485531	679.0
1074.048845	675.5999756
1074.612102	676.2000122
1075.175301	675.0
1075.738442	677.0
1076.301525	674.5999756
1076.864551	679.0
1077.427519	674.2000122
1077.990429	674.2000122
1079.116076	693.7999878
1079.678813	678.4000244
1080.241492	675.5999756
1080.804114	676.2000122
1081.366678	676.4000244
1081.929184	675.4000244
1082.491633	676.4000244
1083.054024	678.0
1083.616357	675.4000244
1084.178632	679.7999878
1084.74085	678.5999756
1085.30301	675.4000244
1085.865113	678.4000244
1086.427158	676.2000122
1086.989145	678.0
1087.551074	676.2000122
1088.112946	674.5999756
1088.67476	676.5999756
1089.236517	675.5999756
1089.798216	674.0
1090.359857	680.0
1090.92144	678.7999878
1091.482966	677.7999878
1092.044435	678.0
1092.605845	676.2000122
1093.167199	680.0
1093.728494	677.5999756
1094.289732	678.4000244
1094.850912	674.7999878
1095.412035	690.4000244
1095.9731	676.2000122
1096.534107	676.0
1097.095057	683.5999756
1097.65595	676.4000244
1098.216784	675.7999878
1098.777561	677.2000122
1099.338281	677.0
1099.898943	676.2000122
1100.459547	676.7999878
1101.020094	675.4000244
1101.580584	674.5999756
1102.141015	674.2000122
1102.701389	674.4000244
1103.261706	675.0
1103.821965	673.5999756
1104.382167	676.5999756
1104.942311	675.4000244
1105.502397	676.5999756
1106.062426	675.5999756
1106.622398	675.0
1107.182312	674.2000122
1107.742168	674.7999878
1108.301967	676.0
1108.861708	674.7999878
1109.421392	675.7999878
1109.981019	675.0
1110.540587	673.5999756
1111.100099	677.0
1111.659553	677.5999756
1112.218949	674.5999756
1112.778288	673.0
1113.33757	677.7999878
1113.896794	677.0
1114.45596	675.7999878
1115.015069	670.7999878
1115.574121	677.5999756
1116.133115	673.5999756
1116.692052	675.0
1117.250931	674.5999756
1117.809753	674.2000122
1118.368517	675.0
1118.927224	676.0
1119.485873	675.4000244
1120.044465	674.2000122
1120.603	675.4000244
1121.161477	671.4000244
1121.719897	677.0
1122.278259	674.4000244
1122.836564	674.2000122
1123.394812	675.0
1123.953002	674.5999756
1124.511135	676.2000122
1125.06921	677.7999878
1125.627228	674.4000244
1126.185189	675.7999878
1126.743092	675.5999756
1127.300938	674.5999756
1127.858726	674.0
1128.416457	673.7999878
1128.974131	675.2000122
1129.531748	676.4000244
1130.089307	674.0
1130.646808	673.0
1131.204252	678.4000244
1131.761639	673.0
1132.318969	676.4000244
1132.876241	673.2000122
1133.433456	672.5999756
1133.990614	676.4000244
1134.547714	673.5999756
1135.104757	678.5999756
1135.661743	675.0
1136.218671	677.0
1136.775542	674.5999756
1137.332356	672.5999756
1137.889112	676.0
1138.445811	674.7999878
1139.002453	674.4000244
1139.559037	674.7999878
1140.115565	672.0
1140.672035	674.2000122
1141.228447	675.0
1141.784803	676.7999878
1142.341101	674.4000244
1142.897342	678.4000244
1143.453525	675.0
1144.009651	673.7999878
1144.565721	675.0
1145.121732	673.0
1145.677687	673.2000122
1146.233584	674.7999878
1146.789424	674.2000122
1147.345207	673.4000244
1147.900933	675.2000122
1148.456601	675.7999878
1149.012212	676.5999756
1149.567766	676.0
1150.123263	676.5999756
1150.678702	674.2000122
1151.234085	676.4000244
1151.78941	672.2000122
1152.344678	675.0
1152.899888	675.2000122
1153.455042	676.0
1154.010138	675.7999878
1154.565177	674.0
1155.120159	675.2000122
1155.675084	674.7999878
1156.229951	675.4000244
1156.784762	676.7999878
1157.339515	672.7999878
1157.894211	677.0
1158.44885	675.2000122
1159.003432	676.7999878
1159.557956	675.7999878
1160.112424	675.5999756
1160.666834	676.0
1161.221187	676.5999756
1161.775483	676.5999756
1162.329722	676.0
1162.883904	678.2000122
1163.438029	676.2000122
1163.992096	677.0
1164.546107	675.7999878
1165.10006	677.4000244
1165.653956	675.7999878
1166.207795	672.7999878
1166.761577	672.5999756
1167.315302	677.0
1167.86897	672.0
1168.422581	678.5999756
1168.976134	676.4000244
1169.529631	676.4000244
1170.08307	673.0
1170.636453	677.0
1171.189778	675.4000244
1171.743046	673.7999878
1172.296257	675.2000122
1172.849412	676.5999756
1173.402509	676.4000244
1173.955549	675.5999756
1174.508532	675.4000244
1175.061458	676.5999756
1175.614327	675.0
1176.167138	673.7999878
1176.719893	675.5999756
1177.272591	678.2000122
1177.825232	672.0
1178.377816	674.7999878
1178.930342	676.7999878
1179.482812	676.5999756
1180.035225	677.0
1180.587581	675.5999756
1181.139879	678.2000122
1181.692121	671.7999878
1182.244306	679.4000244
1182.796434	675.4000244
1183.348504	675.2000122
1183.900518	679.5999756
1184.452475	675.4000244
1185.004375	676.0
1185.556218	674.0
1186.108004	672.7999878
1186.659733	673.7999878
1187.211405	674.2000122
1187.76302	675.2000122
1188.314578	676.2000122
1188.866079	674.7999878
1189.417523	678.4000244
1189.96891	676.2000122
1190.520241	677.4000244
1191.071514	677.4000244
1191.622731	675.2000122
1192.17389	672.5999756
1192.724993	673.5999756
1193.276039	695.0
1193.827027	677.2000122
1194.377959	674.2000122
1194.928834	675.2000122
1195.479653	677.5999756
1196.030414	676.2000122
1196.581118	676.5999756
1197.131766	675.7999878
1197.682356	676.5999756
1198.23289	676.7999878
1198.783367	675.4000244
1199.333786	676.7999878
1199.88415	672.5999756
1200.434456	675.2000122
1200.984705	677.7999878
1201.534898	677.2000122
1202.085033	674.4000244
1202.635112	674.7999878
1203.185134	678.7999878
1203.735099	677.4000244
1204.285007	675.7999878
1204.834859	675.7999878
1205.384653	678.0
1205.934391	674.7999878
1206.484072	676.2000122
1207.033696	678.0
1207.583263	675.5999756
1208.132774	676.0
1208.682228	678.2000122
1209.231624	679.7999878
1209.780965	675.2000122
1210.330248	676.5999756
1210.879474	676.0
1211.428644	677.0
1211.977757	677.0
1212.526813	676.2000122
1213.075813	675.2000122
1213.624755	676.4000244
1214.173641	676.4000244
1214.72247	677.0
1215.271242	676.5999756
1215.819958	673.0
1216.368617	676.2000122
1216.917219	676.2000122
1217.465764	676.2000122
1218.014253	677.2000122
1218.562685	675.2000122
1219.11106	676.2000122
1219.659378	676.4000244
1220.20764	677.4000244
1220.755845	677.0
1221.303993	673.5999756
1221.852085	673.2000122
1222.400119	676.7999878
1222.948097	673.0
1223.496019	677.4000244
1224.043883	674.5999756
1224.591691	678.5999756
1225.139443	677.0
1225.687137	677.5999756
1226.234775	677.7999878
1226.782357	676.0
1227.329881	679.4000244
1227.877349	677.5999756
1228.42476	675.2000122
1228.972115	676.2000122
1229.519413	676.7999878
1230.066654	676.7999878
1230.613839	676.2000122
1231.160967	677.2000122
1231.708038	678.5999756
1232.255053	678.0
1232.802011	676.7999878
1233.348912	675.2000122
1233.895757	678.4000244
1234.442545	677.4000244
1234.989277	674.0
1235.535951	674.7999878
1236.08257	676.5999756
1236.629131	680.0
1237.175636	677.0
1237.722085	677.7999878
1238.268477	673.7999878
1238.814812	677.5999756
1239.361091	677.2000122
1239.907313	677.5999756
1240.453478	676.4000244
1240.999587	675.2000122
1241.54564	676.5999756
1242.091636	675.2000122
1242.637575	677.7999878
1243.183457	675.0
1243.729284	677.5999756
1244.275053	677.5999756
1244.820766	681.4000244
1245.366423	676.7999878
1245.912022	679.2000122
1246.457566	679.7999878
1247.003053	678.2000122
1247.548483	679.4000244
1248.093857	677.2000122
1248.639174	677.0
1249.184435	682.0
1249.729639	682.2000122
1250.274787	678.7999878
1250.819878	680.0
1251.364912	676.5999756
1251.909891	677.2000122
1252.454812	678.0
1252.999677	677.0
1253.544486	678.0
1254.089238	678.5999756
1254.633934	680.2000122
1255.178573	679.5999756
1255.723156	677.7999878
1256.267682	679.7999878
1256.812152	681.7999878
1257.356565	684.5999756
1257.900922	686.5999756
1258.445223	678.7999878
1258.989467	680.2000122
1259.533654	683.2000122
1260.077785	697.5999756
1260.62186	685.2000122
1261.165878	689.2000122
1261.70984	693.4000244
1262.253745	694.0
1262.797594	691.4000244
1263.341386	692.5999756
1263.885123	689.0
1264.428802	690.4000244
1264.972425	685.2000122
1265.515992	684.2000122
1266.059503	686.0
1266.602957	685.0
1267.146354	678.5999756
1267.689696	681.7999878
1268.23298	681.5999756
1268.776209	680.7999878
1269.319381	681.7999878
1269.862497	681.2000122
1270.405556	684.5999756
1270.948559	682.4000244
1271.491506	682.7999878
1272.034396	681.7999878
1272.57723	681.5999756
1273.120007	679.4000244
1273.662728	681.7999878
1274.205393	681.4000244
1274.748002	684.7999878
1275.290554	683.4000244
1275.83305	686.2000122
1276.375489	684.5999756
1276.917872	689.2000122
1277.460199	684.0
1278.00247	689.4000244
1278.544684	689.0
1279.086842	693.2000122
1279.628943	701.4000244
1280.170989	704.5999756
1280.712978	718.5999756
1281.25491	758.7999878
1281.796787	833.0
1282.338607	955.2000122
1282.880371	1006.400024
1283.422078	941.5999756
1283.963729	823.4000244
1284.505324	754.4000244
1285.046863	720.7999878
1285.588345	706.4000244
1286.129772	696.7999878
1286.671142	691.2000122
1287.212455	690.2000122
1287.753713	685.4000244
1288.294914	686.0
1288.836059	686.4000244
1289.377147	688.7999878
1289.91818	683.5999756
1290.459156	685.2000122
1291.000076	682.4000244
1291.54094	685.7999878
1292.081747	683.7999878
1292.622499	682.0
1293.163194	681.5999756
1293.703833	681.7999878
1294.244415	685.0
1294.784942	678.2000122
1295.325412	683.4000244
1295.865826	681.0
1296.406184	679.5999756
1296.946486	678.5999756
1297.486731	679.2000122
1298.026921	678.2000122
1298.567054	679.2000122
1299.107131	680.5999756
1299.647152	685.2000122
1300.187116	682.5999756
1300.727025	682.2000122
1301.266877	681.0
1301.806673	678.5999756
1302.346413	680.4000244
1302.886097	681.4000244
1303.425725	682.4000244
1303.965297	682.2000122
1304.504812	682.5999756
1305.044272	676.4000244
1305.583675	678.2000122
1306.123022	681.7999878
1306.662313	679.5999756
1307.201548	678.7999878
1307.740727	679.5999756
1308.279849	678.7999878
1308.818916	680.4000244
1309.357926	679.5999756
1309.896881	679.0
1310.435779	678.0
1310.974621	677.5999756
1311.513407	677.0
1312.052137	677.0
1312.590811	677.0
1313.129429	679.5999756
1313.667991	677.4000244
1314.206497	678.4000244
1314.744946	678.7999878
1315.28334	678.7999878
1315.821678	677.5999756
1316.359959	675.4000244
1316.898184	678.0
1317.436354	678.5999756
1317.974467	679.0
1318.512525	678.5999756
1319.050526	681.7999878
1319.588471	676.4000244
1320.12636	680.4000244
1320.664194	676.7999878
1321.201971	677.7999878
1321.739692	678.2000122
1322.277357	679.0
1322.814967	678.5999756
1323.35252	676.2000122
1323.890017	685.0
1324.427458	679.5999756
1324.964843	679.0
1325.502173	679.0
1326.039446	679.4000244
1326.576663	678.4000244
1327.113824	677.7999878
1327.65093	680.2000122
1328.187979	681.0
1328.724972	678.2000122
1329.26191	681.7999878
1329.798791	677.2000122
1330.335617	677.4000244
1330.872386	675.5999756
1331.4091	679.0
1331.945758	676.5999756
1332.48236	680.2000122
1333.018905	681.0
1333.555395	680.5999756
1334.091829	680.4000244
1334.628207	678.0
1335.164529	678.4000244
1335.700796	679.0
1336.237006	679.2000122
1336.77316	678.2000122
1337.309259	678.5999756
1337.845301	680.0
1338.381288	681.0
1338.917219	676.5999756
1339.453094	679.2000122
1339.988913	678.2000122
1340.524676	679.4000244
1341.060383	683.0
1341.596034	680.0
1342.13163	675.7999878
1342.66717	679.4000244
1343.202653	679.5999756
1343.738081	679.4000244
1344.273453	679.2000122
1344.80877	678.7999878
1345.34403	680.7999878
1345.879235	683.2000122
1346.414383	680.4000244
1346.949476	676.0
1347.484513	680.4000244
1348.019494	677.4000244
1348.55442	679.4000244
1349.089289	676.0
1349.624103	676.0
1350.158861	680.2000122
1350.693563	677.2000122
1351.228209	680.4000244
1351.7628	682.4000244
1352.297334	681.0
1352.831813	675.0
1353.366236	678.4000244
1353.900604	681.0
1354.434915	677.5999756
1354.969171	680.7999878
1355.503371	678.7999878
1356.037515	681.0
1356.571604	678.2000122
1357.105636	679.2000122
1357.639613	680.0
1358.173535	680.5999756
1358.7074	677.0
1359.24121	680.7999878
1359.774964	678.5999756
1360.308662	679.5999756
1360.842304	681.2000122
1361.375891	675.4000244
1361.909422	678.2000122
1362.442897	679.4000244
1362.976317	681.4000244
1363.50968	679.0
1364.042989	681.0
1364.576241	683.2000122
1365.109438	680.0
1365.642579	681.5999756
1366.175664	685.0
1366.708693	680.4000244
1367.241667	679.4000244
1367.774585	680.2000122
1368.307448	680.2000122
1368.840255	679.2000122
1369.373006	690.4000244
1369.905701	693.2000122
1370.438341	685.5999756
1370.970925	685.2000122
1371.503454	685.2000122
1372.035926	684.7999878
1372.568344	681.4000244
1373.100705	686.0
1373.633011	682.2000122
1374.165261	685.4000244
1374.697456	683.5999756
1375.229595	686.5999756
1375.761678	686.4000244
1376.293705	684.2000122
1376.825677	684.7999878
1377.357594	686.4000244
1377.889455	683.0
1378.42126	682.7999878
1378.953009	685.5999756
1379.484703	686.7999878
1380.016342	686.5999756
1380.547924	688.2000122
1381.079452	691.5999756
1381.610923	692.0
1382.142339	691.2000122
1382.673699	693.5999756
1383.205004	698.0
1383.736253	704.0
1384.267447	708.0
1384.798585	725.0
1385.329668	750.5999756
1385.860695	794.0
1386.391666	936.0
1386.922582	1194.0
1387.453442	1367.400024
1387.984247	1150.400024
1388.514996	910.5999756
1389.04569	789.2000122
1389.576328	741.0
1390.10691	720.7999878
1390.637437	706.0
1391.167909	707.4000244
1391.698325	697.7999878
1392.228685	694.4000244
1392.75899	687.2000122
1393.28924	694.7999878
1393.819434	690.5999756
1394.349572	685.5999756
1394.879655	687.5999756
1395.409683	684.5999756
1395.939655	685.2000122
1396.469571	685.4000244
1396.999432	685.2000122
1397.529237	682.5999756
1398.058987	684.5999756
1398.588682	684.4000244
1399.118321	687.7999878
1399.647905	685.2000122
1400.177433	685.7999878
1400.706906	682.7999878
1401.236323	684.0
1401.765685	683.5999756
1402.294991	687.4000244
1402.824242	682.2000122
1403.353437	685.2000122
1403.882577	688.7999878
1404.411662	685.7999878
1404.940691	689.5999756
1405.469665	689.0
1405.998583	690.7999878
1406.527446	690.7999878
1407.056253	699.0
1407.585005	701.0
1408.113702	705.0
1408.642343	709.7999878
1409.170929	706.4000244
1409.69946	702.0
1410.227935	697.5999756
1410.756354	695.7999878
1411.284719	689.4000244
1411.813028	688.5999756
1412.341281	687.4000244
1412.869479	684.4000244
1413.397622	684.5999756
1413.92571	684.2000122
1414.453742	682.4000244
1414.981718	680.7999878
1415.50964	692.2000122
1416.037506	681.7999878
1416.565316	680.7999878
1417.093072	676.4000244
1417.620772	679.2000122
1418.148416	679.5999756
1418.676005	679.7999878
1419.203539	678.2000122
1419.731018	680.0
1420.258441	678.7999878
1420.785809	679.7999878
1421.313122	677.4000244
1421.840379	679.7999878
1422.367582	681.2000122
1422.894728	677.2000122
1423.42182	679.0
1423.948856	679.7999878
1424.475837	677.2000122
1425.002762	678.0
1425.529633	680.4000244
1426.056448	681.2000122
1426.583207	678.2000122
1427.109912	681.5999756
1427.636561	678.5999756
1428.163155	683.0
1428.689694	679.4000244
1429.216177	679.5999756
1429.742605	680.2000122
1430.268978	679.7999878
1430.795296	675.4000244
1431.321558	677.4000244
1431.847765	676.4000244
1432.373917	675.5999756
1432.900014	677.2000122
1433.426056	677.4000244
1433.952042	676.0
1434.477973	677.4000244
1435.003849	677.4000244
1435.529669	679.0
1436.055435	677.5999756
1436.581145	676.4000244
1437.1068	677.4000244
1437.632399	678.2000122
1438.157944	678.2000122
1438.683433	678.2000122
1439.208868	676.2000122
1439.734247	679.5999756
1440.25957	676.2000122
1440.784839	677.0
1441.310053	681.4000244
1441.835211	677.4000244
1442.360314	678.2000122
1442.885362	677.5999756
1443.410355	678.0
1443.935292	677.0
1444.460175	675.4000244
1444.985002	678.5999756
1445.509774	679.0
1446.034491	674.0
1446.559153	675.0
1447.08376	680.5999756
1447.608312	678.5999756
1448.132808	677.5999756
1448.65725	674.4000244
1449.181636	678.0
1449.705967	680.5999756
1450.230243	676.5999756
1450.754464	677.7999878
1451.27863	678.7999878
1451.802741	678.7999878
1452.326797	676.4000244
1452.850797	675.4000244
1453.374743	677.0
1453.898633	676.4000244
1454.422468	677.0
1454.946249	674.5999756
1455.469974	680.0
1455.993644	675.5999756
1456.517259	677.2000122
1457.040819	675.5999756
1457.564324	675.7999878
1458.087773	678.7999878
1458.611168	676.5999756
1459.134508	676.5999756
1459.657793	678.4000244
1460.181022	675.5999756
1460.704197	676.2000122
1461.227316	678.0
1461.750381	676.4000244
1462.27339	679.0
1462.796345	695.2000122
1463.319244	696.0
1463.842089	678.5999756
1464.364878	673.0
1464.887613	679.5999756
1465.410292	677.2000122
1465.932916	678.5999756
1466.455486	676.2000122
1466.978	678.0
1467.50046	674.7999878
1468.022864	675.0
1468.545214	678.0
1469.067508	677.5999756
1469.589748	678.2000122
1470.111932	677.4000244
1470.634062	677.7999878
1471.156136	677.4000244
1471.678156	673.7999878
1472.20012	677.0
1472.72203	679.2000122
1473.243885	677.0
1473.765685	674.0
1474.28743	680.2000122
1474.80912	676.7999878
1475.330755	677.5999756
1475.852335	676.4000244
1476.37386	677.4000244
1476.89533	675.2000122
1477.416745	675.2000122
1477.938106	675.0
1478.459411	675.4000244
1478.980662	676.0
1479.501857	677.7999878
1480.022998	673.5999756
1480.544084	674.7999878
1481.065115	675.4000244
1481.586091	677.5999756
1482.107012	677.7999878
1482.627878	677.7999878
1483.14869	675.5999756
1483.669446	679.4000244
1484.190148	676.4000244
1484.710794	675.2000122
1485.231386	676.2000122
1485.751923	676.5999756
1486.272406	675.0
1486.792833	677.7999878
1487.313205	675.7999878
1487.833523	678.5999756
1488.353786	676.4000244
1488.873994	678.2000122
1489.394147	677.0
1489.914245	677.0
1490.434288	676.0
1490.954277	676.5999756
1491.474211	675.7999878
1491.99409	675.7999878
1492.513914	671.7999878
1493.033683	676.4000244
1493.553398	677.0
1494.073057	677.2000122
1494.592662	675.4000244
1495.112212	674.7999878
1495.631708	679.2000122
1496.151148	678.5999756
1496.670534	676.0
1497.189865	676.4000244
1497.709141	674.2000122
1498.228362	676.4000244
1498.747529	676.2000122
1499.266641	677.2000122
1499.785698	684.7999878
1500.3047	679.7999878
1500.823648	675.7999878
1501.34254	677.0
1501.861379	676.5999756
1502.380162	676.7999878
1502.89889	677.7999878
1503.417564	672.7999878
1503.936183	676.5999756
1504.454748	672.7999878
1504.973257	673.0
1505.491712	677.4000244
1506.010112	677.0
1506.528458	674.5999756
1507.046748	674.5999756
1507.564984	675.4000244
1508.083166	674.4000244
1508.601292	676.0
1509.119364	674.5999756
1509.637381	675.2000122
1510.155344	676.0
1510.673252	682.5999756
1511.191105	679.2000122
1511.708903	676.4000244
1512.226647	675.0
1512.744336	677.7999878
1513.261971	676.7999878
1513.77955	674.7999878
1514.297076	676.2000122
1514.814546	676.2000122
1515.331962	672.5999756
1515.849323	679.0
1516.366629	674.5999756
1516.883881	676.4000244
1517.401078	674.2000122
1517.918221	676.0
1518.435309	679.0
1518.952342	673.7999878
1519.469321	675.4000244
1519.986245	676.4000244
1520.503114	676.2000122
1521.019929	677.0
1521.536689	675.5999756
1522.053395	676.0
1522.570046	674.0
1523.086642	676.0
1523.603184	677.5999756
1524.119671	675.0
1524.636103	676.5999756
1525.152481	676.0
1525.668805	685.5999756
1526.185073	695.7999878
1526.701288	680.0
1527.217447	678.0
1527.733552	676.4000244
1528.249603	673.5999756
1528.765599	676.2000122
1529.28154	678.0
1529.797427	677.7999878
1530.313259	676.0
1530.829037	672.2000122
1531.34476	675.7999878
1531.860429	674.5999756
1532.376043	678.7999878
1532.891602	676.2000122
1533.407107	674.7999878
1533.922558	676.4000244
1534.437954	677.2000122
1534.953295	677.5999756
1535.468582	676.7999878
1535.983815	675.2000122
1536.498993	674.2000122
1537.014116	677.7999878
1537.529185	674.7999878
1538.044199	678.5999756
1538.559159	671.5999756
1539.074064	675.2000122
1539.588915	673.5999756
1540.103712	678.5999756
1540.618454	676.4000244
1541.133141	675.5999756
1541.647774	674.7999878
1542.162353	678.4000244
1542.676877	673.2000122
1543.191346	676.0
1543.705761	677.7999878
1544.220122	674.0
1544.734428	677.5999756
1545.24868	676.7999878
1545.762877	679.7999878
1546.27702	678.4000244
1546.791109	672.0
1547.305143	680.2000122
1547.819122	677.0
1548.333047	679.2000122
1548.846918	676.0
1549.360734	677.4000244
1549.874496	679.0
1550.388204	677.7999878
1550.901857	676.4000244
1551.415455	674.2000122
1551.929	676.5999756
1552.442489	676.7999878
1552.955925	676.2000122
1553.469306	677.0
1553.982632	677.5999756
1554.495905	675.5999756
1555.009123	675.7999878
1555.522286	677.0
1556.035395	676.4000244
1556.54845	677.7999878
1557.06145	678.4000244
1557.574396	678.7999878
1558.087288	677.7999878
1558.600125	677.2000122
1559.112908	678.2000122
1559.625637	673.7999878
1560.138311	677.7999878
1560.650931	676.4000244
1561.163497	677.0
1561.676008	675.5999756
1562.188465	677.0
1562.700867	675.2000122
1563.213216	675.7999878
1563.725509	677.0
1564.237749	678.5999756
1564.749934	676.7999878
1565.262065	677.2000122
1565.774142	678.2000122
1566.286164	678.5999756
1566.798132	678.2000122
1567.310046	676.5999756
1567.821906	681.4000244
1568.333711	678.2000122
1568.845462	677.7999878
1569.357158	678.7999878
1569.868801	676.2000122
1570.380389	679.7999878
1570.891922	675.5999756
1571.403402	676.0
1571.914827	680.0
1572.426198	674.7999878
1572.937515	674.4000244
1573.448777	676.0
1573.959985	677.0
1574.471139	680.5999756
1574.982239	675.4000244
1575.493285	676.0
1576.004276	677.2000122
1576.515213	677.4000244
1577.026096	679.0
1577.536924	676.7999878
1578.047698	680.7999878
1578.558419	677.4000244
1579.069084	678.5999756
1579.579696	677.0
1580.090254	678.0
1580.600757	677.2000122
1581.111206	677.5999756
1581.621601	677.0
1582.131941	678.5999756
1582.642228	678.2000122
1583.15246	678.4000244
1583.662638	677.5999756
1584.172762	678.2000122
1584.682832	674.2000122
1585.192847	676.0
1585.702809	678.2000122
1586.212716	677.0
1586.722569	678.0
1587.232368	679.2000122
1587.742113	673.4000244
1588.251803	675.5999756
1588.76144	679.0
1589.271022	678.7999878
1589.78055	677.0
1590.290024	673.5999756
1590.799444	674.7999878
1591.30881	675.5999756
1591.818121	674.7999878
1592.327379	679.2000122
