1042.414189	694.5
1042.980685	694.5
1043.547124	691.75
1044.113505	696.25
1044.679828	690.5
1045.246093	694.0
1046.378449	710.5
1046.94454	686.5
1047.510573	682.5
1048.076548	688.0
1048.642465	687.75
1049.208325	688.5
1049.774126	684.0
1050.339869	685.25
1050.905555	687.0
1051.471183	686.5
1052.036752	684.5
1052.602264	686.25
1053.167718	688.5
1053.733114	682.0
1054.298452	683.5
1054.863733	683.0
1055.428955	680.75
1055.994119	684.0
1056.559226	680.5
1057.124275	682.0
1057.689266	680.0
1058.254199	678.5
1058.819074	678.75
1059.383891	680.5
1059.94865	682.5
1060.513352	679.75
1061.077996	679.25
1061.642582	679.0
1062.20711	679.0
1062.77158	680.0
1063.335992	680.25
1063.900347	677.25
1064.464643	678.75
1065.028882	675.75
1065.593063	678.0
1066.157187	681.0
1066.721252	678.75
1067.28526	679.25
1067.84921	675.75
1068.413102	678.5
1068.976936	677.25
1069.540713	678.5
1070.104431	685.25
1070.668092	677.5
1071.231696	674.0
1071.795241	679.5
1072.358729	678.5
1072.922159	675.75
1073.485531	680.75
1074.048845	674.0
1074.612102	678.25
1075.175301	677.25
1075.738442	676.25
1076.301525	675.5
1076.864551	679.25
1077.427519	674.75
1077.990429	677.5
1078.553281	675.5
1079.116076	676.5
1079.678813	673.75
1080.241492	676.25
1080.804114	679.75
1081.366678	675.75
1081.929184	678.0
1082.491633	677.0
1083.054024	675.5
1083.616357	675.75
1084.178632	674.75
1084.74085	677.5
1085.30301	678.0
1085.865113	680.25
1086.427158	678.0
1086.989145	672.75
1087.551074	677.75
1088.112946	677.25
1088.67476	673.0
1089.236517	676.0
1089.798216	676.5
1090.359857	676.5
1090.92144	675.75
1091.482966	675.5
1092.044435	677.0
1092.605845	676.5
1093.167199	676.5
1093.728494	676.5
1094.289732	676.5
1094.850912	677.75
1095.412035	690.0
1095.9731	679.25
1096.534107	676.75
1097.095057	681.5
1097.65595	677.5
1098.216784	673.75
1098.777561	674.75
1099.338281	677.0
1099.898943	676.0
1100.459547	676.25
1101.020094	675.25
1101.580584	674.0
1102.141015	678.0
1102.701389	675.75
1103.261706	675.75
1103.821965	678.0
1104.382167	676.75
1104.942311	674.0
1105.502397	675.25
1106.062426	675.0
1106.622398	674.75
1107.182312	673.0
1107.742168	675.75
1108.301967	675.75
1108.861708	675.75
1109.421392	675.75
1109.981019	676.0
1110.540587	676.75
1111.100099	677.0
1111.659553	676.75
1112.218949	679.0
1112.778288	678.25
1113.33757	676.25
1113.896794	675.25
1114.45596	676.0
1115.015069	675.5
1115.574121	673.25
1116.133115	674.5
1116.692052	674.5
1117.250931	677.25
1117.809753	674.75
1118.368517	677.75
1118.927224	676.0
1119.485873	674.5
1120.044465	678.25
1120.603	674.25
1121.161477	674.75
1121.719897	676.0
1122.278259	674.5
1122.836564	676.5
1123.394812	675.25
1123.953002	675.5
1124.511135	674.25
1125.06921	675.5
1125.627228	677.5
1126.185189	681.25
1126.743092	673.0
1127.300938	675.25
1127.858726	678.0
1128.416457	675.75
1128.974131	676.25
1129.531748	674.75
1130.089307	677.5
1130.646808	675.5
1131.204252	675.5
1131.761639	676.75
1132.318969	677.0
1132.876241	673.0
1133.433456	674.25
1133.990614	674.75
1134.547714	676.5
1135.104757	677.75
1135.661743	675.5
1136.218671	677.5
1136.775542	675.0
1137.332356	676.25
1137.889112	677.25
1138.445811	678.0
1139.002453	676.25
1139.559037	674.5
1140.115565	675.5
1140.672035	678.5
1141.228447	672.5
1141.784803	674.5
1142.341101	676.75
1142.897342	676.75
1143.453525	680.25
1144.009651	678.75
1144.565721	676.75
1145.121732	678.0
1145.677687	675.75
1146.233584	677.5
1146.789424	676.5
1147.345207	677.0
1147.900933	674.75
1148.456601	675.5
1149.012212	676.5
1149.567766	679.0
1150.123263	681.5
1150.678702	681.25
1151.234085	677.25
1151.78941	680.25
1152.344678	676.75
1152.899888	676.75
1153.455042	676.5
1154.010138	675.5
1154.565177	676.5
1155.120159	676.5
1155.675084	676.0
1156.229951	677.0
1156.784762	677.75
1157.339515	680.75
1157.894211	674.75
1158.44885	674.0
1159.003432	676.0
1159.557956	675.75
1160.112424	675.5
1160.666834	675.5
1161.221187	677.0
1161.775483	676.5
1162.329722	677.75
1162.883904	675.5
1163.438029	675.0
1163.992096	675.5
1164.546107	677.75
1165.10006	677.5
1165.653956	676.25
1166.207795	673.5
1166.761577	676.5
1167.315302	674.75
1167.86897	674.75
1168.422581	674.75
1168.976134	677.0
1169.529631	674.0
1170.08307	676.75
1170.636453	675.5
1171.189778	673.75
1171.743046	676.75
1172.296257	674.25
1172.849412	679.75
1173.402509	676.75
1173.955549	673.0
1174.508532	675.5
1175.061458	672.75
1175.614327	675.75
1176.167138	675.25
1176.719893	673.25
1177.272591	672.25
1177.825232	673.75
1178.377816	675.5
1178.930342	678.25
1179.482812	671.0
1180.035225	679.5
1180.587581	678.0
1181.139879	671.5
1181.692121	671.75
1182.244306	672.25
1182.796434	677.0
1183.348504	671.0
1183.900518	674.25
1184.452475	673.5
1185.004375	676.5
1185.556218	675.0
1186.108004	677.5
1186.659733	673.0
1187.211405	676.0
1187.76302	670.0
1188.314578	673.0
1188.866079	678.0
1189.417523	677.25
1189.96891	674.0
1190.520241	676.25
1191.071514	675.25
1191.622731	674.75
1192.17389	675.25
1192.724993	673.25
1193.276039	697.75
1193.827027	673.0
1194.377959	673.25
1194.928834	674.75
1195.479653	672.25
1196.030414	675.25
1196.581118	677.25
1197.131766	675.5
1197.682356	672.0
1198.23289	680.75
1198.783367	671.75
1199.333786	674.5
1199.88415	674.25
1200.434456	674.25
1200.984705	674.0
1201.534898	672.25
1202.085033	674.5
1202.635112	674.25
1203.185134	675.25
1203.735099	676.75
1204.285007	675.25
1204.834859	680.0
1205.384653	671.5
1205.934391	676.25
1206.484072	673.5
1207.033696	672.5
1207.583263	676.5
1208.132774	675.5
1208.682228	673.25
1209.231624	675.0
1209.780965	674.75
1210.330248	673.75
1210.879474	678.25
1211.428644	676.5
1211.977757	676.75
1212.526813	677.5
1213.075813	680.5
1213.624755	674.5
1214.173641	677.5
1214.72247	675.75
1215.271242	675.75
1215.819958	674.25
1216.368617	673.75
1216.917219	674.75
1217.465764	675.75
1218.014253	675.0
1218.562685	671.25
1219.11106	676.75
1219.659378	676.25
1220.20764	676.25
1220.755845	674.25
1221.303993	672.75
1221.852085	670.5
1222.400119	676.5
1222.948097	675.0
1223.496019	676.5
1224.043883	677.0
1224.591691	675.25
1225.139443	675.0
1225.687137	676.75
1226.234775	674.0
1226.782357	676.25
1227.329881	676.75
1227.877349	674.25
1228.42476	674.5
1228.972115	675.0
1229.519413	676.0
1230.066654	676.75
1230.613839	672.5
1231.160967	674.0
1231.708038	675.5
1232.255053	677.25
1232.802011	675.0
1233.348912	676.0
1233.895757	675.75
1234.442545	675.25
1234.989277	678.5
1235.535951	674.0
1236.08257	677.0
1236.629131	675.25
1237.175636	675.5
1237.722085	677.25
1238.268477	673.5
1238.814812	675.25
1239.361091	674.5
1239.907313	678.75
1240.453478	674.5
1240.999587	677.25
1241.54564	677.0
1242.091636	674.0
1242.637575	673.5
1243.183457	672.75
1243.729284	673.0
1244.275053	673.5
1244.820766	676.75
1245.366423	674.0
1245.912022	674.75
1246.457566	675.25
1247.003053	673.5
1247.548483	674.75
1248.093857	678.0
1248.639174	676.75
1249.184435	676.5
1249.729639	672.25
1250.274787	672.75
1250.819878	676.75
1251.364912	674.5
1251.909891	669.75
1252.454812	674.75
1252.999677	675.25
1253.544486	674.25
1254.089238	675.5
1254.633934	674.75
1255.178573	674.0
1255.723156	674.0
1256.267682	673.75
1256.812152	674.75
1257.356565	675.75
1257.900922	675.0
1258.445223	674.75
1258.989467	675.75
1259.533654	677.5
1260.077785	689.0
1260.62186	674.0
1261.165878	676.0
1261.70984	676.5
1262.253745	681.25
1262.797594	681.5
1263.341386	683.25
1263.885123	688.5
1264.428802	692.0
1264.972425	692.0
1265.515992	687.25
1266.059503	681.5
1266.602957	681.75
1267.146354	676.0
1267.689696	676.25
1268.23298	678.5
1268.776209	675.25
1269.319381	676.25
1269.862497	673.25
1270.405556	673.25
1270.948559	676.5
1271.491506	675.0
1272.034396	676.5
1272.57723	673.25
1273.120007	676.25
1273.662728	674.25
1274.205393	672.5
1274.748002	677.75
1275.290554	675.25
1275.83305	672.75
1276.375489	674.5
1276.917872	679.5
1277.460199	676.0
1278.00247	675.25
1278.544684	678.75
1279.086842	678.25
1279.628943	678.5
1280.170989	678.25
1280.712978	681.0
1281.25491	685.25
1281.796787	691.5
1282.338607	704.5
1282.880371	722.75
1283.422078	775.25
1283.963729	852.0
1284.505324	938.75
1285.046863	943.0
1285.588345	848.0
1286.129772	748.5
1286.671142	710.5
1287.212455	692.25
1287.753713	688.25
1288.294914	682.25
1288.836059	679.5
1289.377147	678.25
1289.91818	680.0
1290.459156	678.0
1291.000076	678.5
1291.54094	676.75
1292.081747	676.75
1292.622499	676.0
1293.163194	675.5
1293.703833	674.25
1294.244415	672.75
1294.784942	671.75
1295.325412	672.0
1295.865826	672.75
1296.406184	677.5
1296.946486	674.5
1297.486731	671.75
1298.026921	672.25
1298.567054	676.25
1299.107131	677.25
1299.647152	674.0
1300.187116	674.5
1300.727025	672.5
1301.266877	674.5
1301.806673	673.75
1302.346413	675.0
1302.886097	676.75
1303.425725	673.0
1303.965297	676.5
1304.504812	672.75
1305.044272	674.25
1305.583675	673.0
1306.123022	674.0
1306.662313	674.0
1307.201548	674.25
1307.740727	672.75
1308.279849	672.0
1308.818916	673.5
1309.357926	671.0
1309.896881	675.0
1310.435779	671.25
1310.974621	673.0
1311.513407	672.0
1312.052137	672.75
1312.590811	674.75
1313.129429	673.0
1313.667991	673.0
1314.206497	672.25
1314.744946	672.0
1315.28334	674.0
1315.821678	671.25
1316.359959	671.0
1316.898184	674.5
1317.436354	674.5
1317.974467	674.75
1318.512525	668.0
1319.050526	668.75
1319.588471	673.25
1320.12636	673.0
1320.664194	673.5
1321.201971	670.5
1321.739692	674.0
1322.277357	673.5
1322.814967	673.5
1323.35252	674.0
1323.890017	680.75
1324.427458	669.25
1324.964843	671.5
1325.502173	671.5
1326.039446	674.5
1326.576663	671.75
1327.113824	672.25
1327.65093	671.25
1328.187979	673.5
1328.724972	676.0
1329.26191	671.75
1329.798791	671.75
1330.335617	670.0
1330.872386	674.0
1331.4091	674.0
1331.945758	674.0
1332.48236	675.25
1333.018905	675.0
1333.555395	674.25
1334.091829	669.75
1334.628207	675.5
1335.164529	674.75
1335.700796	671.0
1336.237006	672.25
1336.77316	672.25
1337.309259	677.5
1337.845301	673.0
1338.381288	672.0
1338.917219	671.0
1339.453094	675.0
1339.988913	668.75
1340.524676	674.75
1341.060383	670.75
1341.596034	672.25
1342.13163	672.0
1342.66717	673.5
1343.202653	673.25
1343.738081	672.75
1344.273453	673.75
1344.80877	672.25
1345.34403	675.0
1345.879235	672.75
1346.414383	674.25
1346.949476	674.75
1347.484513	673.5
1348.019494	672.5
1348.55442	673.0
1349.089289	672.5
1349.624103	668.75
1350.158861	672.25
1350.693563	672.5
1351.228209	672.75
1351.7628	673.5
1352.297334	673.75
1352.831813	671.0
1353.366236	678.0
1353.900604	670.75
1354.434915	674.75
1354.969171	673.5
1355.503371	673.75
1356.037515	670.5
1356.571604	673.0
1357.105636	675.5
1357.639613	669.75
1358.173535	672.5
1358.7074	671.5
1359.24121	674.0
1359.774964	674.25
1360.308662	674.0
1360.842304	673.0
1361.375891	672.75
1361.909422	672.75
1362.442897	673.25
1362.976317	672.25
1363.50968	676.5
1364.042989	671.25
1364.576241	670.5
1365.109438	676.5
1365.642579	675.25
1366.175664	677.5
1366.708693	672.75
1367.241667	675.75
1367.774585	674.5
1368.307448	674.5
1368.840255	674.75
1369.373006	675.0
1369.905701	680.25
1370.438341	686.25
1370.970925	679.25
1371.503454	679.5
1372.035926	675.25
1372.568344	675.75
1373.100705	676.5
1373.633011	678.0
1374.165261	677.0
1374.697456	676.5
1375.229595	674.0
1375.761678	672.0
1376.293705	675.25
1376.825677	674.0
1377.357594	671.0
1377.889455	674.25
1378.42126	672.75
1378.953009	676.25
1379.484703	677.5
1380.016342	679.5
1380.547924	681.75
1381.079452	677.5
1381.610923	677.25
1382.142339	678.5
1382.673699	677.0
1383.205004	678.5
1383.736253	684.5
1384.267447	685.0
1384.798585	687.5
1385.329668	691.5
1385.860695	700.75
1386.391666	720.75
1386.922582	760.5
1387.453442	855.0
1387.984247	1065.0
1388.514996	1263.25
1389.04569	1077.5
1389.576328	829.5
1390.10691	734.25
1390.637437	699.75
1391.167909	692.75
1391.698325	687.25
1392.228685	682.75
1392.75899	680.25
1393.28924	679.25
1393.819434	678.25
1394.349572	677.0
1394.879655	673.0
1395.409683	675.5
1395.939655	676.0
1396.469571	675.0
1396.999432	674.25
1397.529237	675.5
1398.058987	674.25
1398.588682	676.75
1399.118321	675.0
1399.647905	673.75
1400.177433	676.5
1400.706906	673.0
1401.236323	676.5
1401.765685	674.0
1402.294991	674.0
1402.824242	677.75
1403.353437	671.75
1403.882577	672.75
1404.411662	676.25
1404.940691	674.0
1405.469665	674.75
1405.998583	674.25
1406.527446	677.25
1407.056253	680.0
1407.585005	680.25
1408.113702	687.0
1408.642343	688.0
1409.170929	698.0
1409.69946	702.75
1410.227935	700.25
1410.756354	696.5
1411.284719	682.5
1411.813028	681.25
1412.341281	679.0
1412.869479	675.5
1413.397622	675.25
1413.92571	675.25
1414.453742	674.0
1414.981718	671.0
1415.50964	686.0
1416.037506	674.75
1416.565316	670.5
1417.093072	673.0
1417.620772	676.25
1418.148416	670.5
1418.676005	673.75
1419.203539	672.5
1419.731018	668.75
1420.258441	674.25
1420.785809	673.25
1421.313122	672.25
1421.840379	672.25
1422.367582	674.25
1422.894728	670.0
1423.42182	676.5
1423.948856	672.25
1424.475837	674.0
1425.002762	675.75
1425.529633	669.5
1426.056448	677.25
1426.583207	674.75
1427.109912	671.75
1427.636561	672.25
1428.163155	671.75
1428.689694	672.25
1429.216177	673.5
1429.742605	673.75
1430.268978	671.75
1430.795296	670.5
1431.321558	672.0
1431.847765	671.25
1432.373917	672.5
1432.900014	668.5
1433.426056	670.25
1433.952042	672.75
1434.477973	670.75
1435.003849	670.5
1435.529669	671.0
1436.055435	671.0
1436.581145	670.0
1437.1068	674.75
1437.632399	670.5
1438.157944	671.0
1438.683433	675.0
1439.208868	669.0
1439.734247	672.25
1440.25957	669.0
1440.784839	671.75
1441.310053	672.25
1441.835211	670.0
1442.360314	669.25
1442.885362	669.5
1443.410355	671.75
1443.935292	671.25
1444.460175	668.5
1444.985002	669.0
1445.509774	669.75
1446.034491	670.5
1446.559153	669.25
1447.08376	671.0
1447.608312	669.5
1448.132808	668.75
1448.65725	672.25
1449.181636	668.75
1449.705967	669.25
1450.230243	670.0
1450.754464	671.0
1451.27863	669.75
1451.802741	672.25
1452.326797	671.75
1452.850797	671.5
1453.374743	669.25
1453.898633	671.25
1454.422468	671.0
1454.946249	671.0
1455.469974	669.75
1455.993644	667.0
1456.517259	672.75
1457.040819	669.0
1457.564324	670.5
1458.087773	669.5
1458.611168	672.5
1459.134508	671.0
1459.657793	671.25
1460.181022	671.75
1460.704197	669.25
1461.227316	670.5
1461.750381	670.0
1462.27339	673.0
1462.796345	670.25
1463.319244	669.75
1463.842089	669.25
1464.364878	670.5
1464.887613	672.5
1465.410292	670.5
1465.932916	669.5
1466.455486	671.25
1466.978	670.0
1467.50046	671.25
1468.022864	670.5
1468.545214	669.75
1469.067508	669.25
1469.589748	669.5
1470.111932	673.75
1470.634062	671.0
1471.156136	667.75
1471.678156	668.25
1472.20012	671.25
1472.72203	670.25
1473.243885	671.0
1473.765685	672.5
1474.28743	668.75
1474.80912	671.5
1475.330755	671.5
1475.852335	669.25
1476.37386	671.75
1476.89533	669.5
1477.416745	673.0
1477.938106	670.0
1478.459411	670.75
1478.980662	671.5
1479.501857	671.75
1480.022998	671.25
1480.544084	672.0
1481.065115	671.0
1481.586091	668.0
1482.107012	670.0
1482.627878	668.0
1483.14869	671.25
1483.669446	670.75
1484.190148	666.75
1484.710794	670.0
1485.231386	672.5
1485.751923	669.75
1486.272406	670.25
1486.792833	667.5
1487.313205	672.25
1487.833523	667.75
1488.353786	668.75
1488.873994	669.25
1489.394147	669.25
1489.914245	668.75
1490.434288	669.0
1490.954277	668.0
1491.474211	669.75
1491.99409	669.5
1492.513914	666.5
1493.033683	673.0
1493.553398	673.75
1494.073057	670.0
1494.592662	669.0
1495.112212	668.5
1495.631708	667.75
1496.151148	669.0
1496.670534	671.25
1497.189865	669.25
1497.709141	669.0
1498.228362	671.25
1498.747529	669.25
1499.266641	670.0
1499.785698	674.75
1500.3047	670.25
1500.823648	670.5
1501.34254	670.25
1501.861379	669.5
1502.380162	669.75
1502.89889	668.0
1503.417564	668.5
1503.936183	669.0
1504.454748	670.25
1504.973257	664.0
1505.491712	669.75
1506.010112	667.25
1506.528458	674.0
1507.046748	667.5
1507.564984	669.0
1508.083166	669.5
1508.601292	665.5
1509.119364	668.75
1509.637381	669.75
1510.155344	669.5
1510.673252	676.25
1511.191105	668.75
1511.708903	671.25
1512.226647	670.0
1512.744336	665.25
1513.261971	670.75
1513.77955	671.5
1514.297076	667.0
1514.814546	670.0
1515.331962	669.5
1515.849323	670.0
1516.366629	669.25
1516.883881	667.25
1517.401078	669.75
1517.918221	671.0
1518.435309	667.5
1518.952342	664.75
1519.469321	668.75
1519.986245	666.25
1520.503114	666.75
1521.019929	667.0
1521.536689	671.25
1522.053395	667.0
1522.570046	666.5
1523.086642	668.75
1523.603184	667.0
1524.119671	667.75
1524.636103	670.75
1525.152481	664.5
1525.668805	666.25
1526.185073	671.25
1526.701288	666.75
1527.217447	668.5
1527.733552	667.5
1528.249603	670.5
1528.765599	669.5
1529.28154	670.5
1529.797427	672.75
1530.313259	665.75
1530.829037	667.25
1531.34476	669.5
1531.860429	669.75
1532.376043	669.0
1532.891602	668.5
1533.407107	668.0
1533.922558	668.75
1534.437954	666.0
1534.953295	669.75
1535.468582	669.0
1535.983815	669.0
1536.498993	666.25
1537.014116	666.75
1537.529185	667.0
1538.044199	670.75
1538.559159	669.0
1539.074064	670.25
1539.588915	669.0
1540.103712	667.25
1540.618454	666.25
1541.133141	668.75
1541.647774	667.75
1542.162353	669.5
1542.676877	667.75
1543.191346	666.5
1543.705761	669.0
1544.220122	666.75
1544.734428	667.0
1545.24868	669.0
1545.762877	669.5
1546.27702	667.25
1546.791109	667.5
1547.305143	670.0
1547.819122	669.75
1548.333047	669.0
1548.846918	668.75
1549.360734	670.5
1549.874496	667.5
1550.388204	667.25
1550.901857	666.75
1551.415455	669.5
1551.929	668.75
1552.442489	669.5
1552.955925	667.5
1553.469306	670.25
1553.982632	668.25
1554.495905	665.0
1555.009123	668.5
1555.522286	666.25
1556.035395	668.0
1556.54845	669.0
1557.06145	669.25
1557.574396	667.75
1558.087288	666.25
1558.600125	670.0
1559.112908	669.5
1559.625637	668.75
1560.138311	667.25
1560.650931	669.5
1561.163497	671.0
1561.676008	669.0
1562.188465	666.25
1562.700867	668.5
1563.213216	669.5
1563.725509	671.25
1564.237749	666.75
1564.749934	669.25
1565.262065	669.0
1565.774142	669.0
1566.286164	668.0
1566.798132	667.25
1567.310046	669.0
1567.821906	669.75
1568.333711	669.75
1568.845462	668.5
1569.357158	666.75
1569.868801	669.25
1570.380389	670.0
1570.891922	669.5
1571.403402	668.0
1571.914827	666.75
1572.426198	669.25
1572.937515	669.75
1573.448777	668.0
1573.959985	666.25
1574.471139	668.0
1574.982239	669.75
1575.493285	669.5
1576.004276	666.75
1576.515213	667.0
1577.026096	668.5
1577.536924	669.0
1578.047698	669.25
1578.558419	667.75
1579.069084	666.0
1579.579696	664.75
1580.090254	663.25
1580.600757	665.5
1581.111206	665.25
1581.621601	669.5
1582.131941	668.75
1582.642228	671.0
1583.15246	666.25
1583.662638	667.5
1584.172762	667.0
1584.682832	669.75
1585.192847	667.5
1585.702809	665.0
1586.212716	665.25
1586.722569	667.75
1587.232368	670.0
1587.742113	669.5
1588.251803	669.5
1588.76144	668.25
1589.271022	667.0
1589.78055	670.0
1590.290024	666.0
1590.799444	665.5
1591.30881	668.25
1591.818121	669.25
1592.327379	668.0
