1042.414189	709.5
1042.980685	709.25
1043.547124	705.25
1044.113505	707.75
1044.679828	704.75
1045.246093	706.0
1045.8123	705.0
1046.378449	704.25
1046.94454	702.0
1047.510573	701.0
1048.076548	705.75
1048.642465	699.75
1049.208325	701.5
1049.774126	700.5
1050.339869	700.75
1050.905555	700.25
1051.471183	694.5
1052.036752	696.0
1052.602264	699.25
1053.167718	697.75
1053.733114	698.5
1054.298452	693.0
1054.863733	697.25
1055.428955	694.0
1055.994119	696.0
1056.559226	694.0
1057.124275	694.5
1057.689266	693.5
1058.254199	689.75
1058.819074	694.75
1059.383891	689.5
1059.94865	695.75
1060.513352	694.25
1061.077996	690.25
1061.642582	693.75
1062.20711	690.5
1062.77158	693.5
1063.335992	689.5
1063.900347	692.25
1064.464643	690.0
1065.028882	691.75
1065.593063	692.5
1066.157187	695.25
1066.721252	688.5
1067.28526	686.25
1067.84921	691.75
1068.413102	688.0
1068.976936	692.75
1069.540713	696.5
1070.104431	704.0
1070.668092	690.75
1071.231696	692.75
1071.795241	690.5
1072.358729	691.25
1072.922159	692.75
1073.485531	687.0
1074.048845	692.25
1074.612102	694.0
1075.175301	690.25
1075.738442	692.25
1076.301525	690.75
1076.864551	692.0
1077.427519	686.0
1077.990429	691.75
1078.553281	690.25
1079.116076	690.5
1079.678813	691.25
1080.241492	688.25
1080.804114	689.0
1081.366678	690.75
1081.929184	690.5
1082.491633	695.5
1083.054024	691.5
1083.616357	691.25
1084.178632	692.75
1084.74085	690.75
1085.30301	690.25
1085.865113	689.75
1086.427158	687.5
1086.989145	692.25
1087.551074	690.25
1088.112946	691.75
1088.67476	688.0
1089.236517	691.0
1089.798216	689.5
1090.359857	689.25
1090.92144	691.0
1091.482966	691.5
1092.044435	693.25
1092.605845	693.0
1093.167199	689.5
1093.728494	687.0
1094.289732	691.25
1094.850912	688.5
1095.412035	700.0
1095.9731	690.5
1096.534107	690.75
1097.095057	697.25
1097.65595	691.0
1098.216784	690.25
1098.777561	688.25
1099.338281	689.75
1099.898943	688.75
1100.459547	687.75
1101.020094	693.75
1101.580584	687.75
1102.141015	687.5
1102.701389	690.0
1103.261706	692.0
1103.821965	691.25
1104.382167	689.75
1104.942311	688.75
1105.502397	695.25
1106.062426	688.5
1106.622398	686.0
1107.182312	693.75
1107.742168	689.0
1108.301967	687.5
1108.861708	689.5
1109.421392	690.25
1109.981019	688.75
1110.540587	693.5
1111.100099	687.75
1111.659553	688.25
1112.218949	692.0
1112.778288	689.0
1113.33757	687.5
1113.896794	690.0
1114.45596	689.75
1115.015069	692.0
1115.574121	690.75
1116.133115	690.5
1116.692052	690.0
1117.250931	692.25
1117.809753	688.75
1118.368517	691.75
1118.927224	693.0
1119.485873	691.25
1120.044465	693.5
1120.603	690.5
1121.161477	689.75
1121.719897	695.25
1122.278259	688.5
1122.836564	686.75
1123.394812	692.25
1123.953002	688.0
1124.511135	695.25
1125.06921	687.5
1125.627228	687.75
1126.185189	689.0
1126.743092	689.0
1127.300938	691.0
1127.858726	689.0
1128.416457	694.5
1128.974131	687.75
1129.531748	688.0
1130.089307	688.0
1130.646808	692.5
1131.204252	691.75
1131.761639	689.75
1132.318969	690.0
1132.876241	690.5
1133.433456	691.5
1133.990614	691.5
1134.547714	692.5
1135.104757	692.0
1135.661743	691.0
1136.218671	683.25
1136.775542	689.5
1137.332356	691.75
1137.889112	691.75
1138.445811	689.25
1139.002453	691.0
1139.559037	689.75
1140.115565	690.5
1140.672035	688.5
1141.228447	689.0
1141.784803	688.5
1142.341101	692.25
1142.897342	688.25
1143.453525	686.0
1144.009651	688.0
1144.565721	689.5
1145.121732	691.5
1145.677687	689.75
1146.233584	696.0
1146.789424	690.0
1147.345207	690.25
1147.900933	692.0
1148.456601	690.75
1149.012212	689.0
1149.567766	688.25
1150.123263	692.25
1150.678702	693.0
1151.234085	693.75
1151.78941	692.5
1152.344678	691.25
1152.899888	690.0
1153.455042	691.25
1154.010138	692.0
1154.565177	688.5
1155.120159	696.0
1155.675084	689.25
1156.229951	686.0
1156.784762	687.0
1157.339515	685.25
1157.894211	691.25
1158.44885	692.75
1159.003432	691.0
1159.557956	687.75
1160.112424	689.75
1160.666834	691.0
1161.221187	694.5
1161.775483	693.25
1162.329722	693.0
1162.883904	691.25
1163.438029	696.0
1163.992096	692.0
1164.546107	694.0
1165.10006	690.25
1165.653956	690.75
1166.207795	691.75
1166.761577	692.75
1167.315302	692.25
1167.86897	692.0
1168.422581	694.0
1168.976134	693.75
1169.529631	692.5
1170.08307	693.75
1170.636453	692.25
1171.189778	690.0
1171.743046	692.5
1172.296257	694.0
1172.849412	689.25
1173.402509	691.5
1173.955549	688.25
1174.508532	691.75
1175.061458	689.0
1175.614327	690.0
1176.167138	693.5
1176.719893	691.25
1177.272591	690.5
1177.825232	688.75
1178.377816	691.0
1178.930342	690.75
1179.482812	687.75
1180.035225	689.5
1180.587581	689.5
1181.139879	687.0
1181.692121	688.25
1182.244306	691.0
1182.796434	687.25
1183.348504	687.5
1183.900518	689.5
1184.452475	688.5
1185.004375	690.75
1185.556218	688.5
1186.108004	689.25
1186.659733	690.0
1187.211405	690.25
1187.76302	689.75
1188.314578	686.75
1188.866079	686.0
1189.417523	690.25
1189.96891	690.5
1190.520241	686.5
1191.071514	683.0
1191.622731	687.5
1192.17389	688.75
1192.724993	689.25
1193.276039	706.25
1193.827027	691.0
1194.377959	689.25
1194.928834	691.5
1195.479653	688.75
1196.030414	691.25
1196.581118	686.25
1197.131766	688.0
1197.682356	689.25
1198.23289	691.75
1198.783367	691.0
1199.333786	687.75
1199.88415	688.25
1200.434456	692.75
1200.984705	688.25
1201.534898	690.0
1202.085033	691.5
1202.635112	687.25
1203.185134	693.5
1203.735099	683.25
1204.285007	685.75
1204.834859	687.75
1205.384653	689.75
1205.934391	688.25
1206.484072	685.75
1207.033696	688.75
1207.583263	686.0
1208.132774	687.75
1208.682228	690.75
1209.231624	690.5
1209.780965	688.0
1210.330248	687.75
1210.879474	691.0
1211.428644	691.25
1211.977757	689.75
1212.526813	688.5
1213.075813	689.25
1213.624755	687.0
1214.173641	691.75
1214.72247	690.0
1215.271242	687.75
1215.819958	691.25
1216.368617	690.5
1216.917219	690.25
1217.465764	687.5
1218.014253	688.25
1218.562685	689.75
1219.11106	688.75
1219.659378	689.25
1220.20764	688.75
1220.755845	687.25
1221.303993	692.25
1221.852085	695.5
1222.400119	690.25
1222.948097	691.5
1223.496019	691.0
1224.043883	690.5
1224.591691	690.25
1225.139443	689.5
1225.687137	693.25
1226.234775	692.25
1226.782357	692.25
1227.329881	689.75
1227.877349	694.0
1228.42476	689.0
1228.972115	692.5
1229.519413	692.75
1230.066654	688.5
1230.613839	692.25
1231.160967	690.25
1231.708038	691.25
1232.255053	693.75
1232.802011	695.0
1233.348912	689.25
1233.895757	689.75
1234.442545	691.25
1234.989277	689.5
1235.535951	690.25
1236.08257	690.0
1236.629131	691.25
1237.175636	696.25
1237.722085	693.75
1238.268477	691.5
1238.814812	694.5
1239.361091	696.0
1239.907313	689.5
1240.453478	695.75
1240.999587	690.75
1241.54564	695.0
1242.091636	693.75
1242.637575	694.5
1243.183457	691.0
1243.729284	690.25
1244.275053	692.0
1244.820766	697.0
1245.366423	694.5
1245.912022	693.25
1246.457566	692.5
1247.003053	694.25
1247.548483	695.25
1248.093857	696.25
1248.639174	693.0
1249.184435	692.5
1249.729639	692.75
1250.274787	700.5
1250.819878	696.0
1251.364912	700.25
1251.909891	699.75
1252.454812	696.0
1252.999677	693.25
1253.544486	697.75
1254.089238	697.0
1254.633934	688.5
1255.178573	695.25
1255.723156	695.25
1256.267682	695.75
1256.812152	693.0
1257.356565	702.0
1257.900922	696.25
1258.445223	696.5
1258.989467	704.5
1259.533654	702.5
1260.077785	710.75
1260.62186	697.75
1261.165878	702.0
1261.70984	703.5
1262.253745	703.25
1262.797594	710.25
1263.341386	724.0
1263.885123	731.0
1264.428802	735.75
1264.972425	743.0
1265.515992	735.0
1266.059503	724.75
1266.602957	712.0
1267.146354	706.5
1267.689696	698.5
1268.23298	706.25
1268.776209	706.25
1269.319381	702.5
1269.862497	698.25
1270.405556	705.25
1270.948559	696.5
1271.491506	703.25
1272.034396	700.0
1272.57723	699.5
1273.120007	701.75
1273.662728	703.5
1274.205393	702.5
1274.748002	703.0
1275.290554	704.0
1275.83305	699.5
1276.375489	705.75
1276.917872	699.75
1277.460199	701.75
1278.00247	705.5
1278.544684	706.75
1279.086842	710.75
1279.628943	706.25
1280.170989	712.25
1280.712978	715.25
1281.25491	723.0
1281.796787	730.5
1282.338607	751.5
1282.880371	790.5
1283.422078	868.0
1283.963729	1050.5
1284.505324	1318.0
1285.046863	1474.75
1285.588345	1237.25
1286.129772	948.5
1286.671142	800.25
1287.212455	751.0
1287.753713	729.25
1288.294914	721.5
1288.836059	715.75
1289.377147	714.75
1289.91818	714.5
1290.459156	703.75
1291.000076	707.0
1291.54094	703.25
1292.081747	706.5
1292.622499	707.75
1293.163194	700.75
1293.703833	700.75
1294.244415	703.75
1294.784942	700.0
1295.325412	703.25
1295.865826	705.25
1296.406184	696.5
1296.946486	701.0
1297.486731	700.5
1298.026921	698.5
1298.567054	699.25
1299.107131	704.5
1299.647152	699.75
1300.187116	703.5
1300.727025	695.75
1301.266877	702.5
1301.806673	702.5
1302.346413	698.75
1302.886097	700.0
1303.425725	701.25
1303.965297	696.25
1304.504812	697.75
1305.044272	700.0
1305.583675	702.25
1306.123022	700.0
1306.662313	698.0
1307.201548	698.0
1307.740727	699.0
1308.279849	694.75
1308.818916	695.0
1309.357926	697.25
1309.896881	698.75
1310.435779	691.5
1310.974621	693.25
1311.513407	694.75
1312.052137	696.5
1312.590811	695.25
1313.129429	693.5
1313.667991	690.5
1314.206497	696.0
1314.744946	695.5
1315.28334	694.5
1315.821678	698.75
1316.359959	689.5
1316.898184	689.75
1317.436354	693.75
1317.974467	693.25
1318.512525	693.5
1319.050526	693.75
1319.588471	696.25
1320.12636	690.25
1320.664194	690.75
1321.201971	695.75
1321.739692	690.75
1322.277357	690.0
1322.814967	690.75
1323.35252	691.75
1324.964843	705.0
1325.502173	693.5
1326.039446	691.75
1326.576663	691.75
1327.113824	691.75
1327.65093	690.5
1328.187979	688.0
1328.724972	692.25
1329.26191	693.0
1329.798791	695.25
1330.335617	693.25
1330.872386	693.5
1331.4091	691.5
1331.945758	692.25
1332.48236	695.5
1333.018905	691.5
1333.555395	695.75
1334.091829	690.5
1334.628207	690.5
1335.164529	690.75
1335.700796	693.0
1336.237006	693.25
1336.77316	693.5
1337.309259	693.0
1337.845301	691.0
1338.381288	695.75
1338.917219	693.0
1339.453094	693.75
1339.988913	692.0
1340.524676	694.5
1341.060383	694.75
1341.596034	690.0
1342.13163	690.25
1342.66717	697.25
1343.202653	692.0
1343.738081	693.5
1344.273453	694.75
1344.80877	693.5
1345.34403	689.5
1345.879235	691.0
1346.414383	697.0
1346.949476	692.75
1347.484513	693.5
1348.019494	695.0
1348.55442	693.5
1349.089289	693.25
1349.624103	692.0
1350.158861	692.5
1350.693563	692.5
1351.228209	694.25
1351.7628	694.25
1352.297334	692.25
1352.831813	690.75
1353.366236	689.75
1353.900604	691.5
1354.434915	692.25
1354.969171	694.25
1355.503371	693.75
1356.037515	693.5
1356.571604	693.5
1357.105636	692.75
1357.639613	694.5
1358.173535	690.25
1358.7074	692.5
1359.24121	696.75
1359.774964	695.25
1360.308662	693.25
1360.842304	691.75
1361.375891	694.5
1361.909422	694.0
1362.442897	695.75
1362.976317	694.75
1363.50968	698.25
1364.042989	696.5
1364.576241	696.75
1365.109438	696.5
1365.642579	695.75
1366.175664	701.5
1366.708693	699.5
1367.241667	700.25
1367.774585	699.5
1368.307448	699.75
1368.840255	698.5
1369.373006	697.25
1369.905701	709.5
1370.438341	727.25
1370.970925	711.5
1371.503454	697.75
1372.035926	698.0
1372.568344	696.0
1373.100705	696.25
1373.633011	699.25
1374.165261	695.75
1374.697456	696.25
1375.229595	697.25
1375.761678	699.0
1376.293705	700.75
1376.825677	700.5
1377.357594	701.75
1377.889455	697.75
1378.42126	698.5
1378.953009	699.25
1379.484703	704.0
1380.016342	699.75
1380.547924	701.75
1381.079452	708.0
1381.610923	702.25
1382.142339	706.75
1382.673699	703.75
1383.205004	710.5
1383.736253	710.0
1384.267447	715.75
1384.798585	720.25
1385.329668	731.75
1385.860695	745.5
1386.391666	781.5
1386.922582	849.0
1387.453442	1039.25
1387.984247	1543.0
1388.514996	2261.0
1389.04569	1887.5
1389.576328	1130.75
1390.10691	850.75
1390.637437	770.75
1391.167909	741.0
1391.698325	724.5
1392.228685	720.0
1392.75899	712.0
1393.28924	710.5
1393.819434	711.5
1394.349572	705.0
1394.879655	705.25
1395.409683	705.0
1395.939655	700.25
1396.469571	703.5
1396.999432	698.5
1397.529237	697.25
1398.058987	695.0
1398.588682	695.0
1399.118321	699.5
1399.647905	699.25
1400.177433	698.5
1400.706906	697.0
1401.236323	699.75
1401.765685	697.0
1402.294991	700.5
1402.824242	700.25
1403.353437	700.0
1403.882577	695.75
1404.411662	696.5
1404.940691	701.75
1405.469665	702.0
1405.998583	702.25
1406.527446	703.25
1407.056253	708.25
1407.585005	711.25
1408.113702	717.0
1408.642343	726.75
1409.170929	746.25
1409.69946	771.25
1410.227935	781.5
1410.756354	760.5
1411.284719	723.25
1411.813028	717.5
1412.341281	705.5
1412.869479	700.0
1413.397622	695.25
1413.92571	697.0
1414.453742	696.75
1414.981718	694.0
1415.50964	709.0
1416.037506	696.0
1416.565316	692.25
1417.093072	695.25
1417.620772	695.25
1418.148416	695.25
1418.676005	695.5
1419.203539	694.75
1419.731018	694.5
1420.258441	691.75
1420.785809	692.5
1421.313122	692.75
1421.840379	693.0
1422.367582	693.0
1422.894728	695.0
1423.42182	690.0
1423.948856	691.75
1424.475837	693.25
1425.002762	693.25
1425.529633	695.0
1426.056448	692.25
1426.583207	695.75
1427.109912	690.0
1427.636561	692.25
1428.163155	692.0
1428.689694	690.0
1429.216177	692.5
1429.742605	689.0
1430.268978	692.75
1430.795296	692.25
1431.321558	690.25
1431.847765	689.25
1432.373917	688.75
1432.900014	691.25
1433.426056	686.75
1433.952042	692.0
1434.477973	688.5
1435.003849	691.0
1435.529669	688.0
1436.055435	687.5
1436.581145	685.75
1437.1068	689.75
1437.632399	691.25
1438.157944	690.5
1438.683433	689.5
1439.208868	691.5
1439.734247	687.75
1440.25957	693.5
1440.784839	693.0
1441.310053	690.75
1441.835211	691.5
1442.360314	690.0
1442.885362	689.25
1443.410355	694.25
1443.935292	686.0
1444.460175	689.75
1444.985002	689.5
1445.509774	686.75
1446.034491	689.75
1446.559153	690.75
1447.08376	690.25
1447.608312	688.75
1448.132808	688.25
1448.65725	686.5
1449.181636	689.0
1449.705967	689.75
1450.230243	692.0
1450.754464	691.0
1451.27863	687.5
1451.802741	691.75
1452.326797	690.0
1452.850797	695.0
1453.374743	687.25
1453.898633	687.75
1454.422468	688.25
1454.946249	690.75
1455.469974	692.0
1455.993644	689.0
1456.517259	688.25
1457.040819	689.75
1457.564324	686.5
1458.087773	691.25
1458.611168	690.5
1459.134508	690.5
1459.657793	685.75
1460.181022	686.25
1460.704197	684.5
1461.227316	687.5
1461.750381	689.0
1462.27339	687.5
1462.796345	690.75
1463.319244	685.25
1463.842089	684.0
1464.364878	687.5
1464.887613	691.0
1465.410292	687.75
1465.932916	686.75
1466.455486	685.75
1466.978	689.0
1467.50046	688.5
1468.022864	686.25
1468.545214	689.0
1469.067508	688.5
1469.589748	684.5
1470.111932	692.0
1470.634062	687.0
1471.156136	689.0
1471.678156	687.5
1472.20012	685.25
1472.72203	689.0
1473.243885	686.0
1473.765685	689.25
1474.28743	687.5
1474.80912	685.75
1475.330755	687.75
1475.852335	692.75
1476.37386	688.25
1476.89533	689.5
1477.416745	683.5
1477.938106	686.5
1478.459411	684.25
1478.980662	691.25
1479.501857	684.0
1480.022998	690.25
1480.544084	683.75
1481.065115	687.75
1481.586091	688.25
1482.107012	685.0
1482.627878	684.75
1483.14869	687.0
1483.669446	687.25
1484.190148	688.5
1484.710794	684.75
1485.231386	688.25
1485.751923	689.25
1486.272406	685.0
1486.792833	686.0
1487.313205	686.5
1487.833523	685.0
1488.353786	688.0
1488.873994	686.0
1489.394147	682.75
1489.914245	684.75
1490.434288	684.5
1490.954277	688.75
1491.474211	683.75
1491.99409	687.25
1492.513914	684.75
1493.033683	684.75
1493.553398	687.0
1494.073057	688.75
1494.592662	687.5
1495.112212	689.0
1495.631708	685.0
1496.151148	686.0
1496.670534	685.25
1497.189865	682.25
1497.709141	683.5
1498.228362	686.25
1498.747529	683.0
1499.266641	686.25
1499.785698	690.75
1500.3047	687.0
1500.823648	686.0
1501.34254	684.75
1501.861379	685.75
1502.380162	688.75
1502.89889	687.5
1503.417564	685.5
1503.936183	679.5
1504.454748	681.0
1504.973257	682.0
1505.491712	684.0
1506.010112	685.25
1506.528458	685.25
1507.046748	685.0
1507.564984	684.0
1508.083166	682.25
1508.601292	685.5
1509.119364	683.0
1509.637381	684.25
1510.155344	681.0
1510.673252	694.75
1511.191105	684.75
1511.708903	683.5
1512.226647	683.25
1512.744336	689.0
1513.261971	683.25
1513.77955	683.25
1514.297076	680.75
1514.814546	682.75
1515.331962	684.25
1515.849323	684.5
1516.366629	683.25
1516.883881	683.5
1517.401078	686.25
1517.918221	681.0
1518.435309	688.25
1518.952342	683.5
1519.469321	686.75
1519.986245	685.25
1520.503114	686.25
1521.019929	683.25
1521.536689	686.0
1522.053395	684.5
1522.570046	685.25
1523.086642	686.25
1523.603184	684.5
1524.119671	682.0
1524.636103	684.25
1525.152481	682.0
1525.668805	682.75
1526.185073	685.25
1526.701288	687.75
1527.217447	687.5
1527.733552	683.75
1528.249603	681.0
1528.765599	684.75
1529.28154	683.75
1529.797427	683.5
1530.313259	689.25
1530.829037	680.0
1531.34476	684.25
1531.860429	687.5
1532.376043	685.25
1532.891602	688.25
1533.407107	683.0
1533.922558	685.25
1534.437954	681.5
1534.953295	686.75
1535.468582	679.5
1535.983815	686.75
1536.498993	683.25
1537.014116	683.5
1537.529185	683.75
1538.044199	684.0
1538.559159	684.5
1539.074064	682.5
1539.588915	681.75
1540.103712	683.25
1540.618454	682.25
1541.133141	684.0
1541.647774	685.5
1542.162353	684.75
1542.676877	683.25
1543.191346	684.75
1543.705761	679.5
1544.220122	683.25
1544.734428	685.5
1545.24868	683.25
1545.762877	681.75
1546.27702	686.5
1546.791109	684.0
1547.305143	685.25
1547.819122	684.75
1548.333047	684.25
1548.846918	685.5
1549.360734	684.25
1549.874496	684.5
1550.388204	682.75
1550.901857	682.25
1551.415455	685.75
1551.929	679.25
1552.442489	685.75
1552.955925	681.25
1553.469306	684.25
1553.982632	684.25
1554.495905	683.5
1555.009123	684.25
1555.522286	684.25
1556.035395	684.25
1556.54845	684.25
1557.06145	686.25
1557.574396	686.75
1558.087288	687.5
1558.600125	680.25
1559.112908	686.75
1559.625637	689.25
1560.138311	684.5
1560.650931	684.5
1561.163497	688.25
1561.676008	682.75
1562.188465	682.0
1562.700867	680.5
1563.213216	682.75
1563.725509	683.5
1564.237749	684.75
1564.749934	684.5
1565.262065	684.5
1565.774142	682.5
1566.286164	684.0
1566.798132	684.25
1567.310046	685.5
1567.821906	682.75
1568.333711	686.25
1568.845462	686.5
1569.357158	684.75
1569.868801	687.25
1570.380389	685.25
1570.891922	684.25
1571.403402	684.75
1571.914827	687.75
1572.426198	684.75
1572.937515	687.25
1573.448777	685.0
1573.959985	686.25
1574.471139	685.25
1574.982239	686.75
1575.493285	684.0
1576.004276	690.0
1576.515213	685.0
1577.026096	686.5
1577.536924	686.0
1578.047698	685.75
1578.558419	690.25
1579.069084	690.75
1579.579696	690.25
1580.090254	689.75
1580.600757	693.5
1581.111206	690.0
1581.621601	689.0
1582.131941	687.75
1582.642228	684.5
1583.15246	689.75
1583.662638	689.5
1584.172762	688.75
1584.682832	686.75
1585.192847	685.5
1585.702809	686.25
1586.212716	686.25
1586.722569	691.0
1587.232368	683.75
1587.742113	685.75
1588.251803	685.75
1588.76144	686.5
1589.271022	684.75
1589.78055	686.0
1590.290024	686.75
1590.799444	692.5
1591.30881	684.5
1591.818121	686.5
1592.327379	683.75
