1042.414189	707.25
1042.980685	709.75
1043.547124	712.5
1044.113505	714.75
1044.679828	714.75
1045.246093	711.25
1045.8123	711.75
1046.378449	707.5
1046.94454	710.0
1047.510573	707.75
1048.076548	705.0
1048.642465	709.0
1049.208325	704.5
1049.774126	702.25
1050.339869	703.25
1050.905555	701.75
1051.471183	696.5
1052.036752	697.25
1052.602264	695.0
1053.167718	691.0
1053.733114	692.25
1054.298452	694.5
1054.863733	694.0
1055.428955	696.5
1055.994119	688.25
1056.559226	688.0
1057.124275	689.25
1057.689266	686.75
1058.254199	687.0
1058.819074	685.25
1059.383891	688.0
1059.94865	690.5
1060.513352	687.5
1061.077996	685.0
1061.642582	681.75
1062.20711	686.5
1062.77158	685.0
1063.335992	685.25
1063.900347	685.0
1064.464643	685.0
1065.028882	689.75
1065.593063	684.75
1066.157187	685.0
1066.721252	682.75
1067.28526	683.75
1067.84921	685.75
1068.413102	682.75
1068.976936	681.25
1069.540713	683.75
1070.104431	689.0
1070.668092	683.25
1071.231696	683.25
1071.795241	683.25
1072.358729	684.25
1072.922159	683.25
1073.485531	677.75
1074.048845	682.75
1074.612102	681.75
1075.175301	682.0
1075.738442	682.75
1076.301525	682.75
1076.864551	688.0
1077.427519	682.5
1077.990429	679.0
1078.553281	685.25
1079.116076	686.5
1079.678813	681.75
1080.241492	682.0
1080.804114	681.25
1081.366678	684.75
1081.929184	684.25
1082.491633	683.75
1083.054024	680.5
1083.616357	684.5
1084.178632	682.25
1084.74085	679.75
1085.30301	684.0
1085.865113	684.25
1086.427158	681.5
1086.989145	687.0
1087.551074	686.75
1088.112946	681.75
1088.67476	683.25
1089.236517	680.75
1089.798216	685.25
1090.359857	684.0
1090.92144	682.5
1091.482966	681.5
1092.044435	679.0
1092.605845	680.25
1093.167199	682.25
1093.728494	684.5
1094.289732	681.75
1094.850912	680.5
1095.412035	695.75
1095.9731	685.0
1096.534107	683.0
1097.095057	688.5
1097.65595	681.5
1098.216784	683.5
1098.777561	683.0
1099.338281	683.5
1099.898943	683.25
1100.459547	686.75
1101.020094	684.25
1101.580584	681.75
1102.141015	681.75
1102.701389	683.5
1103.261706	683.25
1103.821965	681.75
1104.382167	681.0
1104.942311	682.5
1105.502397	686.25
1106.062426	685.75
1106.622398	682.25
1107.182312	682.0
1107.742168	684.25
1108.301967	682.75
1108.861708	682.0
1109.421392	684.5
1109.981019	687.0
1110.540587	685.0
1111.100099	682.75
1111.659553	684.5
1112.218949	683.75
1112.778288	684.25
1113.33757	685.0
1113.896794	687.0
1114.45596	682.75
1115.015069	686.75
1115.574121	687.25
1116.133115	686.25
1116.692052	687.25
1117.250931	688.0
1117.809753	684.5
1118.368517	686.0
1118.927224	684.5
1119.485873	685.0
1120.044465	686.75
1120.603	683.75
1121.161477	684.5
1121.719897	688.0
1122.278259	683.25
1122.836564	681.0
1123.394812	684.5
1123.953002	685.25
1124.511135	683.25
1125.06921	682.25
1125.627228	690.25
1126.185189	680.75
1126.743092	685.25
1127.300938	688.5
1127.858726	684.75
1128.416457	687.0
1128.974131	685.25
1129.531748	683.5
1130.089307	679.5
1130.646808	685.25
1131.204252	688.75
1131.761639	682.75
1132.318969	682.5
1132.876241	684.75
1133.433456	686.75
1133.990614	687.0
1134.547714	688.75
1135.104757	685.5
1135.661743	686.0
1136.218671	685.25
1136.775542	685.75
1137.332356	681.0
1137.889112	685.5
1138.445811	687.75
1139.002453	687.25
1139.559037	685.75
1140.115565	687.25
1140.672035	688.5
1141.228447	683.0
1141.784803	686.75
1142.341101	688.25
1142.897342	689.5
1143.453525	685.75
1144.009651	682.5
1144.565721	687.75
1145.121732	683.75
1145.677687	682.75
1146.233584	687.5
1146.789424	686.5
1147.345207	691.25
1147.900933	686.5
1148.456601	682.25
1149.012212	684.75
1149.567766	693.25
1150.123263	716.25
1150.678702	710.25
1151.234085	692.75
1151.78941	688.25
1152.344678	685.25
1152.899888	683.75
1153.455042	682.5
1154.010138	681.5
1154.565177	683.0
1155.120159	683.5
1155.675084	682.0
1156.229951	685.75
1156.784762	683.0
1157.339515	681.75
1157.894211	686.25
1158.44885	681.75
1159.003432	681.5
1159.557956	683.25
1160.112424	684.25
1160.666834	683.25
1161.221187	686.0
1161.775483	687.0
1162.329722	687.25
1162.883904	685.0
1163.438029	686.0
1163.992096	686.75
1164.546107	689.0
1165.10006	688.5
1165.653956	688.75
1166.207795	686.75
1166.761577	688.75
1167.315302	688.75
1167.86897	689.0
1168.422581	688.25
1168.976134	685.25
1169.529631	686.25
1170.08307	685.75
1170.636453	685.75
1171.189778	686.5
1171.743046	684.75
1172.296257	685.75
1172.849412	683.25
1173.402509	682.0
1173.955549	686.0
1174.508532	681.0
1175.061458	680.75
1175.614327	684.0
1176.167138	682.0
1176.719893	685.5
1177.272591	682.5
1177.825232	683.25
1178.377816	682.0
1178.930342	682.75
1179.482812	681.0
1180.035225	685.25
1180.587581	678.5
1181.139879	679.25
1181.692121	681.75
1182.244306	681.25
1182.796434	681.25
1183.348504	682.0
1183.900518	681.5
1184.452475	684.25
1185.004375	687.5
1185.556218	679.0
1186.108004	682.0
1186.659733	680.5
1187.211405	680.75
1187.76302	681.5
1188.314578	680.25
1188.866079	680.25
1189.417523	682.25
1189.96891	682.0
1190.520241	681.25
1191.071514	682.25
1191.622731	681.5
1192.17389	679.75
1192.724993	682.5
1193.276039	698.5
1193.827027	682.75
1194.377959	681.5
1194.928834	681.0
1195.479653	680.0
1196.030414	680.5
1196.581118	686.25
1197.131766	678.0
1197.682356	682.0
1198.23289	679.25
1198.783367	682.25
1199.333786	682.75
1199.88415	679.5
1200.434456	681.5
1200.984705	684.5
1201.534898	681.0
1202.085033	679.25
1202.635112	685.75
1203.185134	680.0
1203.735099	680.75
1204.285007	685.25
1204.834859	682.5
1205.384653	683.5
1205.934391	685.75
1206.484072	678.75
1207.033696	679.5
1207.583263	681.0
1208.132774	681.0
1208.682228	684.25
1209.231624	683.0
1209.780965	682.5
1210.330248	678.25
1210.879474	685.5
1211.428644	685.25
1211.977757	684.75
1212.526813	681.5
1213.075813	682.5
1213.624755	677.25
1214.173641	684.25
1214.72247	684.0
1215.271242	682.75
1215.819958	681.5
1216.368617	682.0
1216.917219	679.25
1217.465764	686.25
1218.014253	683.75
1218.562685	684.25
1219.11106	683.5
1219.659378	682.25
1220.20764	681.25
1220.755845	681.5
1221.303993	679.5
1221.852085	682.75
1222.400119	682.75
1222.948097	684.75
1223.496019	679.5
1224.043883	683.75
1224.591691	682.75
1225.139443	681.25
1225.687137	685.5
1226.234775	684.0
1226.782357	679.75
1227.329881	687.25
1227.877349	679.25
1228.42476	685.25
1228.972115	683.0
1229.519413	683.25
1230.066654	687.5
1230.613839	682.75
1231.160967	682.5
1231.708038	684.0
1232.255053	685.5
1232.802011	685.0
1233.348912	685.5
1233.895757	684.25
1234.442545	687.75
1234.989277	684.5
1235.535951	686.0
1236.08257	688.5
1236.629131	684.0
1237.175636	685.0
1237.722085	686.5
1238.268477	683.75
1238.814812	689.5
1239.361091	685.75
1239.907313	687.25
1240.453478	687.75
1240.999587	688.25
1241.54564	686.5
1242.091636	689.0
1242.637575	687.75
1243.183457	690.25
1243.729284	685.75
1244.275053	685.75
1244.820766	692.75
1245.366423	693.0
1245.912022	690.0
1246.457566	692.25
1247.003053	691.75
1247.548483	686.0
1248.093857	690.0
1248.639174	691.0
1249.184435	689.5
1249.729639	690.5
1250.274787	692.25
1250.819878	692.5
1251.364912	691.75
1251.909891	694.25
1252.454812	688.75
1252.999677	693.0
1253.544486	692.5
1254.089238	695.25
1254.633934	690.25
1255.178573	697.25
1255.723156	692.25
1256.267682	696.0
1256.812152	695.75
1257.356565	698.0
1257.900922	707.0
1258.445223	710.75
1258.989467	709.75
1259.533654	706.0
1260.077785	724.75
1260.62186	709.0
1261.165878	726.75
1261.70984	730.5
1262.253745	734.0
1262.797594	750.5
1263.341386	748.5
1263.885123	763.0
1264.428802	749.0
1264.972425	738.5
1265.515992	729.75
1266.059503	715.25
1266.602957	713.25
1267.146354	709.0
1267.689696	710.5
1268.23298	707.25
1268.776209	706.75
1269.319381	709.5
1269.862497	704.25
1270.405556	708.25
1270.948559	705.0
1271.491506	710.0
1272.034396	702.75
1272.57723	707.5
1273.120007	706.0
1273.662728	703.75
1274.205393	711.25
1274.748002	702.0
1275.290554	705.5
1275.83305	708.75
1276.375489	713.0
1276.917872	717.5
1277.460199	720.0
1278.00247	721.75
1278.544684	723.75
1279.086842	730.75
1279.628943	742.75
1280.170989	755.75
1280.712978	780.25
1281.25491	844.0
1281.796787	952.75
1282.338607	1208.25
1282.880371	1590.5
1283.422078	1927.25
1283.963729	1892.0
1284.505324	1526.25
1285.046863	1137.0
1285.588345	930.25
1286.129772	833.0
1286.671142	778.25
1287.212455	753.5
1287.753713	741.25
1288.294914	731.5
1288.836059	737.0
1289.377147	722.25
1289.91818	717.0
1290.459156	717.0
1291.000076	712.25
1291.54094	710.75
1292.081747	711.0
1292.622499	711.75
1293.163194	712.75
1293.703833	711.75
1294.244415	702.25
1294.784942	708.5
1295.325412	702.25
1295.865826	708.0
1296.406184	708.25
1296.946486	707.25
1297.486731	705.5
1298.026921	705.0
1298.567054	701.5
1299.107131	702.5
1299.647152	707.5
1300.187116	703.75
1300.727025	706.75
1301.266877	704.5
1301.806673	703.5
1302.346413	702.5
1302.886097	705.75
1303.425725	705.75
1303.965297	702.75
1304.504812	705.25
1305.044272	699.5
1305.583675	700.0
1306.123022	699.75
1306.662313	700.0
1307.201548	701.25
1307.740727	699.0
1308.279849	698.5
1308.818916	703.0
1309.357926	698.5
1309.896881	692.75
1310.435779	698.0
1310.974621	696.25
1311.513407	697.75
1312.052137	693.25
1312.590811	695.25
1313.129429	694.25
1313.667991	694.5
1314.206497	692.25
1314.744946	691.0
1315.28334	690.0
1315.821678	698.75
1316.359959	693.75
1316.898184	689.75
1317.436354	694.5
1317.974467	689.25
1318.512525	692.75
1319.050526	689.0
1319.588471	689.25
1320.12636	689.75
1320.664194	690.25
1321.201971	689.75
1321.739692	687.0
1322.277357	688.25
1322.814967	693.25
1323.35252	689.75
1323.890017	694.25
1324.427458	685.25
1324.964843	687.75
1325.502173	689.25
1326.039446	690.75
1326.576663	688.25
1327.113824	688.5
1327.65093	690.75
1328.187979	690.5
1328.724972	687.5
1329.26191	689.25
1329.798791	689.75
1330.335617	689.0
1330.872386	689.75
1331.4091	691.25
1331.945758	692.75
1332.48236	690.0
1333.018905	688.0
1333.555395	689.5
1334.091829	688.75
1334.628207	690.25
1335.164529	689.0
1335.700796	688.0
1336.237006	684.0
1336.77316	692.5
1337.309259	689.5
1337.845301	689.25
1338.381288	692.25
1338.917219	688.25
1339.453094	690.25
1339.988913	694.5
1340.524676	688.0
1341.060383	690.5
1341.596034	690.75
1342.13163	688.0
1342.66717	691.75
1343.202653	690.0
1343.738081	688.5
1344.273453	685.0
1344.80877	693.0
1345.34403	688.75
1345.879235	691.25
1346.414383	691.0
1346.949476	691.75
1347.484513	687.0
1348.019494	692.25
1348.55442	687.25
1349.089289	685.75
1349.624103	690.75
1350.158861	689.0
1350.693563	688.25
1351.228209	687.5
1351.7628	691.5
1352.297334	691.25
1352.831813	693.25
1353.366236	690.5
1353.900604	689.75
1354.434915	692.0
1354.969171	690.25
1355.503371	687.75
1356.037515	689.25
1356.571604	690.5
1357.105636	689.5
1357.639613	691.5
1358.173535	688.75
1358.7074	691.5
1359.24121	692.5
1359.774964	693.25
1360.308662	686.5
1360.842304	695.75
1361.375891	693.75
1361.909422	693.0
1362.442897	694.25
1362.976317	691.25
1363.50968	695.25
1364.042989	695.25
1364.576241	697.25
1365.109438	698.5
1365.642579	701.0
1366.175664	696.25
1366.708693	697.25
1367.241667	695.0
1367.774585	691.25
1368.307448	700.25
1368.840255	702.0
1369.373006	717.75
1369.905701	747.5
1370.438341	738.5
1370.970925	710.25
1371.503454	702.75
1372.035926	700.25
1372.568344	699.0
1373.100705	697.75
1373.633011	700.5
1374.165261	700.5
1374.697456	697.5
1375.229595	702.0
1375.761678	703.25
1376.293705	710.25
1376.825677	699.0
1377.357594	702.75
1377.889455	702.0
1378.42126	705.5
1378.953009	711.75
1379.484703	711.0
1380.016342	711.75
1380.547924	712.75
1381.079452	715.75
1381.610923	722.75
1382.142339	727.75
1382.673699	731.5
1383.205004	743.0
1383.736253	757.25
1384.267447	781.5
1384.798585	811.0
1385.329668	859.0
1385.860695	968.25
1386.391666	1223.25
1386.922582	1790.75
1387.453442	2854.75
1387.984247	3356.5
1388.514996	2419.0
1389.04569	1455.75
1389.576328	1046.75
1390.10691	885.5
1390.637437	814.5
1391.167909	777.25
1391.698325	758.75
1392.228685	738.0
1392.75899	736.0
1393.28924	727.0
1393.819434	727.25
1394.349572	717.5
1394.879655	710.25
1395.409683	713.25
1395.939655	707.5
1396.469571	714.75
1396.999432	710.5
1397.529237	710.5
1398.058987	704.75
1398.588682	705.0
1399.118321	705.0
1399.647905	707.25
1400.177433	706.25
1400.706906	706.25
1401.236323	706.5
1401.765685	704.25
1402.294991	704.25
1402.824242	701.5
1403.353437	711.25
1403.882577	705.25
1404.411662	713.25
1404.940691	715.5
1405.469665	713.0
1405.998583	723.75
1406.527446	730.5
1407.056253	744.5
1407.585005	750.75
1408.113702	768.75
1408.642343	793.5
1409.170929	817.25
1409.69946	813.0
1410.227935	795.0
1410.756354	762.75
1411.284719	737.5
1411.813028	718.5
1412.341281	712.25
1412.869479	703.0
1413.397622	705.5
1413.92571	696.5
1414.453742	694.5
1414.981718	697.5
1415.50964	706.75
1416.037506	692.75
1416.565316	694.0
1417.093072	694.0
1417.620772	691.0
1418.148416	690.25
1418.676005	688.5
1419.203539	692.75
1419.731018	688.25
1420.258441	691.75
1420.785809	690.0
1421.313122	685.25
1421.840379	691.25
1422.367582	685.75
1422.894728	689.25
1423.42182	694.5
1423.948856	691.5
1424.475837	693.25
1425.002762	686.5
1425.529633	689.75
1426.056448	689.0
1426.583207	690.0
1427.109912	689.5
1427.636561	685.0
1428.163155	687.5
1428.689694	687.25
1429.216177	685.25
1429.742605	681.5
1430.268978	686.5
1430.795296	687.0
1431.321558	686.25
1431.847765	681.25
1432.373917	689.0
1432.900014	685.25
1433.426056	687.0
1433.952042	686.0
1434.477973	683.25
1435.003849	685.5
1435.529669	681.0
1436.055435	686.75
1436.581145	687.5
1437.1068	684.5
1437.632399	684.75
1438.157944	684.75
1438.683433	689.25
1439.208868	684.25
1439.734247	682.0
1440.25957	683.0
1440.784839	685.75
1441.310053	684.25
1441.835211	682.25
1442.360314	686.75
1442.885362	683.5
1443.410355	685.75
1443.935292	682.0
1444.460175	685.0
1444.985002	687.75
1445.509774	687.5
1446.034491	684.25
1446.559153	683.25
1447.08376	683.75
1447.608312	681.5
1448.132808	684.5
1448.65725	684.5
1449.181636	685.25
1449.705967	684.5
1450.230243	684.5
1450.754464	690.0
1451.27863	682.5
1451.802741	683.5
1452.326797	687.25
1452.850797	680.5
1453.374743	683.5
1453.898633	681.0
1454.422468	683.5
1454.946249	681.0
1455.469974	685.25
1455.993644	685.5
1456.517259	683.0
1457.040819	683.25
1457.564324	684.0
1458.087773	683.25
1458.611168	683.75
1459.134508	685.5
1459.657793	680.75
1460.181022	683.0
1460.704197	681.25
1461.227316	682.75
1461.750381	678.0
1462.27339	681.25
1462.796345	681.25
1463.319244	684.75
1463.842089	681.25
1464.364878	681.5
1464.887613	677.25
1465.410292	680.5
1465.932916	682.5
1466.455486	681.75
1466.978	684.0
1467.50046	681.5
1468.022864	678.5
1468.545214	680.0
1469.067508	681.75
1469.589748	683.0
1470.111932	684.5
1470.634062	681.5
1471.156136	677.75
1471.678156	677.5
1472.20012	681.75
1472.72203	681.75
1473.243885	674.75
1473.765685	678.5
1474.28743	681.25
1474.80912	676.5
1475.330755	679.5
1475.852335	677.75
1476.37386	680.75
1476.89533	680.0
1477.416745	681.25
1477.938106	677.25
1478.459411	680.0
1478.980662	681.0
1479.501857	681.5
1480.022998	678.5
1480.544084	676.75
1481.065115	680.0
1481.586091	680.25
1482.107012	680.25
1482.627878	679.5
1483.14869	678.75
1483.669446	677.0
1484.190148	676.25
1484.710794	681.5
1485.231386	680.0
1485.751923	678.5
1486.272406	680.0
1486.792833	677.5
1487.313205	679.5
1487.833523	682.5
1488.353786	678.75
1488.873994	681.0
1489.394147	679.5
1489.914245	685.75
1490.434288	677.25
1490.954277	683.25
1491.474211	679.25
1491.99409	682.0
1492.513914	680.25
1493.033683	682.0
1493.553398	682.0
1494.073057	684.25
1494.592662	678.25
1495.112212	680.75
1495.631708	679.5
1496.151148	680.0
1496.670534	680.5
1497.189865	678.75
1497.709141	679.75
1498.228362	681.75
1498.747529	682.5
1499.266641	679.75
1499.785698	688.0
1500.3047	679.75
1500.823648	680.75
1502.380162	684.0
1502.89889	678.75
1503.417564	677.5
1503.936183	683.75
1504.454748	676.25
1504.973257	678.0
1505.491712	676.5
1506.010112	674.75
1506.528458	679.0
1507.046748	677.5
1507.564984	680.25
1508.083166	676.0
1508.601292	676.0
1509.119364	675.5
1509.637381	678.5
1510.155344	678.5
1510.673252	689.5
1511.191105	679.25
1511.708903	678.75
1512.226647	675.75
1512.744336	677.0
1513.261971	677.0
1513.77955	677.0
1514.297076	678.75
1514.814546	676.75
1515.331962	676.25
1515.849323	677.0
1516.366629	678.75
1516.883881	673.75
1517.401078	680.25
1517.918221	676.0
1518.435309	677.75
1518.952342	678.0
1519.469321	678.25
1519.986245	678.25
1520.503114	675.25
1521.019929	676.25
1521.536689	676.25
1522.053395	677.75
1522.570046	680.0
1523.086642	679.25
1523.603184	676.75
1524.119671	678.75
1524.636103	678.75
1525.152481	677.75
1525.668805	679.5
1526.185073	681.0
1526.701288	678.75
1527.217447	675.5
1527.733552	679.0
1528.249603	674.25
1528.765599	680.25
1529.28154	679.75
1529.797427	676.25
1530.313259	678.0
1530.829037	678.5
1531.34476	677.25
1531.860429	680.75
1532.376043	674.5
1532.891602	676.0
1533.407107	674.75
1533.922558	677.75
1534.437954	676.25
1534.953295	678.0
1535.468582	680.25
1535.983815	676.25
1536.498993	679.25
1537.014116	677.5
1537.529185	676.5
1538.044199	680.75
1538.559159	677.0
1539.074064	678.25
1539.588915	676.0
1540.103712	680.5
1540.618454	678.75
1541.133141	680.0
1541.647774	676.0
1542.162353	678.5
1542.676877	676.0
1543.191346	677.5
1543.705761	680.75
1544.220122	679.5
1544.734428	680.0
1545.24868	678.25
1545.762877	675.75
1546.27702	678.0
1546.791109	675.5
1547.305143	679.5
1547.819122	675.5
1548.333047	680.25
1548.846918	678.25
1549.360734	677.25
1549.874496	676.0
1550.388204	676.75
1550.901857	676.25
1551.415455	675.75
1551.929	678.5
1552.442489	678.0
1552.955925	677.5
1553.469306	676.0
1553.982632	679.75
1554.495905	676.25
1555.009123	679.0
1555.522286	672.75
1556.035395	672.0
1556.54845	675.25
1557.06145	676.5
1557.574396	674.25
1558.087288	679.5
1558.600125	673.5
1559.112908	681.25
1559.625637	680.25
1560.138311	674.25
1560.650931	681.75
1561.163497	675.75
1561.676008	680.75
1562.188465	678.5
1562.700867	677.25
1563.213216	680.0
1563.725509	677.75
1564.237749	677.75
1564.749934	682.25
1565.262065	678.75
1565.774142	675.0
1566.286164	676.75
1566.798132	679.75
1567.310046	680.0
1567.821906	677.75
1568.333711	678.5
1568.845462	678.25
1569.357158	679.0
1569.868801	676.25
1570.380389	676.25
1570.891922	677.0
1571.403402	678.5
1571.914827	678.0
1572.426198	679.0
1572.937515	679.25
1573.448777	681.0
1573.959985	680.75
1574.471139	682.25
1574.982239	679.0
1575.493285	681.25
1576.004276	680.75
1576.515213	681.25
1577.026096	683.75
1577.536924	679.75
1578.047698	686.75
1578.558419	686.5
1579.069084	684.75
1579.579696	686.5
1580.090254	686.25
1580.600757	690.5
1581.111206	689.5
1581.621601	687.75
1582.131941	688.0
1582.642228	691.75
1583.15246	683.0
1583.662638	687.5
1584.172762	685.5
1584.682832	685.0
1585.192847	685.25
1585.702809	678.5
1586.212716	682.75
1586.722569	682.5
1587.232368	683.0
1587.742113	676.75
1588.251803	680.25
1588.76144	679.75
1589.271022	675.75
1589.78055	680.25
1590.290024	678.5
1590.799444	685.0
1591.30881	681.0
1591.818121	680.25
1592.327379	677.0
