1042.414189	743.75
1042.980685	741.75
1043.547124	743.0
1044.113505	742.5
1044.679828	740.0
1045.246093	742.25
1045.8123	740.0
1046.378449	738.25
1046.94454	740.5
1047.510573	738.25
1048.076548	728.75
1048.642465	732.5
1049.208325	731.0
1049.774126	723.25
1050.339869	724.25
1050.905555	720.75
1051.471183	718.0
1052.036752	708.5
1052.602264	714.0
1053.167718	709.0
1053.733114	706.75
1054.298452	708.0
1054.863733	697.25
1055.428955	706.25
1055.994119	699.75
1056.559226	701.25
1057.124275	699.75
1057.689266	697.0
1058.254199	697.5
1058.819074	695.75
1059.383891	692.75
1059.94865	691.0
1060.513352	691.0
1061.077996	691.25
1061.642582	691.75
1062.20711	690.0
1062.77158	687.75
1063.335992	691.25
1063.900347	694.0
1064.464643	693.25
1065.028882	687.5
1065.593063	691.75
1066.157187	687.25
1066.721252	688.75
1067.28526	689.5
1067.84921	688.5
1068.413102	688.25
1068.976936	689.0
1069.540713	687.25
1070.104431	699.75
1070.668092	689.5
1071.231696	688.75
1071.795241	686.5
1072.358729	688.25
1072.922159	690.75
1073.485531	687.5
1074.048845	685.0
1074.612102	690.75
1075.175301	685.5
1075.738442	689.0
1076.301525	692.5
1076.864551	689.0
1077.427519	687.75
1077.990429	687.5
1078.553281	691.5
1079.116076	688.0
1079.678813	686.0
1080.241492	685.75
1080.804114	690.75
1081.366678	684.0
1081.929184	689.25
1082.491633	689.25
1083.054024	688.5
1083.616357	691.25
1084.178632	689.5
1084.74085	685.0
1085.30301	690.75
1085.865113	685.75
1086.427158	689.75
1086.989145	689.5
1087.551074	688.25
1088.112946	688.5
1088.67476	686.75
1089.236517	693.25
1090.92144	734.25
1091.482966	687.5
1092.044435	683.75
1092.605845	686.5
1093.167199	685.25
1093.728494	684.25
1094.289732	687.25
1094.850912	690.0
1095.412035	696.75
1095.9731	688.25
1096.534107	690.0
1097.095057	696.0
1097.65595	691.5
1098.216784	691.75
1098.777561	689.75
1099.338281	686.0
1099.898943	689.75
1100.459547	687.0
1101.020094	689.0
1101.580584	687.75
1102.141015	686.0
1102.701389	689.0
1103.261706	689.5
1103.821965	689.25
1104.382167	689.0
1104.942311	687.75
1105.502397	694.25
1106.062426	687.25
1106.622398	689.75
1107.182312	691.75
1107.742168	688.25
1108.301967	686.5
1108.861708	691.0
1109.421392	693.0
1109.981019	690.5
1110.540587	690.0
1111.100099	696.0
1111.659553	691.25
1112.218949	691.5
1112.778288	692.5
1113.33757	692.25
1113.896794	694.5
1114.45596	691.5
1115.015069	692.75
1115.574121	692.5
1116.133115	696.75
1116.692052	694.0
1117.250931	696.0
1117.809753	692.0
1118.368517	687.25
1118.927224	693.75
1119.485873	690.0
1120.044465	692.0
1120.603	693.0
1121.161477	688.25
1121.719897	693.25
1122.278259	688.25
1122.836564	691.25
1123.394812	694.25
1123.953002	692.5
1124.511135	692.0
1125.06921	688.5
1125.627228	690.75
1126.185189	692.75
1126.743092	686.25
1127.300938	689.75
1127.858726	693.0
1128.416457	691.25
1128.974131	692.25
1129.531748	690.75
1130.089307	689.5
1130.646808	692.75
1131.204252	693.5
1131.761639	691.25
1132.318969	690.0
1132.876241	694.0
1133.433456	693.75
1133.990614	691.25
1134.547714	693.25
1135.104757	693.75
1135.661743	693.0
1136.218671	694.25
1136.775542	693.0
1137.332356	694.25
1137.889112	692.75
1138.445811	697.75
1139.002453	694.5
1139.559037	697.75
1140.115565	693.0
1140.672035	693.5
1141.228447	692.0
1141.784803	690.0
1142.341101	693.25
1142.897342	694.0
1143.453525	694.0
1144.009651	693.5
1144.565721	693.75
1145.121732	696.0
1145.677687	689.0
1146.233584	690.75
1146.789424	690.75
1147.345207	696.5
1147.900933	694.0
1148.456601	692.0
1149.012212	689.0
1149.567766	690.5
1150.123263	688.0
1150.678702	694.5
1151.234085	686.75
1151.78941	687.25
1152.344678	689.25
1152.899888	691.5
1153.455042	684.25
1154.010138	685.25
1154.565177	687.25
1155.120159	691.0
1155.675084	692.5
1156.229951	687.75
1156.784762	687.75
1157.339515	687.5
1157.894211	688.75
1158.44885	689.0
1159.003432	690.0
1159.557956	687.0
1160.112424	689.75
1160.666834	693.75
1161.221187	691.5
1161.775483	691.75
1162.329722	695.75
1162.883904	692.75
1163.438029	691.25
1163.992096	694.5
1164.546107	696.5
1165.10006	698.75
1165.653956	699.25
1166.207795	701.75
1166.761577	703.0
1167.315302	703.75
1167.86897	699.75
1168.422581	702.5
1168.976134	700.75
1169.529631	696.25
1170.08307	698.5
1170.636453	695.75
1171.189778	696.5
1171.743046	695.5
1172.296257	690.5
1172.849412	692.75
1173.402509	692.5
1173.955549	690.75
1174.508532	686.25
1175.061458	689.75
1175.614327	688.25
1176.167138	687.25
1176.719893	685.5
1177.272591	685.75
1177.825232	688.75
1178.377816	687.0
1178.930342	685.0
1179.482812	686.25
1180.035225	684.75
1180.587581	689.25
1181.139879	685.25
1181.692121	685.75
1182.244306	684.5
1182.796434	681.0
1183.348504	683.25
1183.900518	680.5
1184.452475	682.5
1185.004375	684.75
1185.556218	683.25
1186.108004	683.0
1186.659733	681.25
1187.211405	683.25
1187.76302	684.25
1188.314578	682.75
1188.866079	683.0
1189.417523	683.5
1189.96891	685.25
1190.520241	685.5
1191.071514	681.25
1191.622731	686.0
1192.17389	686.0
1192.724993	686.75
1193.276039	706.5
1193.827027	682.0
1194.377959	685.75
1194.928834	685.5
1195.479653	682.75
1196.030414	684.5
1196.581118	685.75
1197.131766	679.75
1197.682356	684.25
1198.23289	689.0
1198.783367	683.5
1199.333786	681.75
1199.88415	682.75
1200.434456	685.0
1200.984705	688.0
1201.534898	685.75
1202.085033	683.25
1202.635112	687.5
1203.185134	687.25
1203.735099	685.0
1204.285007	686.5
1204.834859	683.75
1205.384653	684.5
1205.934391	686.5
1206.484072	686.25
1207.033696	682.25
1207.583263	685.5
1208.132774	686.0
1208.682228	685.5
1209.231624	690.0
1209.780965	682.75
1210.330248	685.5
1210.879474	683.5
1211.428644	685.5
1211.977757	684.0
1212.526813	685.25
1213.075813	688.5
1213.624755	685.0
1214.173641	691.75
1214.72247	686.75
1215.271242	683.25
1215.819958	686.75
1216.368617	682.5
1216.917219	685.5
1217.465764	684.75
1218.014253	688.5
1218.562685	688.25
1219.11106	682.5
1219.659378	683.0
1220.20764	687.25
1220.755845	684.75
1221.303993	687.25
1221.852085	685.75
1222.400119	684.0
1222.948097	691.0
1223.496019	684.75
1224.043883	687.75
1224.591691	685.5
1225.139443	689.25
1225.687137	689.5
1226.234775	685.0
1226.782357	689.5
1227.329881	689.25
1227.877349	687.75
1228.42476	691.75
1228.972115	688.75
1229.519413	687.25
1230.066654	684.25
1230.613839	690.0
1231.160967	689.75
1231.708038	692.75
1232.255053	691.5
1232.802011	689.5
1233.348912	690.75
1233.895757	691.5
1234.442545	694.25
1234.989277	689.0
1235.535951	693.25
1236.08257	695.75
1236.629131	694.25
1237.175636	692.0
1237.722085	692.75
1238.268477	693.75
1238.814812	695.0
1239.361091	691.0
1239.907313	696.75
1240.453478	697.75
1240.999587	695.25
1241.54564	694.0
1242.091636	699.75
1242.637575	698.0
1243.183457	700.75
1243.729284	693.25
1244.275053	697.5
1244.820766	695.0
1245.366423	698.0
1245.912022	700.5
1246.457566	696.75
1247.003053	697.0
1247.548483	699.5
1248.093857	699.5
1248.639174	701.0
1249.184435	699.0
1249.729639	698.75
1250.274787	699.0
1250.819878	704.25
1251.364912	704.25
1251.909891	701.75
1252.454812	705.0
1252.999677	701.5
1253.544486	703.25
1254.089238	702.75
1254.633934	702.75
1255.178573	704.25
1255.723156	703.25
1256.267682	706.25
1256.812152	702.75
1257.356565	711.0
1257.900922	708.25
1258.445223	715.25
1258.989467	722.5
1259.533654	717.75
1260.077785	727.5
1260.62186	714.75
1261.165878	723.25
1261.70984	727.5
1262.253745	737.25
1262.797594	746.25
1263.341386	761.75
1263.885123	769.25
1264.428802	778.5
1264.972425	776.5
1265.515992	760.25
1266.059503	737.5
1266.602957	734.5
1267.146354	727.5
1267.689696	725.0
1268.23298	725.5
1268.776209	717.5
1269.319381	720.75
1269.862497	726.25
1270.405556	718.5
1270.948559	722.75
1271.491506	722.75
1272.034396	721.5
1272.57723	722.25
1273.120007	724.5
1273.662728	723.5
1274.205393	722.25
1274.748002	724.0
1275.290554	723.5
1275.83305	724.0
1276.375489	725.0
1276.917872	734.0
1277.460199	730.5
1278.00247	727.75
1278.544684	736.0
1279.086842	735.5
1279.628943	737.25
1280.170989	751.0
1280.712978	756.0
1281.25491	786.0
1281.796787	813.75
1282.338607	908.75
1282.880371	1072.5
1283.422078	1349.0
1283.963729	1733.0
1284.505324	1905.25
1285.046863	1677.25
1285.588345	1241.5
1286.129772	957.5
1286.671142	830.75
1287.212455	791.25
1287.753713	762.25
1288.294914	751.5
1288.836059	739.75
1289.377147	742.5
1289.91818	740.75
1290.459156	733.0
1291.000076	732.25
1291.54094	735.0
1292.081747	730.25
1292.622499	732.0
1293.163194	729.25
1293.703833	727.25
1294.244415	731.0
1294.784942	728.25
1295.325412	726.5
1295.865826	728.25
1296.406184	724.0
1296.946486	727.5
1297.486731	727.75
1298.026921	726.25
1298.567054	732.75
1299.107131	723.5
1299.647152	721.0
1300.187116	725.0
1300.727025	724.0
1301.266877	723.25
1301.806673	722.25
1302.346413	720.75
1302.886097	722.0
1303.425725	726.5
1303.965297	724.0
1304.504812	720.5
1305.044272	716.75
1305.583675	722.5
1306.123022	718.25
1306.662313	718.75
1307.201548	712.25
1307.740727	715.5
1308.279849	721.0
1308.818916	712.25
1309.357926	713.0
1309.896881	713.0
1310.435779	712.25
1310.974621	708.5
1311.513407	704.5
1312.052137	707.75
1312.590811	708.5
1313.129429	697.0
1313.667991	706.75
1314.206497	702.75
1314.744946	705.5
1315.28334	699.75
1315.821678	705.5
1316.359959	702.5
1316.898184	707.5
1317.436354	701.0
1317.974467	703.75
1318.512525	700.0
1319.050526	697.25
1319.588471	699.75
1320.12636	698.25
1320.664194	700.25
1321.201971	691.75
1321.739692	698.75
1322.277357	698.5
1322.814967	697.5
1323.35252	697.0
1323.890017	698.5
1324.427458	693.5
1324.964843	697.75
1325.502173	694.25
1326.039446	696.25
1326.576663	693.75
1327.113824	695.0
1327.65093	695.5
1328.187979	699.5
1328.724972	696.5
1329.26191	693.75
1329.798791	697.25
1330.335617	696.0
1330.872386	696.0
1331.4091	690.25
1331.945758	695.25
1332.48236	693.0
1333.018905	697.5
1333.555395	692.75
1334.091829	692.5
1334.628207	691.5
1335.164529	692.25
1335.700796	690.0
1336.237006	693.25
1336.77316	695.75
1337.309259	696.75
1337.845301	691.75
1338.381288	688.5
1338.917219	698.0
1339.453094	697.0
1339.988913	693.0
1340.524676	698.0
1341.060383	695.75
1341.596034	697.5
1342.13163	693.25
1342.66717	698.25
1343.202653	694.25
1343.738081	695.5
1344.273453	693.75
1344.80877	692.5
1345.34403	693.5
1345.879235	691.25
1346.414383	694.25
1346.949476	692.75
1347.484513	696.0
1348.019494	691.25
1348.55442	696.0
1349.089289	694.5
1349.624103	697.25
1350.158861	693.5
1350.693563	695.25
1351.228209	692.75
1351.7628	696.25
1352.297334	695.5
1352.831813	693.0
1353.366236	693.75
1353.900604	695.5
1354.434915	698.25
1354.969171	695.75
1355.503371	690.0
1356.037515	693.5
1356.571604	695.5
1357.105636	691.25
1357.639613	692.25
1358.173535	696.0
1358.7074	695.0
1359.24121	697.5
1359.774964	695.5
1360.308662	695.75
1360.842304	699.25
1361.375891	699.0
1361.909422	698.25
1362.442897	698.25
1362.976317	695.75
1363.50968	703.25
1364.042989	703.0
1364.576241	699.0
1365.109438	704.75
1365.642579	703.25
1366.175664	704.25
1366.708693	705.5
1367.241667	697.75
1367.774585	702.75
1368.307448	707.5
1368.840255	708.75
1369.373006	714.0
1369.905701	733.75
1370.438341	753.0
1370.970925	725.0
1371.503454	709.75
1372.035926	705.75
1372.568344	705.5
1373.100705	708.25
1373.633011	702.25
1374.165261	705.5
1374.697456	705.0
1375.229595	703.0
1375.761678	707.5
1376.293705	708.75
1376.825677	710.0
1377.357594	708.25
1377.889455	708.0
1378.42126	710.0
1378.953009	710.75
1379.484703	709.5
1380.016342	717.5
1380.547924	715.0
1381.079452	717.75
1381.610923	721.5
1382.142339	721.0
1382.673699	723.5
1383.205004	737.25
1383.736253	743.5
1384.267447	755.25
1384.798585	761.0
1385.329668	795.5
1385.860695	845.25
1386.391666	950.5
1386.922582	1195.25
1387.453442	1794.75
1387.984247	2864.0
1388.514996	3151.75
1389.04569	2045.75
1389.576328	1217.5
1390.10691	919.5
1390.637437	825.75
1391.167909	782.75
1391.698325	753.25
1392.228685	744.0
1392.75899	728.25
1393.28924	730.5
1393.819434	726.5
1394.349572	718.0
1394.879655	714.5
1395.409683	719.75
1395.939655	712.0
1396.469571	708.25
1396.999432	715.0
1397.529237	714.0
1398.058987	709.75
1398.588682	710.0
1399.118321	707.25
1399.647905	711.75
1400.177433	708.75
1400.706906	707.75
1401.236323	713.75
1401.765685	704.0
1402.294991	708.0
1402.824242	711.5
1403.353437	709.0
1403.882577	710.75
1404.411662	711.75
1404.940691	711.25
1405.469665	711.25
1405.998583	720.25
1406.527446	719.0
1407.056253	721.75
1407.585005	740.5
1408.113702	756.5
1408.642343	771.75
1409.170929	806.25
1409.69946	836.0
1410.227935	821.75
1410.756354	784.5
1411.284719	754.0
1411.813028	732.5
1412.341281	721.0
1412.869479	709.5
1413.397622	708.25
1413.92571	708.0
1414.453742	705.5
1414.981718	700.25
1415.50964	712.25
1416.037506	701.5
1416.565316	699.0
1417.093072	700.75
1417.620772	697.5
1418.148416	701.0
1418.676005	699.0
1419.203539	694.75
1419.731018	694.75
1420.258441	693.0
1420.785809	690.0
1421.313122	692.0
1421.840379	695.0
1422.367582	696.0
1422.894728	695.0
1423.42182	699.0
1423.948856	695.5
1424.475837	696.75
1425.002762	697.0
1425.529633	696.5
1426.056448	696.5
1426.583207	695.5
1427.109912	692.5
1427.636561	695.25
1428.163155	693.0
1428.689694	691.5
1429.216177	694.25
1429.742605	692.75
1430.268978	694.5
1430.795296	692.25
1431.321558	692.75
1431.847765	691.5
1432.373917	691.25
1432.900014	691.25
1433.426056	691.25
1433.952042	695.75
1434.477973	693.25
1435.003849	692.25
1435.529669	692.5
1436.055435	689.75
1436.581145	692.25
1437.1068	694.25
1437.632399	693.5
1438.157944	693.0
1438.683433	692.5
1439.208868	693.25
1439.734247	696.75
1440.25957	694.0
1440.784839	693.5
1441.310053	691.75
1441.835211	692.75
1442.360314	693.0
1442.885362	694.5
1443.410355	693.25
1443.935292	692.25
1444.460175	694.25
1444.985002	692.5
1445.509774	690.75
1446.034491	693.25
1446.559153	696.75
1447.08376	692.75
1447.608312	694.25
1448.132808	688.5
1448.65725	694.25
1449.181636	692.5
1449.705967	694.25
1450.230243	695.0
1450.754464	697.0
1451.27863	694.0
1451.802741	693.75
1452.326797	692.5
1452.850797	694.0
1453.374743	691.0
1453.898633	694.5
1454.422468	693.75
1454.946249	690.25
1455.469974	689.25
1455.993644	690.5
1456.517259	689.0
1457.040819	691.5
1457.564324	691.75
1458.087773	692.25
1458.611168	694.75
1459.134508	689.5
1459.657793	691.25
1460.181022	695.0
1460.704197	688.0
1461.227316	695.75
1461.750381	691.75
1462.27339	688.75
1462.796345	693.25
1463.319244	685.75
1463.842089	689.5
1464.364878	691.0
1464.887613	691.25
1465.410292	689.0
1465.932916	686.75
1466.455486	687.25
1466.978	688.0
1467.50046	689.25
1468.022864	683.75
1468.545214	685.25
1469.067508	687.25
1469.589748	685.75
1470.111932	687.25
1470.634062	684.5
1471.156136	684.5
1471.678156	685.0
1472.20012	684.75
1472.72203	686.0
1473.243885	685.5
1473.765685	687.75
1474.28743	686.25
1474.80912	680.5
1475.330755	685.5
1475.852335	684.25
1476.37386	682.25
1476.89533	684.0
1477.416745	686.0
1477.938106	682.5
1478.459411	686.0
1478.980662	684.0
1479.501857	686.25
1480.022998	685.25
1480.544084	686.5
1481.065115	683.25
1481.586091	684.5
1482.107012	684.0
1482.627878	686.0
1483.14869	687.0
1483.669446	686.25
1484.190148	684.5
1484.710794	689.5
1485.231386	687.75
1485.751923	686.5
1486.272406	687.5
1486.792833	689.0
1487.313205	687.0
1487.833523	688.5
1488.353786	689.75
1488.873994	685.75
1489.394147	693.5
1489.914245	684.25
1490.434288	693.25
1490.954277	692.75
1491.474211	691.25
1491.99409	691.25
1492.513914	691.0
1493.033683	688.0
1493.553398	689.5
1494.073057	688.25
1494.592662	687.0
1495.112212	686.75
1495.631708	683.25
1496.151148	684.25
1496.670534	684.75
1497.189865	685.75
1497.709141	686.75
1498.228362	684.75
1498.747529	684.5
1499.266641	684.25
1499.785698	693.25
1500.3047	685.0
1500.823648	683.75
1501.34254	684.0
1501.861379	686.25
1502.380162	684.0
1502.89889	684.25
1503.417564	683.5
1503.936183	685.75
1504.454748	685.0
1504.973257	682.25
1505.491712	684.0
1506.010112	685.0
1506.528458	683.25
1507.046748	683.25
1507.564984	682.25
1508.083166	682.75
1508.601292	682.5
1509.119364	682.5
1509.637381	687.0
1510.155344	681.0
1510.673252	694.0
1511.191105	684.5
1511.708903	683.75
1512.226647	685.75
1512.744336	684.75
1513.261971	683.25
1513.77955	682.75
1514.297076	681.5
1514.814546	682.25
1515.331962	682.0
1515.849323	680.75
1516.366629	678.0
1516.883881	681.75
1517.401078	679.5
1517.918221	682.75
1518.435309	684.0
1518.952342	684.25
1519.469321	683.0
1519.986245	684.25
1520.503114	682.5
1521.019929	681.25
1521.536689	685.25
1522.053395	683.5
1522.570046	680.25
1523.086642	682.25
1523.603184	682.0
1524.119671	683.75
1524.636103	683.5
1525.152481	681.0
1525.668805	681.75
1526.185073	686.0
1526.701288	684.75
1527.217447	687.0
1527.733552	680.5
1528.249603	682.5
1528.765599	680.25
1529.28154	683.75
1529.797427	685.25
1530.313259	679.75
1530.829037	681.25
1531.34476	683.75
1531.860429	680.5
1532.376043	677.5
1532.891602	681.75
1533.407107	682.0
1533.922558	681.5
1534.437954	681.25
1534.953295	683.25
1535.468582	684.75
1535.983815	684.0
1536.498993	681.5
1537.014116	684.25
1537.529185	686.75
1538.044199	683.75
1538.559159	684.25
1539.074064	684.0
1539.588915	680.25
1540.103712	684.0
1540.618454	684.5
1541.133141	682.25
1541.647774	681.75
1542.162353	680.5
1542.676877	683.0
1543.191346	684.5
1543.705761	680.5
1544.220122	683.5
1544.734428	683.25
1545.24868	683.0
1545.762877	683.75
1546.27702	683.75
1546.791109	682.5
1547.305143	678.75
1547.819122	682.25
1548.333047	679.75
1548.846918	679.25
1549.360734	685.0
1549.874496	687.0
1550.388204	679.0
1550.901857	680.75
1551.415455	687.5
1551.929	682.0
1552.442489	685.0
1552.955925	681.5
1553.469306	682.25
1553.982632	684.0
1554.495905	683.25
1555.009123	685.5
1555.522286	683.25
1556.035395	683.5
1556.54845	684.0
1557.06145	678.0
1557.574396	682.25
1558.087288	682.75
1558.600125	680.75
1559.112908	684.25
1559.625637	682.5
1560.138311	684.25
1560.650931	684.0
1561.163497	682.75
1561.676008	686.75
1562.188465	683.5
1562.700867	683.25
1563.213216	685.75
1563.725509	687.0
1564.237749	682.25
1564.749934	688.0
1565.262065	682.5
1565.774142	681.25
1566.286164	685.25
1566.798132	682.25
1567.310046	685.75
1567.821906	683.25
1568.333711	683.5
1568.845462	682.5
1569.357158	687.5
1569.868801	687.5
1570.380389	683.25
1570.891922	687.0
1571.403402	690.25
1571.914827	685.25
1572.426198	689.25
1572.937515	689.25
1573.448777	690.0
1573.959985	694.5
1574.471139	691.75
1574.982239	691.5
1575.493285	689.75
1576.004276	697.5
1576.515213	693.75
1577.026096	696.5
1577.536924	693.25
1578.047698	700.25
1578.558419	703.75
1579.069084	704.0
1579.579696	705.0
1580.090254	708.5
1580.600757	710.0
1581.111206	709.0
1581.621601	703.75
1582.131941	704.25
1582.642228	710.5
1583.15246	703.25
1583.662638	707.5
1584.172762	699.25
1584.682832	703.25
1585.192847	699.0
1585.702809	696.0
1586.212716	697.75
1586.722569	695.75
1587.232368	691.5
1587.742113	695.0
1588.251803	692.5
1588.76144	693.25
1589.271022	692.75
1589.78055	687.75
1590.290024	693.25
1590.799444	691.5
1591.30881	694.25
1591.818121	694.0
1592.327379	690.5
