1042.414189	680.5
1042.980685	674.25
1043.547124	673.5
1044.113505	680.25
1044.679828	675.5
1045.246093	675.0
1045.8123	673.25
1046.378449	675.75
1046.94454	672.25
1047.510573	670.5
1048.076548	671.0
1048.642465	672.5
1049.208325	672.0
1049.774126	670.25
1050.339869	671.0
1050.905555	669.75
1051.471183	670.0
1052.036752	669.5
1052.602264	669.5
1053.167718	670.25
1053.733114	669.25
1054.298452	669.5
1054.863733	668.75
1055.428955	668.5
1055.994119	669.5
1056.559226	668.75
1057.124275	669.25
1057.689266	667.5
1058.254199	669.5
1058.819074	669.0
1059.383891	665.75
1059.94865	666.5
1060.513352	668.75
1061.077996	669.25
1061.642582	667.75
1062.20711	668.0
1062.77158	670.5
1063.335992	665.25
1063.900347	667.25
1064.464643	669.75
1065.028882	665.75
1065.593063	668.75
1066.157187	669.5
1066.721252	667.75
1067.28526	666.25
1067.84921	663.75
1068.413102	666.0
1068.976936	669.25
1069.540713	667.75
1070.104431	675.5
1070.668092	668.0
1071.231696	668.25
1071.795241	665.75
1072.358729	668.0
1072.922159	667.75
1073.485531	666.0
1074.048845	669.0
1074.612102	664.5
1075.175301	664.25
1075.738442	665.25
1076.301525	667.0
1076.864551	666.5
1077.427519	667.5
1077.990429	665.75
1078.553281	667.0
1079.116076	664.75
1079.678813	665.25
1080.241492	667.75
1080.804114	665.75
1081.366678	666.75
1081.929184	665.5
1082.491633	667.5
1083.054024	666.5
1083.616357	666.0
1084.178632	663.75
1084.74085	667.75
1085.30301	665.0
1085.865113	669.75
1086.427158	666.75
1086.989145	665.75
1087.551074	667.75
1088.112946	667.0
1088.67476	665.75
1089.236517	665.75
1089.798216	667.75
1090.359857	665.25
1090.92144	667.5
1091.482966	665.5
1092.044435	664.0
1092.605845	669.75
1093.167199	667.5
1093.728494	666.25
1094.289732	668.25
1094.850912	663.75
1095.412035	674.75
1095.9731	667.75
1096.534107	667.25
1097.095057	670.5
1097.65595	667.5
1098.216784	665.25
1098.777561	664.25
1099.338281	666.75
1099.898943	668.75
1100.459547	664.75
1101.020094	665.5
1101.580584	664.5
1102.141015	664.0
1102.701389	666.5
1103.261706	667.75
1103.821965	667.25
1104.382167	665.25
1104.942311	667.0
1105.502397	666.0
1106.062426	666.25
1106.622398	667.25
1107.182312	675.75
1107.742168	796.5
1108.301967	665.0
1108.861708	668.25
1109.421392	667.5
1109.981019	667.5
1110.540587	667.5
1111.100099	666.5
1111.659553	668.25
1112.218949	664.0
1112.778288	665.75
1113.33757	667.0
1113.896794	667.25
1114.45596	664.25
1115.015069	663.75
1115.574121	663.25
1116.133115	666.0
1116.692052	665.0
1117.250931	665.0
1117.809753	667.25
1118.368517	665.0
1118.927224	665.0
1119.485873	662.25
1120.044465	664.25
1120.603	665.5
1121.161477	666.0
1121.719897	668.75
1122.278259	663.75
1122.836564	668.0
1123.394812	664.25
1123.953002	666.5
1124.511135	665.25
1125.06921	664.0
1125.627228	670.75
1126.185189	1148.5
1126.743092	700.5
1127.300938	665.0
1127.858726	666.25
1128.416457	668.75
1128.974131	665.5
1129.531748	665.5
1130.089307	667.5
1130.646808	665.5
1131.204252	669.0
1131.761639	668.0
1132.318969	665.25
1132.876241	668.75
1133.433456	666.0
1133.990614	666.5
1134.547714	664.75
1135.104757	667.0
1135.661743	664.25
1136.218671	667.25
1136.775542	665.75
1137.332356	663.75
1137.889112	668.0
1138.445811	665.25
1139.002453	665.5
1139.559037	665.75
1140.115565	666.25
1140.672035	664.75
1141.228447	662.5
1141.784803	666.5
1142.341101	665.75
1142.897342	664.75
1143.453525	664.75
1144.009651	666.5
1144.565721	666.5
1145.121732	664.5
1145.677687	664.25
1146.233584	666.5
1146.789424	668.75
1147.345207	666.0
1147.900933	665.0
1148.456601	667.75
1149.012212	664.25
1149.567766	664.75
1150.123263	666.25
1150.678702	666.25
1151.234085	665.0
1151.78941	669.25
1152.344678	666.0
1152.899888	666.5
1153.455042	667.0
1154.010138	668.25
1154.565177	665.25
1155.120159	666.25
1155.675084	661.25
1156.229951	665.25
1156.784762	665.0
1157.339515	664.25
1157.894211	666.75
1158.44885	666.75
1159.003432	664.25
1159.557956	665.0
1160.112424	664.5
1160.666834	663.25
1161.221187	662.25
1161.775483	666.5
1162.329722	665.25
1162.883904	666.25
1163.438029	665.5
1163.992096	666.0
1164.546107	664.75
1165.10006	664.5
1165.653956	665.25
1166.207795	663.0
1166.761577	666.25
1167.315302	663.5
1167.86897	660.75
1168.422581	666.5
1168.976134	666.0
1169.529631	663.75
1170.08307	665.5
1170.636453	666.5
1171.189778	666.75
1171.743046	665.0
1172.296257	665.0
1172.849412	665.75
1173.402509	666.5
1173.955549	666.75
1174.508532	665.5
1175.061458	665.25
1175.614327	666.75
1176.167138	663.25
1176.719893	663.25
1177.272591	663.0
1177.825232	666.75
1178.377816	665.75
1178.930342	663.25
1179.482812	667.25
1180.035225	663.75
1180.587581	662.5
1181.139879	663.25
1181.692121	665.5
1182.244306	666.0
1182.796434	665.0
1183.348504	664.75
1183.900518	662.5
1184.452475	665.25
1185.004375	665.0
1185.556218	664.0
1186.108004	663.25
1186.659733	666.25
1187.211405	665.0
1187.76302	664.5
1188.314578	665.25
1188.866079	664.75
1189.417523	667.25
1189.96891	663.5
1190.520241	665.5
1191.071514	666.0
1191.622731	666.25
1192.17389	664.75
1192.724993	665.0
1193.276039	687.5
1193.827027	666.5
1194.377959	664.75
1194.928834	667.0
1195.479653	667.75
1196.030414	666.25
1196.581118	668.25
1197.131766	664.75
1197.682356	666.0
1198.23289	667.25
1198.783367	666.5
1199.333786	665.5
1199.88415	667.75
1200.434456	664.5
1200.984705	666.25
1201.534898	666.0
1202.085033	664.75
1202.635112	665.5
1203.185134	665.0
1203.735099	665.0
1204.285007	665.5
1204.834859	666.5
1205.384653	665.5
1205.934391	664.25
1206.484072	664.25
1207.033696	665.0
1207.583263	664.75
1208.132774	662.25
1208.682228	665.5
1209.231624	665.25
1209.780965	664.25
1210.330248	668.0
1210.879474	665.0
1211.428644	666.0
1211.977757	666.5
1212.526813	663.0
1213.075813	667.5
1213.624755	663.5
1214.173641	666.75
1214.72247	666.75
1215.271242	665.5
1215.819958	667.75
1216.368617	664.0
1216.917219	663.5
1217.465764	665.75
1218.014253	664.75
1218.562685	663.5
1219.11106	663.0
1219.659378	667.75
1220.20764	664.5
1220.755845	664.75
1221.303993	665.75
1221.852085	665.5
1222.400119	666.5
1222.948097	669.0
1223.496019	664.75
1224.043883	662.75
1224.591691	664.25
1225.139443	665.25
1225.687137	664.25
1226.234775	666.25
1226.782357	665.25
1227.329881	666.0
1227.877349	667.25
1228.42476	667.5
1228.972115	664.75
1229.519413	668.25
1230.066654	666.5
1230.613839	667.25
1231.160967	667.5
1231.708038	669.0
1232.255053	665.5
1232.802011	663.25
1233.348912	666.5
1233.895757	665.0
1234.442545	664.0
1234.989277	667.5
1235.535951	664.75
1236.08257	665.25
1236.629131	664.5
1237.175636	664.5
1237.722085	664.25
1238.268477	668.25
1238.814812	665.0
1239.361091	667.75
1239.907313	668.75
1240.453478	668.5
1240.999587	664.25
1241.54564	662.0
1242.091636	665.25
1242.637575	668.25
1243.183457	666.25
1243.729284	663.75
1244.275053	664.0
1244.820766	668.5
1245.366423	664.75
1245.912022	662.25
1246.457566	668.25
1247.003053	665.0
1247.548483	663.0
1248.093857	667.75
1248.639174	664.25
1249.184435	664.5
1249.729639	668.25
1250.274787	664.5
1250.819878	666.5
1251.364912	662.75
1251.909891	664.25
1252.454812	665.5
1252.999677	663.5
1253.544486	663.0
1254.089238	666.75
1254.633934	665.5
1255.178573	665.5
1255.723156	667.0
1256.267682	666.0
1256.812152	663.5
1257.356565	665.25
1257.900922	665.0
1258.445223	664.0
1258.989467	662.25
1259.533654	666.5
1260.077785	676.75
1260.62186	665.25
1261.165878	666.25
1261.70984	666.5
1262.253745	665.25
1262.797594	666.25
1263.341386	665.5
1263.885123	665.25
1264.428802	666.75
1264.972425	665.25
1265.515992	668.75
1266.059503	669.0
1266.602957	670.5
1267.146354	664.0
1267.689696	664.5
1268.23298	666.0
1268.776209	663.75
1269.319381	666.75
1269.862497	664.0
1270.405556	663.0
1270.948559	663.25
1271.491506	664.25
1272.034396	668.25
1272.57723	665.25
1273.120007	664.0
1273.662728	665.25
1274.205393	663.75
1274.748002	666.5
1275.290554	662.75
1275.83305	664.25
1276.375489	668.0
1276.917872	666.0
1277.460199	665.0
1278.00247	665.5
1278.544684	665.25
1279.086842	664.0
1279.628943	665.75
1280.170989	664.75
1280.712978	665.75
1281.25491	663.25
1281.796787	665.0
1282.338607	665.0
1282.880371	666.25
1283.422078	666.0
1283.963729	664.0
1284.505324	669.75
1285.046863	676.75
1285.588345	703.75
1286.129772	725.5
1286.671142	688.0
1287.212455	674.75
1287.753713	670.5
1288.294914	665.25
1288.836059	668.0
1289.377147	664.5
1289.91818	665.25
1290.459156	663.0
1291.000076	663.5
1291.54094	667.5
1292.081747	667.0
1292.622499	663.5
1293.163194	663.5
1293.703833	663.25
1294.244415	663.75
1294.784942	664.75
1295.325412	663.0
1295.865826	664.25
1296.406184	664.25
1296.946486	665.25
1297.486731	662.75
1298.026921	664.5
1298.567054	664.75
1299.107131	664.75
1299.647152	664.5
1300.187116	664.75
1300.727025	666.0
1301.266877	665.0
1301.806673	665.25
1302.346413	664.5
1302.886097	667.25
1303.425725	665.0
1303.965297	663.5
1304.504812	663.25
1305.044272	662.75
1305.583675	667.25
1306.123022	663.5
1306.662313	665.0
1307.201548	665.0
1307.740727	665.25
1308.279849	663.0
1308.818916	663.25
1309.357926	664.0
1309.896881	665.75
1310.435779	664.5
1310.974621	662.75
1311.513407	663.5
1312.052137	665.5
1312.590811	665.75
1313.129429	661.0
1313.667991	664.0
1314.206497	665.75
1314.744946	666.25
1315.28334	663.5
1315.821678	663.0
1316.359959	663.75
1316.898184	665.0
1317.436354	664.75
1317.974467	665.0
1318.512525	664.0
1319.050526	664.75
1319.588471	663.75
1320.12636	672.75
1321.201971	662.75
1321.739692	666.25
1322.277357	666.0
1322.814967	662.75
1323.35252	663.75
1323.890017	668.0
1324.427458	662.75
1324.964843	662.0
1325.502173	666.0
1326.039446	664.75
1326.576663	664.75
1327.113824	667.5
1327.65093	666.75
1328.187979	666.75
1328.724972	665.75
1329.26191	663.25
1329.798791	665.25
1330.335617	664.25
1330.872386	665.75
1331.4091	662.25
1331.945758	663.5
1332.48236	664.0
1333.018905	665.25
1333.555395	665.75
1334.091829	662.75
1334.628207	666.25
1335.164529	665.75
1335.700796	663.0
1336.237006	664.25
1336.77316	664.75
1337.309259	667.75
1337.845301	662.5
1338.381288	664.25
1338.917219	664.0
1339.453094	664.75
1339.988913	663.0
1340.524676	664.25
1341.060383	662.25
1341.596034	663.0
1342.13163	663.25
1342.66717	664.0
1343.202653	664.75
1343.738081	663.25
1344.273453	665.25
1344.80877	662.75
1345.34403	662.25
1345.879235	665.5
1346.414383	666.0
1346.949476	666.5
1347.484513	664.5
1348.019494	663.75
1348.55442	661.75
1349.089289	664.5
1349.624103	666.5
1350.158861	663.5
1350.693563	667.0
1351.228209	663.25
1351.7628	667.0
1352.297334	663.0
1352.831813	663.0
1353.366236	663.5
1353.900604	664.25
1354.434915	662.25
1354.969171	666.25
1355.503371	664.25
1356.037515	662.25
1356.571604	662.5
1357.105636	663.75
1357.639613	664.5
1358.173535	662.75
1358.7074	665.5
1359.24121	660.75
1359.774964	666.0
1360.308662	664.5
1360.842304	663.0
1361.375891	662.5
1361.909422	660.5
1362.442897	661.5
1362.976317	662.75
1363.50968	662.75
1364.042989	663.75
1364.576241	662.75
1365.109438	664.25
1365.642579	662.75
1366.175664	664.75
1366.708693	662.5
1367.241667	665.5
1367.774585	663.25
1368.307448	662.25
1368.840255	664.5
1369.373006	666.0
1369.905701	664.5
1370.438341	665.5
1370.970925	665.25
1371.503454	664.0
1372.035926	662.5
1372.568344	666.25
1373.100705	665.5
1373.633011	664.25
1374.165261	665.0
1374.697456	663.5
1375.229595	663.0
1375.761678	667.25
1376.293705	664.5
1376.825677	667.75
1377.357594	664.75
1377.889455	665.25
1378.42126	661.75
1378.953009	664.75
1379.484703	665.5
1380.016342	663.5
1380.547924	663.75
1381.079452	666.5
1381.610923	662.75
1382.142339	661.5
1382.673699	662.75
1383.205004	664.25
1383.736253	664.75
1384.267447	664.75
1384.798585	661.5
1385.329668	664.0
1385.860695	661.75
1386.391666	665.0
1386.922582	668.5
1387.453442	666.5
1387.984247	672.25
1388.514996	694.25
1389.04569	760.25
1389.576328	744.25
1390.10691	681.75
1390.637437	671.25
1391.167909	666.25
1391.698325	664.0
1392.228685	665.25
1392.75899	663.75
1393.28924	665.0
1393.819434	665.5
1394.349572	661.75
1394.879655	663.5
1395.409683	665.25
1395.939655	662.75
1396.469571	663.0
1396.999432	664.5
1397.529237	667.25
1398.058987	664.75
1398.588682	663.0
1399.118321	663.0
1399.647905	665.5
1400.177433	663.75
1400.706906	663.5
1401.236323	664.0
1401.765685	664.25
1402.294991	666.25
1402.824242	664.75
1403.353437	662.0
1403.882577	665.5
1404.411662	662.0
1404.940691	667.0
1405.469665	666.0
1405.998583	662.75
1406.527446	661.0
1407.056253	665.25
1407.585005	663.5
1408.113702	664.0
1408.642343	663.75
1409.170929	666.5
1409.69946	665.5
1410.227935	667.75
1410.756354	670.75
1411.284719	666.0
1411.813028	664.75
1412.341281	666.25
1412.869479	662.75
1413.397622	663.5
1413.92571	662.5
1414.453742	663.75
1414.981718	665.25
1415.50964	675.5
1416.037506	668.25
1416.565316	662.5
1417.093072	662.0
1417.620772	665.25
1418.148416	665.5
1418.676005	664.75
1419.203539	663.0
1419.731018	660.5
1420.258441	663.75
1420.785809	662.5
1421.313122	663.75
1421.840379	661.5
1422.367582	664.25
1422.894728	663.0
1423.42182	662.75
1423.948856	666.0
1424.475837	666.0
1425.002762	665.25
1425.529633	664.5
1426.056448	664.0
1426.583207	664.0
1427.109912	665.5
1427.636561	660.0
1428.163155	664.25
1428.689694	660.25
1429.216177	662.5
1429.742605	663.0
1430.268978	664.0
1430.795296	664.5
1431.321558	661.75
1431.847765	664.25
1432.373917	663.25
1432.900014	662.0
1433.426056	664.0
1433.952042	663.0
1434.477973	664.5
1435.003849	662.25
1435.529669	664.75
1436.055435	664.25
1436.581145	662.0
1437.1068	662.5
1437.632399	661.5
1438.157944	662.75
1438.683433	665.0
1439.208868	664.75
1439.734247	662.5
1440.25957	664.25
1440.784839	665.25
1441.310053	664.5
1441.835211	664.5
1442.360314	662.5
1442.885362	661.5
1443.410355	661.0
1443.935292	661.25
1444.460175	663.0
1444.985002	663.0
1445.509774	664.75
1446.034491	664.0
1446.559153	661.5
1447.08376	664.75
1447.608312	663.25
1448.132808	663.25
1448.65725	661.75
1449.181636	663.5
1449.705967	661.5
1450.230243	666.75
1450.754464	663.0
1451.27863	665.25
1451.802741	665.5
1452.326797	665.5
1452.850797	664.5
1453.374743	662.5
1453.898633	661.75
1454.422468	663.75
1454.946249	666.25
1455.469974	662.25
1455.993644	664.75
1456.517259	662.75
1457.040819	660.25
1457.564324	663.75
1458.087773	664.5
1458.611168	660.5
1459.134508	662.75
1459.657793	665.75
1460.181022	665.0
1460.704197	662.75
1461.227316	666.25
1461.750381	662.25
1462.27339	665.25
1462.796345	663.5
1463.319244	663.5
1463.842089	662.5
1464.364878	666.0
1464.887613	662.0
1465.410292	663.0
1465.932916	661.25
1466.455486	662.0
1466.978	664.0
1467.50046	661.5
1468.022864	664.75
1468.545214	664.5
1469.067508	662.5
1469.589748	664.25
1470.111932	664.5
1470.634062	661.75
1471.156136	663.75
1471.678156	663.75
1472.20012	664.25
1472.72203	665.0
1473.243885	662.75
1473.765685	660.75
1474.28743	665.0
1474.80912	662.25
1475.330755	663.0
1475.852335	665.0
1476.37386	662.5
1476.89533	663.75
1477.416745	663.0
1477.938106	665.0
1478.459411	661.25
1478.980662	661.25
1479.501857	665.75
1480.022998	663.25
1480.544084	663.75
1481.065115	661.25
1481.586091	663.75
1482.107012	663.0
1482.627878	663.75
1483.14869	664.5
1483.669446	662.25
1484.190148	662.75
1484.710794	665.75
1485.231386	663.0
1485.751923	665.25
1486.272406	661.25
1486.792833	664.0
1487.313205	663.5
1487.833523	663.25
1488.353786	662.75
1488.873994	664.0
1489.394147	664.5
1489.914245	662.25
1490.434288	660.0
1490.954277	662.5
1491.474211	662.25
1491.99409	665.25
1492.513914	663.5
1493.033683	664.75
1493.553398	663.0
1494.073057	664.5
1494.592662	664.0
1495.112212	662.75
1495.631708	661.5
1496.151148	661.0
1496.670534	663.0
1497.189865	661.25
1497.709141	663.5
1498.228362	664.75
1498.747529	662.75
1499.266641	662.5
1499.785698	671.25
1500.3047	658.75
1500.823648	661.25
1501.34254	660.5
1501.861379	661.0
1502.380162	661.75
1502.89889	660.5
1503.417564	664.75
1503.936183	665.5
1504.454748	662.0
1504.973257	663.25
1505.491712	662.5
1506.010112	663.25
1506.528458	662.0
1507.046748	664.75
1507.564984	663.0
1508.083166	661.75
1508.601292	660.75
1509.119364	662.75
1509.637381	663.75
1510.155344	661.0
1510.673252	674.5
1511.191105	666.75
1511.708903	661.75
1512.226647	661.0
1512.744336	664.75
1513.261971	661.75
1513.77955	663.0
1514.297076	662.25
1514.814546	664.0
1515.331962	663.0
1515.849323	662.5
1516.366629	663.0
1516.883881	663.25
1517.401078	662.5
1517.918221	660.5
1518.435309	663.5
1518.952342	662.25
1519.469321	662.75
1519.986245	663.25
1520.503114	661.75
1521.019929	660.25
1521.536689	661.75
1522.053395	664.5
1522.570046	663.75
1523.086642	663.25
1523.603184	665.0
1524.119671	662.25
1524.636103	661.5
1525.152481	664.25
1525.668805	661.5
1526.185073	662.25
1526.701288	662.5
1527.217447	658.5
1527.733552	662.75
1528.249603	660.75
1528.765599	660.5
1529.28154	660.5
1529.797427	661.5
1530.313259	662.25
1530.829037	664.0
1531.34476	662.0
1531.860429	665.5
1532.376043	663.75
1532.891602	662.5
1533.407107	662.5
1533.922558	664.25
1534.437954	662.75
1534.953295	663.5
1535.468582	659.75
1535.983815	663.25
1536.498993	660.25
1537.014116	663.0
1537.529185	662.0
1538.044199	662.0
1538.559159	663.25
1539.074064	664.75
1539.588915	663.0
1540.103712	661.5
1540.618454	661.5
1541.133141	664.75
1541.647774	661.75
1542.162353	662.75
1542.676877	662.5
1543.191346	662.5
1543.705761	660.25
1544.220122	663.0
1544.734428	662.75
1545.24868	660.75
1545.762877	664.5
1546.27702	661.25
1546.791109	660.75
1547.305143	664.5
1547.819122	662.75
1548.333047	662.0
1548.846918	662.75
1549.360734	663.75
1549.874496	663.75
1550.388204	663.75
1550.901857	660.25
1551.415455	661.5
1551.929	662.5
1552.442489	662.0
1552.955925	662.25
1553.469306	663.0
1553.982632	665.5
1554.495905	666.75
1555.009123	663.25
1555.522286	661.75
1556.035395	661.5
1556.54845	660.5
1557.06145	658.75
1557.574396	662.0
1558.087288	661.75
1558.600125	661.0
1559.112908	662.0
1559.625637	662.25
1560.138311	661.5
1560.650931	661.25
1561.163497	663.75
1561.676008	663.75
1562.188465	663.5
1562.700867	661.75
1563.213216	662.25
1563.725509	661.25
1564.237749	661.5
1564.749934	663.5
1565.262065	662.75
1565.774142	664.25
1566.286164	663.0
1566.798132	661.75
1567.310046	661.25
1567.821906	660.75
1568.333711	664.25
1568.845462	660.25
1569.357158	665.75
1569.868801	663.5
1570.380389	663.5
1570.891922	657.5
1571.403402	664.25
1571.914827	660.0
1572.426198	662.25
1572.937515	662.25
1573.448777	664.5
1573.959985	663.75
1574.471139	662.5
1574.982239	660.75
1575.493285	663.25
1576.004276	661.75
1576.515213	664.5
1577.026096	663.0
1577.536924	662.25
1578.047698	663.25
1578.558419	662.0
1579.069084	661.5
1579.579696	661.75
1580.090254	663.0
1580.600757	662.25
1581.111206	660.25
1581.621601	661.5
1582.131941	664.5
1582.642228	660.75
1583.15246	661.0
1583.662638	662.25
1584.172762	662.25
1584.682832	663.0
1585.192847	660.5
1585.702809	660.0
1586.212716	661.5
1586.722569	663.25
1587.232368	661.0
1587.742113	661.0
1588.251803	663.25
1588.76144	662.0
1589.271022	666.0
1589.78055	664.75
1590.290024	661.5
1590.799444	662.25
1591.30881	662.75
1591.818121	662.25
1592.327379	660.5
