1042.414189	1092.0
1042.980685	1096.75
1043.547124	1095.25
1044.113505	1092.75
1044.679828	1101.0
1045.246093	1093.75
1045.8123	1082.25
1046.378449	1087.25
1046.94454	1077.75
1047.510573	1079.5
1048.076548	1080.5
1048.642465	1075.25
1049.208325	1068.5
1049.774126	1081.0
1050.339869	1072.25
1050.905555	1071.25
1051.471183	1075.75
1052.036752	1072.5
1052.602264	1052.25
1053.167718	1062.75
1053.733114	1066.25
1054.298452	1056.5
1054.863733	1068.0
1055.428955	1057.5
1055.994119	1051.5
1056.559226	1077.75
1057.124275	1059.25
1057.689266	1058.0
1058.254199	1047.0
1058.819074	1067.5
1059.383891	1048.75
1059.94865	1060.25
1060.513352	1058.75
1061.077996	1060.75
1061.642582	1051.5
1062.20711	1045.75
1062.77158	1046.75
1063.335992	1062.5
1063.900347	1052.0
1064.464643	1053.0
1065.028882	1050.25
1065.593063	1059.0
1066.157187	1056.75
1066.721252	1049.0
1067.28526	1052.75
1067.84921	1049.25
1068.413102	1046.25
1068.976936	1050.0
1069.540713	1045.5
1070.104431	1061.25
1070.668092	1059.0
1071.231696	1052.75
1071.795241	1042.0
1072.358729	1054.25
1072.922159	1028.75
1073.485531	1047.5
1074.048845	1047.0
1074.612102	1040.5
1075.175301	1054.5
1075.738442	1043.25
1076.301525	1046.0
1076.864551	1035.0
1077.427519	1045.25
1077.990429	1057.5
1078.553281	1040.75
1079.116076	1050.75
1079.678813	1039.0
1080.241492	1037.75
1080.804114	1043.0
1081.366678	1043.25
1081.929184	1045.5
1082.491633	1048.25
1083.054024	1049.5
1083.616357	1044.75
1084.178632	1039.0
1084.74085	1050.75
1085.30301	1035.75
1085.865113	1039.5
1086.427158	1027.5
1086.989145	1034.0
1087.551074	1032.0
1088.112946	1037.25
1088.67476	1036.75
1089.236517	1038.25
1089.798216	1035.5
1090.359857	1037.25
1090.92144	1033.5
1091.482966	1045.25
1092.044435	1037.75
1092.605845	1043.75
1093.167199	1032.25
1093.728494	1033.25
1094.289732	1034.75
1094.850912	1022.5
1095.412035	1042.0
1095.9731	1041.0
1096.534107	1022.25
1097.095057	1042.5
1097.65595	1037.0
1098.216784	1037.0
1098.777561	1038.5
1099.338281	1036.75
1099.898943	1037.25
1100.459547	1023.25
1101.020094	1040.75
1101.580584	1030.0
1102.141015	1029.75
1102.701389	1025.25
1103.261706	1026.5
1103.821965	1031.0
1104.382167	1021.25
1104.942311	1043.5
1105.502397	1026.25
1106.062426	1022.25
1106.622398	1029.5
1107.182312	1018.25
1107.742168	1032.5
1108.301967	1034.5
1108.861708	1016.0
1109.421392	1022.0
1109.981019	1025.0
1110.540587	1015.0
1111.100099	1023.25
1111.659553	1022.5
1112.218949	1021.75
1112.778288	1021.5
1113.33757	1022.0
1113.896794	1020.75
1114.45596	1026.25
1115.015069	1025.25
1115.574121	1015.0
1116.133115	1022.5
1116.692052	1020.5
1117.250931	1019.5
1117.809753	1019.0
1118.368517	1025.25
1118.927224	1020.5
1119.485873	1030.5
1120.044465	1026.75
1120.603	1025.0
1121.161477	1014.5
1121.719897	1022.0
1122.278259	1012.25
1122.836564	1002.25
1123.394812	1012.5
1123.953002	1017.25
1124.511135	1024.75
1125.06921	1013.0
1125.627228	1017.75
1126.185189	1006.5
1126.743092	1030.25
1127.300938	1024.0
1127.858726	1018.75
1128.416457	1019.75
1128.974131	1021.75
1129.531748	1016.5
1130.089307	1026.25
1130.646808	1012.25
1131.204252	1015.75
1131.761639	1023.5
1132.318969	1023.0
1132.876241	1010.5
1133.433456	1015.25
1133.990614	1006.25
1134.547714	1006.0
1135.104757	1010.75
1135.661743	1004.75
1136.218671	1017.0
1136.775542	1004.25
1137.332356	1008.0
1137.889112	1024.75
1138.445811	1011.75
1139.002453	1015.0
1139.559037	1010.5
1140.115565	1011.75
1140.672035	1024.25
1141.228447	1011.25
1141.784803	1014.25
1142.341101	1018.25
1142.897342	1013.25
1143.453525	1020.75
1144.009651	1004.0
1144.565721	1006.25
1145.121732	1013.0
1145.677687	1016.75
1146.233584	1010.0
1146.789424	1008.0
1147.345207	1002.75
1147.900933	1008.25
1148.456601	1007.75
1149.012212	1008.5
1149.567766	1016.25
1150.123263	1012.75
1150.678702	1016.5
1151.234085	1022.0
1151.78941	1014.75
1152.344678	1015.75
1152.899888	1013.75
1153.455042	1019.5
1154.010138	1003.25
1154.565177	1004.25
1155.120159	1006.0
1155.675084	1008.25
1156.229951	1014.75
1156.784762	1004.25
1157.339515	1008.75
1157.894211	1013.75
1158.44885	1010.5
1159.003432	1017.0
1159.557956	1006.0
1160.112424	1026.0
1160.666834	1010.25
1161.221187	1018.75
1161.775483	1011.25
1162.329722	1008.25
1162.883904	1010.25
1163.438029	1002.5
1163.992096	1014.5
1164.546107	1015.25
1165.10006	1015.5
1165.653956	1008.75
1166.207795	1014.25
1166.761577	1004.75
1167.315302	1007.0
1167.86897	1011.75
1168.422581	1003.25
1168.976134	1013.0
1169.529631	1018.75
1170.08307	1019.5
1170.636453	1010.75
1171.189778	1009.5
1171.743046	1017.75
1172.296257	1014.75
1172.849412	1002.5
1173.402509	1020.25
1173.955549	1013.25
1174.508532	1010.75
1175.061458	1016.5
1175.614327	997.5
1176.167138	1008.75
1176.719893	1011.25
1177.272591	1009.75
1177.825232	1005.5
1178.377816	1015.75
1178.930342	1002.75
1179.482812	1005.5
1180.035225	1006.0
1180.587581	1010.25
1181.139879	1009.25
1181.692121	1008.25
1182.244306	1006.25
1182.796434	1009.5
1183.348504	999.5
1183.900518	1002.0
1184.452475	1007.0
1185.004375	1011.75
1185.556218	1005.75
1186.108004	1006.0
1186.659733	998.5
1187.211405	1006.0
1187.76302	1013.5
1188.314578	1013.25
1188.866079	1004.0
1189.417523	1000.75
1189.96891	1005.0
1190.520241	1010.5
1191.071514	1007.25
1191.622731	997.0
1192.17389	997.0
1192.724993	996.0
1193.276039	1021.25
1193.827027	995.25
1194.377959	1007.75
1194.928834	1011.0
1195.479653	1010.25
1196.030414	1002.5
1196.581118	1013.5
1197.131766	991.75
1197.682356	1002.25
1198.23289	990.5
1198.783367	1017.0
1199.333786	1006.25
1199.88415	1006.25
1200.434456	1000.75
1200.984705	997.0
1201.534898	998.5
1202.085033	998.0
1202.635112	1004.0
1203.185134	993.75
1203.735099	995.75
1204.285007	1006.25
1204.834859	1003.0
1205.384653	1008.75
1205.934391	1003.0
1206.484072	997.75
1207.033696	1004.5
1207.583263	989.5
1208.132774	1008.5
1208.682228	1001.5
1209.231624	998.25
1209.780965	993.75
1210.330248	1009.25
1210.879474	1010.0
1211.428644	1008.5
1211.977757	1001.5
1212.526813	1004.25
1213.075813	995.5
1213.624755	993.0
1214.173641	1000.25
1214.72247	1005.5
1215.271242	1006.0
1215.819958	989.0
1216.368617	985.0
1216.917219	1003.75
1217.465764	992.5
1218.014253	1001.5
1218.562685	1000.25
1219.11106	1002.75
1219.659378	990.5
1220.20764	1011.0
1220.755845	994.25
1221.303993	995.0
1221.852085	992.0
1222.400119	995.25
1222.948097	1002.0
1223.496019	998.25
1224.043883	1006.0
1224.591691	999.25
1225.139443	998.0
1225.687137	995.0
1226.234775	991.5
1226.782357	1000.25
1227.329881	986.5
1227.877349	981.75
1228.42476	985.25
1228.972115	998.0
1229.519413	988.0
1230.066654	996.25
1230.613839	1005.25
1231.160967	991.75
1231.708038	1001.0
1232.255053	992.75
1232.802011	995.5
1233.348912	984.75
1233.895757	1004.5
1234.442545	992.0
1234.989277	994.25
1235.535951	992.75
1236.08257	1001.75
1236.629131	983.25
1237.175636	983.0
1237.722085	988.0
1238.268477	1001.0
1238.814812	988.5
1239.361091	993.75
1239.907313	993.0
1240.453478	999.25
1240.999587	987.25
1241.54564	998.0
1242.091636	997.75
1242.637575	994.25
1243.183457	987.25
1243.729284	999.0
1244.275053	1002.25
1244.820766	989.75
1245.366423	999.25
1245.912022	994.0
1246.457566	997.75
1247.003053	996.75
1247.548483	1004.25
1248.093857	1000.75
1248.639174	997.0
1249.184435	982.75
1249.729639	998.0
1250.274787	987.5
1250.819878	993.75
1251.364912	988.0
1251.909891	998.25
1252.454812	995.0
1252.999677	1004.0
1253.544486	1004.5
1254.089238	997.75
1254.633934	994.5
1255.178573	992.75
1255.723156	984.5
1256.267682	1008.5
1256.812152	986.0
1257.356565	993.5
1257.900922	989.75
1258.445223	998.5
1258.989467	1001.5
1259.533654	1012.75
1260.077785	1015.5
1260.62186	999.75
1261.165878	1013.75
1261.70984	1013.25
1262.253745	1014.75
1262.797594	1028.5
1263.341386	1042.25
1263.885123	1049.25
1264.428802	1071.25
1264.972425	1067.75
1265.515992	1053.5
1266.059503	1038.0
1266.602957	1014.0
1267.146354	1005.5
1267.689696	1009.75
1268.23298	999.75
1268.776209	1002.5
1269.319381	994.75
1269.862497	996.75
1270.405556	1003.75
1270.948559	1001.25
1271.491506	994.75
1272.034396	1008.5
1272.57723	1015.25
1273.120007	1009.0
1273.662728	993.0
1274.205393	995.25
1274.748002	995.5
1275.290554	996.25
1275.83305	992.75
1276.375489	1005.75
1276.917872	999.5
1277.460199	1011.25
1278.00247	1017.25
1278.544684	1005.75
1279.086842	1007.75
1279.628943	997.25
1280.170989	1019.5
1280.712978	1025.25
1281.25491	1046.25
1281.796787	1087.0
1282.338607	1125.5
1282.880371	1265.5
1283.422078	1500.0
1283.963729	1814.5
1284.505324	2042.5
1285.046863	1973.25
1285.588345	1623.25
1286.129772	1321.5
1286.671142	1138.0
1287.212455	1062.25
1287.753713	1028.25
1288.294914	1026.0
1288.836059	1024.0
1289.377147	1004.5
1289.91818	1018.25
1290.459156	999.0
1291.000076	995.0
1291.54094	1001.0
1292.081747	999.5
1292.622499	990.75
1293.163194	992.25
1293.703833	990.0
1294.244415	1001.25
1294.784942	981.0
1295.325412	1002.75
1295.865826	990.0
1296.406184	998.75
1296.946486	992.75
1297.486731	999.25
1298.026921	993.5
1298.567054	998.25
1299.107131	993.25
1299.647152	995.5
1300.187116	985.0
1300.727025	993.75
1301.266877	977.5
1301.806673	985.0
1302.346413	987.25
1302.886097	992.0
1303.425725	993.25
1303.965297	988.5
1304.504812	976.75
1305.044272	982.75
1305.583675	998.25
1306.123022	976.5
1306.662313	997.5
1307.201548	973.0
1307.740727	981.5
1308.279849	984.75
1308.818916	990.25
1309.357926	991.75
1309.896881	982.75
1310.435779	977.5
1310.974621	979.0
1311.513407	980.0
1312.052137	977.5
1312.590811	986.25
1313.129429	972.25
1313.667991	988.75
1314.206497	980.75
1314.744946	982.75
1315.28334	978.75
1315.821678	974.5
1316.359959	981.25
1316.898184	978.25
1317.436354	983.75
1317.974467	976.75
1318.512525	976.5
1319.050526	992.25
1319.588471	969.75
1320.12636	980.75
1320.664194	981.25
1321.201971	978.75
1321.739692	982.0
1322.277357	975.0
1322.814967	987.5
1323.35252	979.0
1323.890017	980.0
1324.427458	975.0
1324.964843	978.75
1325.502173	975.5
1326.039446	978.75
1326.576663	962.25
1327.113824	983.0
1327.65093	971.25
1328.187979	980.75
1328.724972	969.0
1329.26191	969.75
1329.798791	974.25
1330.335617	977.75
1330.872386	967.0
1331.4091	976.25
1331.945758	976.75
1332.48236	968.25
1333.018905	959.0
1333.555395	974.75
1334.091829	973.5
1334.628207	968.5
1335.164529	977.0
1335.700796	966.25
1336.237006	968.5
1336.77316	979.25
1337.309259	974.75
1337.845301	977.25
1338.381288	970.75
1338.917219	964.25
1339.453094	975.0
1339.988913	971.5
1340.524676	962.25
1341.060383	968.75
1341.596034	967.25
1342.13163	966.25
1342.66717	971.5
1343.202653	966.25
1343.738081	963.0
1344.273453	969.0
1344.80877	964.0
1345.34403	970.5
1345.879235	970.5
1346.414383	967.5
1346.949476	969.25
1347.484513	968.0
1348.019494	973.25
1348.55442	976.5
1349.089289	968.75
1349.624103	975.0
1350.158861	961.25
1350.693563	966.0
1351.228209	968.5
1351.7628	973.25
1352.297334	973.75
1352.831813	972.75
1353.366236	974.0
1353.900604	963.25
1354.434915	970.25
1354.969171	971.0
1355.503371	977.75
1356.037515	963.5
1356.571604	959.75
1357.105636	970.25
1357.639613	962.75
1358.173535	968.0
1358.7074	960.25
1359.24121	966.0
1359.774964	973.75
1360.308662	970.0
1360.842304	978.5
1361.375891	968.25
1361.909422	961.75
1362.442897	963.25
1362.976317	973.25
1363.50968	975.0
1364.042989	966.0
1364.576241	977.0
1365.109438	970.75
1365.642579	971.75
1366.175664	979.75
1366.708693	982.0
1367.241667	978.75
1367.774585	988.25
1368.307448	970.0
1368.840255	981.5
1369.373006	980.75
1369.905701	1000.25
1370.438341	1026.25
1370.970925	988.75
1371.503454	979.0
1372.035926	966.75
1372.568344	957.75
1373.100705	985.75
1373.633011	968.25
1374.165261	968.25
1374.697456	978.5
1375.229595	975.25
1375.761678	981.25
1376.293705	979.0
1376.825677	974.75
1377.357594	977.75
1377.889455	980.75
1378.42126	990.5
1378.953009	989.0
1379.484703	978.25
1380.016342	981.5
1380.547924	985.75
1381.079452	981.5
1381.610923	997.0
1382.142339	988.75
1382.673699	994.5
1383.205004	1005.5
1383.736253	999.0
1384.267447	1003.5
1384.798585	1020.0
1385.329668	1036.5
1385.860695	1080.0
1386.391666	1174.5
1386.922582	1364.25
1387.453442	1834.0
1387.984247	2767.75
1388.514996	3331.5
1389.04569	2521.0
1389.576328	1575.75
1390.10691	1221.75
1390.637437	1091.5
1391.167909	1043.75
1391.698325	1030.0
1392.228685	1010.25
1392.75899	998.5
1393.28924	987.25
1393.819434	990.0
1394.349572	1000.5
1394.879655	983.5
1395.409683	985.5
1395.939655	982.0
1396.469571	978.75
1396.999432	968.0
1397.529237	968.75
1398.058987	978.0
1398.588682	986.25
1399.118321	982.25
1399.647905	973.25
1400.177433	979.0
1400.706906	966.25
1401.236323	971.25
1401.765685	974.5
1402.294991	972.0
1402.824242	968.25
1403.353437	964.5
1403.882577	974.0
1404.411662	973.25
1404.940691	974.0
1405.469665	975.75
1405.998583	976.25
1406.527446	986.75
1407.056253	990.75
1407.585005	982.75
1408.113702	1019.25
1408.642343	1039.75
1409.170929	1056.5
1409.69946	1096.5
1410.227935	1090.5
1410.756354	1061.25
1411.284719	1030.25
1411.813028	993.0
1412.341281	980.0
1412.869479	976.75
1413.397622	964.75
1413.92571	973.5
1414.453742	966.5
1414.981718	970.75
1415.50964	974.25
1416.037506	958.25
1416.565316	959.0
1417.093072	966.75
1417.620772	962.75
1418.148416	958.0
1418.676005	964.75
1419.203539	941.5
1419.731018	953.75
1420.258441	957.5
1420.785809	953.25
1421.313122	959.5
1421.840379	948.25
1422.367582	961.75
1422.894728	962.5
1423.42182	953.75
1423.948856	955.25
1424.475837	961.5
1425.002762	966.5
1425.529633	955.75
1426.056448	959.0
1426.583207	956.25
1427.109912	952.5
1427.636561	962.25
1428.163155	951.75
1428.689694	950.5
1429.216177	953.75
1429.742605	957.25
1430.268978	954.25
1430.795296	959.25
1431.321558	947.0
1431.847765	961.0
1432.373917	946.25
1432.900014	947.5
1433.426056	959.5
1433.952042	943.25
1434.477973	953.0
1435.003849	953.75
1435.529669	954.25
1436.055435	948.0
1436.581145	957.0
1437.1068	950.75
1437.632399	940.5
1438.157944	954.25
1438.683433	943.0
1439.208868	949.25
1439.734247	948.75
1440.25957	951.5
1440.784839	941.5
1441.310053	933.5
1441.835211	946.0
1442.360314	946.0
1442.885362	936.0
1443.410355	949.5
1443.935292	944.75
1444.460175	948.0
1444.985002	935.5
1445.509774	953.75
1446.034491	943.75
1446.559153	939.75
1447.08376	944.5
1447.608312	941.0
1448.132808	938.25
1448.65725	943.75
1449.181636	939.0
1449.705967	948.25
1450.230243	943.5
1450.754464	944.0
1451.27863	943.25
1451.802741	932.75
1452.326797	951.75
1452.850797	936.0
1453.374743	939.0
1453.898633	943.75
1454.422468	943.5
1454.946249	941.25
1455.469974	935.25
1455.993644	939.75
1456.517259	944.5
1457.040819	933.5
1457.564324	937.25
1458.087773	939.0
1458.611168	941.75
1459.134508	941.75
1459.657793	942.5
1460.181022	937.0
1460.704197	941.5
1461.227316	939.75
1461.750381	939.75
1462.27339	937.25
1462.796345	934.5
1463.319244	940.5
1463.842089	942.5
1464.364878	931.75
1464.887613	938.75
1465.410292	931.0
1465.932916	938.75
1466.455486	934.5
1466.978	929.5
1467.50046	932.25
1468.022864	934.25
1468.545214	927.5
1469.067508	937.5
1469.589748	931.5
1470.111932	941.75
1470.634062	937.5
1471.156136	931.5
1471.678156	935.5
1472.20012	931.0
1472.72203	931.5
1473.243885	925.75
1473.765685	931.75
1474.28743	931.0
1474.80912	941.75
1475.330755	920.25
1475.852335	936.75
1476.37386	927.5
1476.89533	931.75
1477.416745	935.75
1477.938106	931.25
1478.459411	942.0
1478.980662	934.75
1479.501857	936.0
1480.022998	939.75
1480.544084	928.0
1481.065115	934.5
1481.586091	927.5
1482.107012	933.5
1482.627878	921.5
1483.14869	928.5
1483.669446	930.0
1484.190148	932.25
1484.710794	941.5
1485.231386	932.0
1485.751923	931.75
1486.272406	935.0
1486.792833	937.0
1487.313205	921.75
1487.833523	925.5
1488.353786	938.5
1488.873994	926.0
1489.394147	935.5
1489.914245	933.5
1490.434288	931.5
1490.954277	935.0
1491.474211	925.75
1491.99409	929.5
1492.513914	927.5
1493.033683	934.75
1493.553398	929.25
1494.073057	928.25
1494.592662	931.0
1495.112212	922.25
1495.631708	931.75
1496.151148	925.0
1496.670534	930.5
1497.189865	926.5
1497.709141	925.0
1498.228362	934.5
1498.747529	929.25
1499.266641	924.25
1499.785698	938.5
1500.3047	926.5
1500.823648	925.25
1501.34254	926.25
1501.861379	926.25
1502.380162	925.5
1502.89889	922.0
1503.417564	928.75
1503.936183	921.25
1504.454748	924.75
1504.973257	928.0
1505.491712	919.75
1506.010112	928.25
1506.528458	930.0
1507.046748	926.5
1507.564984	923.0
1508.083166	920.75
1508.601292	927.25
1509.119364	921.25
1509.637381	917.5
1510.155344	927.5
1510.673252	938.75
1511.191105	923.25
1511.708903	929.75
1512.226647	927.0
1512.744336	921.25
1513.261971	922.0
1513.77955	919.25
1514.297076	922.0
1514.814546	919.75
1515.331962	927.75
1515.849323	931.5
1516.366629	922.5
1516.883881	925.5
1517.401078	934.0
1517.918221	922.75
1518.435309	925.75
1518.952342	912.25
1519.469321	932.25
1519.986245	921.0
1520.503114	921.25
1521.019929	920.5
1521.536689	923.75
1522.053395	923.25
1522.570046	930.0
1523.086642	925.5
1523.603184	929.75
1524.119671	924.25
1524.636103	921.25
1525.152481	916.5
1525.668805	913.5
1526.185073	922.25
1526.701288	929.0
1527.217447	927.75
1527.733552	921.75
1528.249603	925.0
1528.765599	923.75
1529.28154	928.75
1529.797427	927.5
1530.313259	912.0
1530.829037	928.75
1531.34476	921.25
1531.860429	913.5
1532.376043	924.5
1532.891602	930.0
1533.407107	917.0
1533.922558	926.75
1534.437954	927.25
1534.953295	920.0
1535.468582	919.75
1535.983815	912.5
1536.498993	916.25
1537.014116	915.5
1537.529185	920.0
1538.044199	932.25
1538.559159	922.75
1539.074064	919.25
1539.588915	915.5
1540.103712	930.5
1540.618454	926.25
1541.133141	927.25
1541.647774	913.75
1542.162353	932.0
1542.676877	921.0
1543.191346	932.0
1543.705761	922.5
1544.220122	917.5
1544.734428	910.0
1545.24868	922.75
1545.762877	915.0
1546.27702	917.25
1546.791109	919.25
1547.305143	928.5
1547.819122	925.0
1548.333047	919.5
1548.846918	926.0
1549.360734	923.5
1549.874496	923.5
1550.388204	919.25
1550.901857	920.25
1551.415455	919.25
1551.929	915.75
1552.442489	921.5
1552.955925	918.5
1553.469306	931.25
1553.982632	920.75
1554.495905	927.5
1555.009123	914.75
1555.522286	919.25
1556.035395	918.25
1556.54845	928.75
1557.06145	919.75
1557.574396	925.5
1558.087288	912.75
1558.600125	927.5
1559.112908	933.5
1559.625637	910.5
1560.138311	921.75
1560.650931	917.0
1561.163497	921.75
1561.676008	913.0
1562.188465	916.75
1562.700867	915.5
1563.213216	915.75
1563.725509	923.5
1564.237749	920.75
1564.749934	919.5
1565.262065	912.25
1565.774142	925.0
1566.286164	920.25
1566.798132	913.75
1567.310046	924.5
1567.821906	912.0
1568.333711	920.25
1568.845462	921.25
1569.357158	920.5
1569.868801	912.75
1570.380389	919.0
1570.891922	914.75
1571.403402	913.25
1571.914827	927.5
1572.426198	922.75
1572.937515	921.25
1573.448777	910.5
1573.959985	912.75
1574.471139	913.75
1574.982239	932.5
1575.493285	912.0
1576.004276	914.25
1576.515213	922.25
1577.026096	908.25
1577.536924	905.0
1578.047698	918.0
1578.558419	929.5
1579.069084	921.0
1579.579696	906.0
1580.090254	916.0
1580.600757	921.5
1581.111206	912.5
1581.621601	919.5
1582.131941	912.5
1582.642228	922.75
1583.15246	911.5
1583.662638	917.5
1584.172762	910.5
1584.682832	917.5
1585.192847	916.5
1585.702809	902.0
1586.212716	909.0
1586.722569	922.0
1587.232368	925.75
1587.742113	925.75
1588.251803	921.25
1588.76144	918.25
1589.271022	904.75
1589.78055	908.75
1590.290024	910.75
1590.799444	923.25
1591.30881	899.5
1591.818121	920.0
