1042.414189	725.25
1042.980685	722.5
1043.547124	720.0
1044.113505	719.0
1044.679828	723.25
1045.246093	719.75
1045.8123	725.0
1046.378449	714.75
1046.94454	719.25
1047.510573	722.5
1048.076548	720.5
1048.642465	719.25
1049.208325	714.5
1049.774126	715.5
1050.339869	717.25
1050.905555	716.5
1051.471183	719.75
1052.036752	716.0
1052.602264	715.5
1053.167718	714.5
1053.733114	712.5
1054.298452	717.0
1054.863733	717.5
1055.428955	713.25
1055.994119	713.0
1056.559226	706.75
1057.124275	714.25
1057.689266	712.0
1058.254199	718.5
1058.819074	716.5
1059.383891	710.25
1059.94865	711.75
1060.513352	712.0
1061.077996	712.5
1061.642582	709.5
1062.20711	713.25
1062.77158	715.5
1063.335992	713.25
1063.900347	715.0
1064.464643	705.5
1065.028882	707.75
1065.593063	710.5
1066.157187	713.25
1066.721252	713.25
1067.28526	708.5
1067.84921	712.25
1068.413102	710.5
1068.976936	718.5
1069.540713	711.75
1070.104431	724.25
1070.668092	716.75
1071.231696	707.25
1071.795241	708.0
1072.358729	711.0
1072.922159	714.0
1073.485531	711.75
1074.048845	713.75
1074.612102	714.75
1075.175301	712.5
1075.738442	714.75
1076.301525	711.25
1076.864551	716.0
1077.427519	710.0
1077.990429	712.5
1078.553281	713.0
1079.116076	711.5
1079.678813	714.25
1080.241492	713.5
1080.804114	713.75
1081.366678	709.75
1081.929184	712.25
1082.491633	713.5
1083.054024	709.0
1083.616357	708.75
1084.178632	707.0
1084.74085	703.25
1085.30301	703.5
1085.865113	708.5
1086.427158	711.0
1086.989145	711.5
1087.551074	712.25
1088.112946	707.25
1088.67476	711.75
1089.236517	711.75
1089.798216	706.5
1090.359857	713.5
1090.92144	713.5
1091.482966	711.25
1092.044435	708.5
1092.605845	715.25
1093.167199	714.75
1093.728494	712.75
1094.289732	711.75
1094.850912	707.75
1095.412035	723.0
1095.9731	711.25
1096.534107	709.5
1097.095057	718.25
1097.65595	711.0
1098.216784	713.75
1098.777561	709.75
1099.338281	709.5
1099.898943	705.25
1100.459547	712.25
1101.020094	709.25
1101.580584	714.25
1102.141015	707.0
1102.701389	715.75
1103.261706	714.75
1103.821965	706.0
1104.382167	712.25
1104.942311	711.75
1105.502397	709.25
1106.062426	714.25
1106.622398	711.75
1107.182312	708.25
1107.742168	708.5
1108.301967	707.5
1108.861708	709.75
1109.421392	713.5
1109.981019	711.5
1110.540587	709.25
1111.100099	712.0
1111.659553	712.5
1112.218949	712.75
1112.778288	711.0
1113.33757	711.75
1113.896794	713.25
1114.45596	712.25
1115.015069	713.0
1115.574121	712.5
1116.133115	710.5
1116.692052	711.0
1117.250931	716.75
1117.809753	711.25
1118.368517	713.5
1118.927224	710.5
1119.485873	711.5
1120.044465	708.75
1120.603	706.25
1121.161477	709.25
1121.719897	708.5
1122.278259	706.25
1122.836564	713.75
1123.394812	711.0
1123.953002	710.25
1124.511135	712.75
1125.06921	712.25
1125.627228	713.0
1126.185189	707.75
1126.743092	713.5
1127.300938	714.25
1127.858726	713.25
1128.416457	710.25
1128.974131	709.75
1129.531748	710.5
1130.089307	716.0
1130.646808	713.75
1131.204252	713.5
1131.761639	716.25
1132.318969	714.25
1132.876241	712.25
1133.433456	713.0
1133.990614	717.0
1134.547714	712.25
1135.104757	707.5
1135.661743	716.0
1136.218671	708.5
1136.775542	710.5
1137.332356	711.0
1137.889112	714.25
1138.445811	709.25
1139.002453	713.75
1139.559037	711.0
1140.115565	712.5
1140.672035	710.0
1141.228447	709.25
1141.784803	713.25
1142.341101	711.75
1142.897342	713.75
1143.453525	712.75
1144.009651	716.75
1144.565721	711.75
1145.121732	716.0
1145.677687	712.25
1146.233584	715.25
1146.789424	714.25
1147.345207	714.0
1147.900933	712.5
1148.456601	712.5
1149.012212	710.25
1149.567766	718.75
1150.123263	714.0
1150.678702	711.25
1151.234085	718.0
1151.78941	718.25
1152.344678	713.25
1152.899888	714.5
1153.455042	708.25
1154.010138	714.5
1154.565177	717.25
1155.120159	712.75
1155.675084	714.75
1156.229951	707.5
1156.784762	713.25
1157.339515	715.0
1157.894211	713.0
1158.44885	709.5
1159.003432	715.5
1159.557956	711.75
1160.112424	711.0
1160.666834	713.25
1161.221187	710.75
1161.775483	715.25
1162.329722	716.0
1162.883904	715.25
1163.438029	715.5
1163.992096	716.25
1164.546107	714.5
1165.10006	714.5
1165.653956	715.5
1166.207795	719.5
1166.761577	713.25
1167.315302	716.25
1167.86897	714.5
1168.422581	712.0
1168.976134	716.25
1169.529631	712.0
1170.08307	712.25
1170.636453	719.0
1171.189778	717.0
1171.743046	715.0
1172.296257	714.5
1172.849412	711.0
1173.402509	720.25
1173.955549	714.5
1174.508532	715.75
1175.061458	711.75
1175.614327	715.25
1176.167138	711.0
1176.719893	713.5
1177.272591	716.25
1177.825232	716.0
1178.377816	713.25
1178.930342	713.75
1179.482812	714.5
1180.035225	711.0
1180.587581	715.0
1181.139879	713.0
1181.692121	715.75
1182.244306	713.5
1182.796434	715.0
1183.348504	716.0
1183.900518	718.75
1184.452475	715.25
1185.004375	713.0
1185.556218	716.5
1186.108004	712.25
1186.659733	718.25
1187.211405	712.5
1187.76302	720.25
1188.314578	714.25
1188.866079	719.75
1189.417523	720.0
1189.96891	720.25
1190.520241	713.75
1191.071514	715.5
1191.622731	715.75
1192.17389	717.5
1192.724993	718.25
1193.276039	741.25
1193.827027	709.5
1194.377959	714.0
1194.928834	719.5
1195.479653	716.25
1196.030414	718.5
1196.581118	715.0
1197.131766	714.25
1197.682356	716.25
1198.23289	719.75
1198.783367	714.25
1199.333786	720.0
1199.88415	715.5
1200.434456	719.0
1200.984705	715.5
1201.534898	713.25
1202.085033	721.0
1202.635112	714.75
1203.185134	719.25
1203.735099	718.25
1204.285007	719.5
1204.834859	716.25
1205.384653	710.75
1205.934391	718.75
1206.484072	715.0
1207.033696	720.75
1207.583263	725.25
1208.132774	714.75
1208.682228	719.5
1209.231624	719.5
1209.780965	716.25
1210.330248	721.25
1210.879474	721.25
1211.428644	717.75
1211.977757	719.75
1212.526813	717.25
1213.075813	720.0
1213.624755	714.25
1214.173641	719.5
1214.72247	723.25
1215.271242	720.75
1215.819958	714.5
1216.368617	719.75
1216.917219	723.25
1217.465764	716.5
1218.014253	719.25
1218.562685	722.0
1219.11106	720.25
1219.659378	723.5
1220.20764	720.5
1220.755845	718.75
1221.303993	717.0
1221.852085	720.0
1222.400119	710.5
1222.948097	722.5
1223.496019	721.5
1224.043883	719.25
1224.591691	719.75
1225.139443	721.0
1225.687137	725.5
1226.234775	725.0
1226.782357	716.0
1227.329881	718.0
1227.877349	721.75
1228.42476	718.0
1228.972115	724.0
1229.519413	718.5
1230.066654	720.75
1230.613839	723.5
1231.160967	721.75
1231.708038	720.5
1232.255053	717.0
1232.802011	721.5
1233.348912	725.75
1233.895757	719.75
1234.442545	724.25
1234.989277	721.5
1235.535951	716.75
1236.08257	727.5
1236.629131	724.5
1237.175636	721.75
1237.722085	727.0
1238.268477	721.5
1238.814812	725.75
1239.361091	722.25
1239.907313	724.0
1240.453478	732.0
1240.999587	730.25
1241.54564	725.75
1242.091636	730.75
1242.637575	726.25
1243.183457	729.5
1243.729284	717.75
1244.275053	723.0
1244.820766	733.5
1245.366423	726.5
1245.912022	727.25
1246.457566	734.25
1247.003053	731.5
1247.548483	733.75
1248.093857	734.5
1248.639174	733.5
1249.184435	734.75
1249.729639	733.25
1250.274787	730.5
1250.819878	730.25
1251.364912	730.5
1251.909891	733.0
1252.454812	733.5
1252.999677	730.75
1253.544486	731.0
1254.089238	733.25
1254.633934	732.0
1255.178573	730.75
1255.723156	732.5
1256.267682	736.25
1256.812152	731.0
1257.356565	737.0
1257.900922	742.0
1258.445223	746.0
1258.989467	748.0
1259.533654	750.25
1260.077785	759.5
1260.62186	746.5
1261.165878	753.0
1261.70984	762.75
1262.253745	773.25
1262.797594	789.75
1263.341386	802.75
1263.885123	823.25
1264.428802	835.25
1264.972425	819.75
1265.515992	804.5
1266.059503	779.0
1266.602957	770.75
1267.146354	756.5
1267.689696	754.5
1268.23298	752.0
1268.776209	749.75
1269.319381	748.5
1269.862497	742.0
1270.405556	742.75
1270.948559	748.75
1271.491506	747.5
1272.034396	748.75
1272.57723	749.0
1273.120007	743.25
1273.662728	744.75
1274.205393	747.5
1274.748002	745.5
1275.290554	750.0
1275.83305	742.75
1276.375489	750.0
1276.917872	755.0
1277.460199	759.0
1278.00247	752.25
1278.544684	763.0
1279.086842	769.25
1279.628943	770.75
1280.170989	787.25
1280.712978	800.25
1281.25491	835.25
1281.796787	899.25
1282.338607	1032.25
1282.880371	1284.75
1283.422078	1696.5
1283.963729	2209.0
1284.505324	2395.5
1285.046863	2008.75
1285.588345	1421.25
1286.129772	1050.25
1286.671142	902.25
1287.212455	838.25
1287.753713	810.5
1288.294914	787.0
1288.836059	776.0
1289.377147	771.75
1289.91818	761.75
1290.459156	759.25
1291.000076	759.5
1291.54094	753.5
1292.081747	748.75
1292.622499	754.0
1293.163194	752.75
1293.703833	749.0
1294.244415	746.25
1294.784942	747.0
1295.325412	749.5
1295.865826	744.5
1296.406184	743.0
1296.946486	743.75
1297.486731	744.0
1298.026921	744.75
1298.567054	740.25
1299.107131	735.0
1299.647152	743.5
1300.187116	740.75
1300.727025	740.75
1301.266877	739.0
1301.806673	735.0
1302.346413	741.5
1302.886097	737.0
1303.425725	732.75
1303.965297	732.0
1304.504812	734.75
1305.044272	732.75
1305.583675	735.5
1306.123022	734.25
1306.662313	734.25
1307.201548	734.75
1307.740727	731.75
1308.279849	728.25
1308.818916	733.0
1309.357926	735.5
1309.896881	739.75
1310.435779	734.25
1310.974621	728.5
1311.513407	731.5
1312.052137	736.0
1312.590811	738.25
1313.129429	734.5
1313.667991	733.25
1314.206497	729.5
1314.744946	735.5
1315.28334	735.0
1315.821678	729.75
1316.359959	732.0
1316.898184	726.5
1317.436354	727.5
1317.974467	730.75
1318.512525	735.0
1319.050526	728.0
1319.588471	732.0
1320.12636	733.25
1320.664194	729.5
1321.201971	723.75
1321.739692	734.5
1322.277357	728.75
1322.814967	728.25
1323.35252	734.75
1323.890017	741.5
1324.427458	728.25
1324.964843	731.75
1325.502173	731.0
1326.039446	732.0
1326.576663	737.75
1327.113824	735.0
1327.65093	731.75
1328.187979	733.0
1328.724972	730.5
1329.26191	733.0
1329.798791	734.75
1330.335617	728.5
1330.872386	728.25
1331.4091	732.75
1331.945758	732.5
1332.48236	729.25
1333.018905	727.5
1333.555395	737.0
1334.091829	726.25
1334.628207	734.0
1335.164529	733.5
1335.700796	737.0
1336.237006	725.5
1336.77316	731.5
1337.309259	729.25
1337.845301	738.0
1338.381288	732.0
1338.917219	730.5
1339.453094	729.0
1339.988913	733.5
1340.524676	734.25
1341.060383	733.5
1341.596034	729.75
1342.13163	730.25
1342.66717	733.75
1343.202653	731.75
1343.738081	728.5
1344.273453	737.0
1344.80877	727.5
1345.34403	730.5
1345.879235	732.75
1346.414383	729.0
1346.949476	732.5
1347.484513	737.0
1348.019494	729.75
1348.55442	732.0
1349.089289	729.5
1349.624103	735.75
1350.158861	735.25
1350.693563	731.5
1351.228209	731.5
1351.7628	734.25
1352.297334	732.5
1352.831813	732.5
1353.366236	730.25
1353.900604	737.75
1354.434915	736.5
1354.969171	734.75
1355.503371	737.5
1356.037515	728.0
1356.571604	729.75
1357.105636	739.0
1357.639613	736.0
1358.173535	734.5
1358.7074	735.25
1359.24121	738.0
1359.774964	731.25
1360.308662	733.25
1360.842304	732.75
1361.375891	740.75
1361.909422	736.0
1362.442897	735.0
1362.976317	735.25
1363.50968	734.75
1364.042989	736.25
1364.576241	744.5
1365.109438	747.0
1365.642579	745.5
1366.175664	748.5
1366.708693	749.25
1367.241667	743.5
1367.774585	732.75
1368.307448	746.25
1368.840255	753.0
1369.373006	755.25
1369.905701	793.5
1370.438341	814.5
1370.970925	774.75
1371.503454	753.75
1372.035926	752.0
1372.568344	742.5
1373.100705	744.0
1373.633011	743.75
1374.165261	746.25
1374.697456	753.75
1375.229595	744.0
1375.761678	751.5
1376.293705	752.5
1376.825677	751.0
1377.357594	752.0
1377.889455	757.0
1378.42126	754.5
1378.953009	756.25
1379.484703	759.25
1380.016342	762.75
1380.547924	763.5
1381.079452	768.0
1381.610923	773.0
1382.142339	776.25
1382.673699	784.0
1383.205004	793.5
1383.736253	807.25
1384.267447	809.75
1384.798585	838.75
1385.329668	891.0
1385.860695	954.5
1386.391666	1128.0
1386.922582	1486.25
1387.453442	2430.75
1387.984247	3972.5
1388.514996	4252.25
1389.04569	2611.5
1389.576328	1473.25
1390.10691	1071.0
1390.637437	937.25
1391.167909	859.75
1391.698325	827.25
1392.228685	807.0
1392.75899	786.5
1393.28924	780.25
1393.819434	785.0
1394.349572	775.25
1394.879655	763.75
1395.409683	763.0
1395.939655	762.5
1396.469571	766.0
1396.999432	763.75
1397.529237	764.25
1398.058987	755.0
1398.588682	754.25
1399.118321	760.5
1399.647905	757.25
1400.177433	751.0
1400.706906	755.0
1401.236323	753.75
1401.765685	756.75
1402.294991	755.5
1402.824242	758.75
1403.353437	748.0
1403.882577	757.75
1404.411662	762.5
1404.940691	759.0
1405.469665	762.5
1405.998583	765.5
1406.527446	764.75
1407.056253	789.25
1407.585005	794.0
1408.113702	820.75
1408.642343	852.75
1409.170929	893.5
1409.69946	923.75
1410.227935	918.25
1410.756354	861.0
1411.284719	814.25
1411.813028	784.75
1412.341281	764.25
1412.869479	756.0
1413.397622	750.5
1413.92571	747.5
1414.453742	745.0
1414.981718	744.25
1415.50964	753.5
1416.037506	740.0
1416.565316	740.5
1417.093072	741.25
1417.620772	735.75
1418.148416	733.5
1418.676005	739.5
1419.203539	736.0
1419.731018	732.75
1420.258441	735.0
1420.785809	730.5
1421.313122	727.5
1421.840379	729.75
1422.367582	732.75
1422.894728	734.25
1423.42182	731.75
1423.948856	735.25
1424.475837	736.0
1425.002762	733.75
1425.529633	732.0
1426.056448	730.25
1426.583207	727.25
1427.109912	730.25
1427.636561	735.0
1428.163155	729.5
1428.689694	730.25
1429.216177	730.25
1429.742605	723.5
1430.268978	724.75
1430.795296	724.75
1431.321558	727.25
1431.847765	725.25
1432.373917	728.25
1432.900014	730.75
1433.426056	721.75
1433.952042	722.75
1434.477973	725.5
1435.003849	733.5
1435.529669	732.75
1436.055435	729.5
1436.581145	733.0
1437.1068	724.0
1437.632399	726.75
1438.157944	726.0
1438.683433	725.5
1439.208868	722.25
1439.734247	727.25
1440.25957	726.75
1440.784839	722.25
1441.310053	725.5
1441.835211	723.75
1442.360314	722.75
1442.885362	720.25
1443.410355	718.75
1443.935292	721.0
1444.460175	724.75
1444.985002	717.25
1445.509774	720.5
1446.034491	724.5
1446.559153	727.75
1447.08376	724.0
1447.608312	723.0
1448.132808	717.0
1448.65725	719.75
1449.181636	725.25
1449.705967	719.25
1450.230243	721.75
1450.754464	723.0
1451.27863	722.25
1451.802741	725.5
1452.326797	718.25
1452.850797	717.75
1453.374743	717.5
1453.898633	724.25
1455.469974	723.75
1455.993644	721.0
1456.517259	715.75
1457.040819	723.75
1457.564324	715.0
1458.087773	719.75
1458.611168	721.5
1459.134508	717.25
1459.657793	718.25
1460.181022	716.5
1460.704197	717.75
1461.227316	719.0
1461.750381	714.0
1462.27339	714.75
1462.796345	720.0
1463.319244	723.25
1463.842089	712.25
1464.364878	718.75
1464.887613	711.5
1465.410292	719.25
1465.932916	716.25
1466.455486	714.0
1466.978	720.5
1467.50046	720.5
1468.022864	713.0
1468.545214	716.0
1469.067508	720.5
1469.589748	718.25
1470.111932	718.25
1470.634062	717.5
1471.156136	713.75
1471.678156	719.5
1472.20012	719.0
1472.72203	715.0
1473.243885	718.5
1473.765685	720.75
1474.28743	721.0
1474.80912	720.0
1475.330755	717.75
1475.852335	715.0
1476.37386	713.25
1476.89533	714.25
1477.416745	708.25
1477.938106	714.0
1478.459411	711.5
1478.980662	717.25
1479.501857	718.5
1480.022998	715.5
1480.544084	714.75
1481.065115	717.75
1481.586091	718.25
1482.107012	715.75
1482.627878	712.25
1483.14869	717.25
1483.669446	712.0
1484.190148	715.0
1484.710794	715.0
1485.231386	714.5
1485.751923	716.5
1486.272406	714.5
1486.792833	713.0
1487.313205	715.5
1487.833523	716.25
1488.353786	716.0
1488.873994	718.75
1489.394147	712.25
1489.914245	713.75
1490.434288	712.75
1490.954277	710.75
1491.474211	717.0
1491.99409	718.75
1492.513914	714.0
1493.033683	716.75
1493.553398	713.0
1494.073057	710.0
1494.592662	716.5
1495.112212	709.0
1495.631708	710.75
1496.151148	713.25
1496.670534	717.75
1497.189865	712.0
1497.709141	712.0
1498.228362	720.75
1498.747529	718.5
1499.266641	711.0
1499.785698	719.75
1500.3047	715.5
1500.823648	715.5
1501.34254	718.0
1501.861379	713.0
1502.380162	713.25
1502.89889	712.5
1503.417564	718.5
1503.936183	708.25
1504.454748	715.75
1504.973257	717.75
1505.491712	716.25
1506.010112	711.5
1506.528458	709.5
1507.046748	709.0
1507.564984	714.5
1508.083166	716.25
1508.601292	707.5
1509.119364	710.75
1509.637381	709.0
1510.155344	710.75
1510.673252	724.0
1511.191105	713.75
1511.708903	715.5
1512.226647	711.75
1512.744336	710.75
1513.261971	711.0
1513.77955	710.5
1514.297076	711.0
1514.814546	709.25
1515.331962	710.25
1515.849323	716.5
1516.366629	712.0
1516.883881	712.0
1517.401078	714.75
1517.918221	715.5
1518.435309	716.5
1518.952342	712.75
1519.469321	710.0
1519.986245	712.5
1520.503114	715.75
1521.019929	713.0
1521.536689	721.25
1522.053395	716.0
1522.570046	711.5
1523.086642	711.0
1523.603184	711.75
1524.119671	712.0
1524.636103	712.5
1525.152481	709.0
1525.668805	709.75
1526.185073	715.25
1526.701288	708.75
1527.217447	710.5
1527.733552	714.0
1528.249603	708.25
1528.765599	711.0
1529.28154	710.5
1529.797427	709.75
1530.313259	710.5
1530.829037	708.5
1531.34476	717.25
1531.860429	711.75
1532.376043	714.0
1532.891602	713.25
1533.407107	711.75
1533.922558	715.5
1534.437954	713.25
1534.953295	710.0
1535.468582	713.25
1535.983815	714.0
1536.498993	708.25
1537.014116	715.75
1537.529185	705.5
1538.044199	714.5
1538.559159	711.75
1539.074064	709.25
1539.588915	708.75
1540.103712	711.5
1540.618454	708.25
1541.133141	713.0
1541.647774	713.75
1542.162353	715.25
1542.676877	712.0
1543.191346	710.75
1543.705761	709.5
1544.220122	717.5
1544.734428	713.0
1545.24868	711.0
1545.762877	706.0
1546.27702	712.5
1546.791109	711.25
1547.305143	713.0
1547.819122	717.75
1548.333047	709.5
1548.846918	713.25
1549.360734	710.25
1549.874496	711.0
1550.388204	715.5
1550.901857	705.75
1551.415455	717.5
1551.929	719.75
1552.442489	711.25
1552.955925	709.0
1553.469306	708.0
1553.982632	713.75
1554.495905	709.25
1555.009123	714.25
1555.522286	716.0
1556.035395	714.5
1556.54845	713.0
1557.06145	707.5
1557.574396	714.75
1558.087288	711.5
1558.600125	710.75
1559.112908	717.0
1559.625637	711.0
1560.138311	710.5
1560.650931	708.25
1561.163497	708.5
1561.676008	712.5
1562.188465	708.0
1562.700867	710.25
1563.213216	709.25
1563.725509	711.25
1564.237749	710.5
1564.749934	713.25
1565.262065	711.0
1565.774142	708.5
1566.286164	709.0
1566.798132	713.25
1567.310046	713.0
1567.821906	710.75
1568.333711	710.0
1568.845462	716.0
1569.357158	713.0
1569.868801	711.0
1570.380389	712.5
1570.891922	709.5
1571.403402	711.0
1571.914827	717.25
1572.426198	711.75
1572.937515	712.25
1573.448777	711.25
1573.959985	713.25
1574.471139	706.0
1574.982239	714.0
1575.493285	705.0
1576.004276	708.0
1576.515213	710.75
1577.026096	709.5
1577.536924	714.5
1578.047698	709.75
1578.558419	711.25
1579.069084	709.5
1579.579696	710.25
1580.090254	708.75
1580.600757	715.5
1581.111206	708.5
1581.621601	712.5
1582.131941	711.0
1582.642228	710.5
1583.15246	711.75
1583.662638	715.5
1584.172762	710.5
1584.682832	707.75
1585.192847	716.75
1585.702809	709.75
1586.212716	708.5
1586.722569	715.5
1587.232368	715.0
1587.742113	713.0
1588.251803	707.5
1588.76144	712.5
1589.271022	709.25
1589.78055	713.5
1590.290024	708.75
1590.799444	713.0
1591.30881	705.5
1591.818121	713.75
1592.327379	707.5
