1042.414189	687.5
1042.980685	684.5
1043.547124	686.25
1044.113505	684.0
1044.679828	683.0
1045.246093	682.5
1045.8123	681.75
1046.378449	679.75
1046.94454	677.25
1047.510573	675.75
1048.076548	676.25
1048.642465	678.5
1049.208325	674.75
1049.774126	675.5
1050.339869	672.25
1050.905555	672.75
1051.471183	667.25
1052.036752	674.0
1052.602264	672.25
1053.167718	673.0
1053.733114	671.0
1054.298452	669.0
1054.863733	669.0
1055.428955	667.25
1055.994119	669.25
1056.559226	669.5
1057.124275	669.5
1057.689266	668.25
1058.254199	667.75
1058.819074	669.5
1059.383891	664.0
1059.94865	666.0
1060.513352	664.0
1061.077996	669.25
1061.642582	667.25
1062.20711	669.75
1062.77158	666.25
1063.335992	668.75
1063.900347	666.25
1064.464643	666.75
1065.028882	666.5
1065.593063	669.0
1066.157187	664.0
1066.721252	667.5
1067.28526	668.75
1067.84921	667.25
1068.413102	665.0
1068.976936	669.25
1069.540713	670.0
1070.104431	673.5
1070.668092	666.75
1071.231696	667.0
1071.795241	666.75
1072.358729	666.5
1072.922159	662.25
1073.485531	660.5
1074.048845	665.5
1074.612102	667.5
1075.175301	661.75
1075.738442	663.25
1076.301525	663.5
1076.864551	664.25
1077.427519	665.0
1077.990429	666.5
1078.553281	668.25
1079.116076	664.75
1079.678813	665.75
1080.241492	665.5
1080.804114	665.75
1081.366678	668.0
1081.929184	665.0
1082.491633	670.25
1083.054024	664.25
1083.616357	666.75
1084.178632	666.75
1084.74085	665.75
1085.30301	664.25
1085.865113	664.25
1086.427158	666.0
1086.989145	667.0
1087.551074	666.25
1088.112946	667.5
1088.67476	666.5
1089.236517	667.75
1089.798216	664.25
1090.359857	665.25
1090.92144	664.75
1091.482966	663.75
1092.044435	665.25
1092.605845	664.25
1093.167199	663.25
1093.728494	663.0
1094.289732	666.0
1094.850912	665.5
1095.412035	675.75
1095.9731	664.0
1096.534107	666.0
1097.095057	672.75
1097.65595	665.75
1098.216784	665.5
1098.777561	665.75
1099.338281	663.5
1099.898943	663.25
1100.459547	665.25
1101.020094	663.25
1101.580584	662.0
1102.141015	663.5
1102.701389	663.25
1103.261706	665.75
1103.821965	666.25
1104.382167	665.5
1104.942311	664.0
1105.502397	665.75
1106.062426	666.5
1106.622398	664.75
1107.182312	665.75
1107.742168	664.5
1108.301967	665.25
1108.861708	664.75
1109.421392	663.75
1109.981019	665.0
1110.540587	662.75
1111.100099	663.25
1111.659553	661.75
1112.218949	667.75
1112.778288	666.5
1113.33757	665.0
1113.896794	662.0
1114.45596	661.0
1115.015069	666.75
1115.574121	662.25
1116.133115	665.5
1116.692052	665.0
1117.250931	663.5
1117.809753	664.5
1118.368517	662.5
1118.927224	665.5
1119.485873	666.25
1120.044465	665.75
1120.603	662.25
1121.161477	664.0
1121.719897	662.25
1122.278259	660.75
1122.836564	664.0
1123.394812	666.0
1123.953002	665.0
1124.511135	662.75
1125.06921	662.75
1125.627228	663.0
1126.185189	665.0
1126.743092	665.5
1127.300938	663.0
1127.858726	662.25
1128.416457	662.75
1128.974131	663.0
1129.531748	662.5
1130.089307	662.75
1130.646808	661.75
1131.204252	664.0
1131.761639	663.5
1132.318969	663.5
1132.876241	664.0
1133.433456	661.0
1133.990614	662.75
1134.547714	663.75
1135.104757	661.0
1135.661743	665.0
1136.218671	663.0
1136.775542	662.0
1137.332356	663.5
1137.889112	663.75
1138.445811	664.0
1139.002453	661.5
1139.559037	666.0
1140.115565	662.75
1140.672035	664.5
1141.228447	661.5
1141.784803	663.75
1142.341101	664.5
1142.897342	665.5
1143.453525	664.5
1144.009651	667.0
1144.565721	663.25
1145.121732	664.75
1145.677687	662.75
1146.233584	663.0
1146.789424	659.75
1147.345207	663.0
1147.900933	664.75
1148.456601	659.75
1149.012212	666.0
1149.567766	663.0
1150.123263	664.75
1150.678702	665.75
1151.234085	660.25
1151.78941	666.0
1152.344678	663.25
1152.899888	664.75
1153.455042	661.5
1154.010138	662.0
1154.565177	659.75
1155.120159	663.5
1155.675084	662.0
1156.229951	662.0
1156.784762	663.25
1157.339515	666.0
1157.894211	661.75
1158.44885	662.25
1159.003432	663.5
1159.557956	663.25
1160.112424	663.0
1160.666834	663.25
1161.221187	664.25
1161.775483	665.0
1162.329722	663.0
1162.883904	663.5
1163.438029	665.5
1163.992096	663.5
1164.546107	662.75
1165.10006	663.25
1165.653956	664.25
1166.207795	663.5
1166.761577	664.25
1167.315302	664.5
1167.86897	664.0
1168.422581	663.0
1168.976134	662.0
1169.529631	663.0
1170.08307	664.0
1170.636453	663.25
1171.189778	662.25
1171.743046	662.0
1172.296257	663.5
1172.849412	662.5
1173.402509	663.75
1173.955549	662.5
1174.508532	663.75
1175.061458	664.25
1175.614327	663.5
1176.167138	663.25
1176.719893	661.25
1177.272591	662.75
1177.825232	661.5
1178.377816	666.5
1178.930342	664.5
1179.482812	665.75
1180.035225	663.75
1180.587581	664.0
1181.139879	663.75
1181.692121	662.0
1182.244306	664.75
1182.796434	665.25
1183.348504	664.0
1183.900518	662.5
1184.452475	665.75
1185.004375	668.5
1185.556218	664.75
1186.108004	660.75
1186.659733	666.25
1187.211405	662.5
1187.76302	665.25
1188.314578	663.75
1188.866079	665.75
1189.417523	664.0
1189.96891	665.0
1190.520241	664.25
1191.071514	663.75
1191.622731	664.75
1192.17389	664.25
1192.724993	665.0
1193.276039	685.5
1193.827027	662.0
1194.377959	664.25
1194.928834	663.0
1195.479653	665.0
1196.030414	665.5
1196.581118	669.25
1197.131766	664.25
1197.682356	664.0
1198.23289	662.25
1198.783367	662.0
1199.333786	665.75
1199.88415	662.75
1200.434456	665.75
1200.984705	664.0
1201.534898	662.0
1202.085033	663.25
1202.635112	663.25
1203.185134	662.5
1203.735099	663.75
1204.285007	662.0
1204.834859	662.5
1205.384653	662.5
1205.934391	663.5
1206.484072	665.25
1207.033696	660.75
1207.583263	661.5
1208.132774	664.0
1208.682228	666.5
1209.231624	665.5
1209.780965	662.5
1210.330248	661.75
1210.879474	663.25
1211.428644	661.75
1211.977757	664.75
1212.526813	665.75
1213.075813	666.0
1213.624755	662.75
1214.173641	662.75
1214.72247	664.25
1215.271242	664.0
1215.819958	664.5
1216.368617	666.5
1216.917219	663.75
1217.465764	663.75
1218.014253	665.0
1218.562685	663.75
1219.11106	664.5
1219.659378	662.75
1220.20764	664.75
1220.755845	664.5
1221.303993	662.75
1221.852085	662.25
1222.400119	663.5
1222.948097	666.5
1223.496019	662.5
1224.043883	663.75
1224.591691	664.5
1225.139443	660.25
1225.687137	664.75
1226.234775	664.75
1226.782357	663.5
1227.329881	664.75
1227.877349	663.5
1228.42476	661.75
1228.972115	665.5
1229.519413	662.25
1230.066654	663.0
1230.613839	662.25
1231.160967	663.5
1231.708038	666.5
1232.255053	661.25
1232.802011	665.25
1233.348912	661.75
1233.895757	662.5
1234.442545	663.25
1234.989277	666.5
1235.535951	664.0
1236.08257	667.5
1237.722085	784.75
1238.268477	664.25
1238.814812	664.0
1239.361091	662.25
1239.907313	664.25
1240.453478	661.5
1240.999587	664.0
1241.54564	663.25
1242.091636	663.25
1242.637575	662.75
1243.183457	663.75
1243.729284	666.5
1244.275053	661.5
1244.820766	665.75
1245.366423	663.5
1245.912022	661.75
1246.457566	661.0
1247.003053	664.75
1247.548483	665.5
1248.093857	665.25
1248.639174	665.0
1249.184435	666.5
1249.729639	663.25
1250.274787	661.0
1250.819878	662.0
1251.364912	661.75
1251.909891	665.0
1252.454812	664.0
1252.999677	665.25
1253.544486	663.75
1254.089238	662.75
1254.633934	662.0
1255.178573	663.5
1255.723156	663.25
1256.267682	662.0
1256.812152	662.25
1257.356565	663.25
1257.900922	663.5
1258.445223	662.5
1258.989467	662.75
1259.533654	663.25
1260.077785	677.75
1260.62186	662.75
1261.165878	662.25
1261.70984	662.75
1262.253745	662.75
1262.797594	664.5
1263.341386	665.25
1263.885123	664.0
1264.428802	665.75
1264.972425	664.0
1265.515992	668.5
1266.059503	664.0
1266.602957	663.5
1267.146354	663.75
1267.689696	665.5
1268.23298	665.25
1268.776209	662.25
1269.319381	665.75
1269.862497	662.5
1270.405556	662.0
1270.948559	660.5
1271.491506	666.0
1272.034396	666.25
1272.57723	662.75
1273.120007	661.5
1273.662728	661.0
1274.205393	665.75
1274.748002	665.0
1275.290554	662.5
1275.83305	662.0
1276.375489	664.5
1276.917872	662.25
1277.460199	663.75
1278.00247	661.25
1278.544684	661.5
1279.086842	665.5
1279.628943	662.0
1280.170989	662.25
1280.712978	662.25
1281.25491	663.75
1281.796787	667.25
1282.338607	664.0
1282.880371	660.75
1283.422078	669.0
1283.963729	669.75
1284.505324	680.0
1285.046863	706.5
1285.588345	728.75
1286.129772	703.0
1286.671142	678.5
1287.212455	666.75
1287.753713	664.5
1288.294914	664.25
1288.836059	665.75
1289.377147	665.25
1289.91818	663.0
1290.459156	660.0
1291.000076	662.25
1291.54094	663.75
1292.081747	660.0
1292.622499	664.5
1293.163194	665.25
1293.703833	662.75
1294.244415	663.75
1294.784942	661.5
1295.325412	661.75
1295.865826	661.0
1296.406184	659.25
1296.946486	662.25
1297.486731	663.0
1298.026921	662.25
1298.567054	663.5
1299.107131	664.5
1299.647152	666.75
1300.187116	661.75
1300.727025	661.0
1301.266877	664.5
1301.806673	662.25
1302.346413	662.25
1302.886097	664.0
1303.425725	661.25
1303.965297	662.0
1304.504812	660.75
1305.044272	662.5
1305.583675	660.75
1306.123022	660.75
1306.662313	661.5
1307.201548	663.25
1307.740727	662.75
1308.279849	660.5
1308.818916	662.75
1309.357926	662.25
1309.896881	662.5
1310.435779	662.25
1310.974621	659.75
1311.513407	660.75
1312.052137	663.5
1312.590811	661.5
1313.129429	663.25
1313.667991	660.75
1314.206497	660.75
1314.744946	663.25
1315.28334	660.25
1315.821678	664.25
1316.359959	663.25
1316.898184	662.75
1317.436354	664.5
1317.974467	661.5
1318.512525	662.25
1319.050526	661.75
1319.588471	662.75
1320.12636	663.5
1320.664194	660.75
1321.201971	663.0
1321.739692	661.0
1322.277357	664.25
1322.814967	660.25
1323.35252	665.5
1323.890017	667.0
1324.427458	662.0
1324.964843	662.0
1325.502173	665.25
1326.039446	662.5
1326.576663	664.0
1327.113824	661.0
1327.65093	665.5
1328.187979	661.0
1328.724972	662.75
1329.26191	662.0
1329.798791	662.0
1330.335617	662.75
1330.872386	660.75
1331.4091	663.0
1331.945758	659.75
1332.48236	663.0
1333.018905	662.0
1333.555395	661.5
1334.091829	662.75
1334.628207	662.5
1335.164529	662.25
1335.700796	662.5
1336.237006	662.25
1336.77316	663.75
1337.309259	660.25
1337.845301	660.75
1338.381288	663.5
1338.917219	661.5
1339.453094	662.0
1339.988913	661.5
1340.524676	664.5
1341.060383	661.0
1341.596034	661.25
1342.13163	664.75
1342.66717	662.25
1343.202653	666.25
1343.738081	661.0
1344.273453	664.5
1344.80877	663.25
1345.34403	660.5
1345.879235	662.25
1346.414383	664.0
1346.949476	663.0
1347.484513	662.5
1348.019494	662.5
1348.55442	663.5
1349.089289	664.0
1349.624103	660.0
1350.158861	663.5
1350.693563	663.0
1351.228209	661.25
1351.7628	659.75
1352.297334	660.0
1352.831813	663.25
1353.366236	664.25
1353.900604	665.25
1354.434915	664.25
1354.969171	663.5
1355.503371	661.5
1356.037515	662.75
1356.571604	663.5
1357.105636	661.75
1357.639613	662.75
1358.173535	663.5
1358.7074	662.0
1359.24121	665.25
1359.774964	663.5
1360.308662	660.5
1360.842304	663.25
1361.375891	658.75
1361.909422	662.5
1362.442897	665.5
1362.976317	660.0
1363.50968	661.0
1364.042989	660.25
1364.576241	663.75
1365.109438	663.25
1365.642579	662.5
1366.175664	661.0
1366.708693	662.25
1367.241667	662.0
1367.774585	662.75
1368.307448	663.75
1368.840255	659.75
1369.373006	660.0
1369.905701	660.75
1370.438341	664.0
1370.970925	665.5
1371.503454	661.25
1372.035926	660.75
1372.568344	662.25
1373.100705	663.75
1373.633011	665.0
1374.165261	661.25
1374.697456	663.0
1375.229595	659.75
1375.761678	660.25
1376.293705	664.75
1376.825677	661.75
1377.357594	661.5
1377.889455	663.25
1378.42126	664.5
1378.953009	663.75
1379.484703	662.0
1380.016342	663.5
1380.547924	662.5
1381.079452	661.75
1381.610923	661.75
1382.142339	663.5
1382.673699	663.75
1383.205004	662.25
1383.736253	663.75
1384.267447	661.0
1384.798585	665.75
1385.329668	662.25
1385.860695	664.0
1386.391666	666.25
1386.922582	664.5
1387.453442	674.0
1387.984247	685.5
1388.514996	739.0
1389.04569	791.75
1389.576328	726.75
1390.10691	680.25
1390.637437	667.5
1391.167909	665.5
1391.698325	665.0
1392.228685	664.5
1392.75899	662.25
1393.28924	665.25
1393.819434	665.0
1394.349572	663.75
1394.879655	665.5
1395.409683	661.25
1395.939655	662.75
1396.469571	662.0
1396.999432	660.75
1397.529237	662.25
1398.058987	662.25
1398.588682	659.5
1399.118321	662.75
1399.647905	662.5
1400.177433	662.75
1400.706906	661.25
1401.236323	661.75
1401.765685	663.0
1402.294991	662.0
1402.824242	662.75
1403.353437	665.75
1403.882577	661.25
1404.411662	662.25
1404.940691	662.0
1405.469665	663.5
1405.998583	664.25
1406.527446	663.5
1407.056253	663.25
1407.585005	662.25
1408.113702	661.75
1408.642343	662.0
1409.170929	663.5
1409.69946	664.5
1410.227935	667.75
1410.756354	670.75
1411.284719	664.75
1411.813028	664.0
1412.341281	662.0
1412.869479	660.5
1413.397622	662.0
1413.92571	660.75
1414.453742	661.5
1414.981718	662.75
1415.50964	677.5
1416.037506	660.75
1416.565316	662.25
1417.093072	660.75
1417.620772	663.5
1418.148416	663.25
1418.676005	661.5
1419.203539	662.5
1419.731018	662.75
1420.258441	663.25
1420.785809	661.0
1421.313122	661.25
1421.840379	662.5
1422.367582	663.0
1422.894728	660.25
1423.42182	660.25
1423.948856	662.5
1424.475837	663.75
1425.002762	662.75
1425.529633	659.75
1426.056448	663.0
1426.583207	663.25
1427.109912	661.5
1427.636561	660.0
1428.163155	663.0
1428.689694	661.5
1429.216177	660.5
1429.742605	661.5
1430.268978	658.25
1430.795296	660.5
1431.321558	664.0
1431.847765	664.0
1432.373917	661.5
1432.900014	661.5
1433.426056	664.5
1433.952042	660.25
1434.477973	662.5
1435.003849	662.75
1435.529669	662.0
1436.055435	661.25
1436.581145	659.75
1437.1068	661.75
1437.632399	660.0
1438.157944	663.0
1438.683433	662.0
1439.208868	660.0
1439.734247	660.75
1440.25957	663.0
1440.784839	661.75
1441.310053	660.75
1441.835211	658.75
1442.360314	663.5
1442.885362	663.75
1443.410355	663.25
1443.935292	662.75
1444.460175	661.75
1444.985002	662.25
1445.509774	661.0
1446.034491	662.0
1446.559153	661.75
1447.08376	662.5
1447.608312	663.75
1448.132808	661.75
1448.65725	661.0
1449.181636	661.5
1449.705967	661.75
1450.230243	663.5
1450.754464	660.25
1451.27863	661.0
1451.802741	661.75
1452.326797	662.25
1452.850797	662.5
1453.374743	664.25
1453.898633	661.25
1454.422468	661.25
1454.946249	661.5
1455.469974	660.75
1455.993644	662.0
1456.517259	660.5
1457.040819	664.0
1457.564324	661.5
1458.087773	663.0
1458.611168	662.75
1459.134508	664.25
1459.657793	662.75
1460.181022	660.5
1460.704197	660.5
1461.227316	662.75
1461.750381	662.5
1462.27339	661.25
1462.796345	663.75
1463.319244	659.75
1463.842089	660.0
1464.364878	662.0
1464.887613	663.25
1465.410292	660.5
1465.932916	660.5
1466.455486	661.25
1466.978	661.0
1467.50046	663.5
1468.022864	659.75
1468.545214	661.5
1469.067508	662.5
1469.589748	663.25
1470.111932	664.0
1470.634062	661.25
1471.156136	660.75
1471.678156	661.5
1472.20012	660.75
1472.72203	661.25
1473.243885	662.75
1473.765685	661.0
1474.28743	661.75
1474.80912	661.5
1475.330755	662.25
1475.852335	661.25
1476.37386	660.25
1476.89533	660.25
1477.416745	660.25
1477.938106	662.5
1478.459411	663.5
1478.980662	662.75
1479.501857	663.75
1480.022998	663.0
1480.544084	662.25
1481.065115	663.75
1481.586091	663.0
1482.107012	660.25
1482.627878	662.0
1483.14869	659.5
1483.669446	660.75
1484.190148	662.75
1484.710794	662.75
1485.231386	660.5
1485.751923	659.25
1486.272406	660.75
1486.792833	659.0
1487.313205	660.75
1487.833523	662.25
1488.353786	660.25
1488.873994	662.0
1489.394147	663.0
1489.914245	660.75
1490.434288	661.75
1490.954277	658.25
1491.474211	663.0
1491.99409	660.25
1492.513914	661.0
1493.033683	662.0
1493.553398	663.0
1494.073057	661.25
1494.592662	662.5
1495.112212	659.75
1495.631708	661.75
1496.151148	664.5
1496.670534	663.5
1497.189865	660.0
1497.709141	664.25
1498.228362	661.5
1498.747529	660.25
1499.266641	662.25
1499.785698	671.75
1500.3047	662.75
1500.823648	661.75
1501.34254	664.5
1501.861379	660.5
1502.380162	661.75
1502.89889	660.25
1503.417564	659.75
1503.936183	662.5
1504.454748	660.5
1504.973257	660.5
1505.491712	661.75
1506.010112	663.0
1506.528458	662.25
1507.046748	661.0
1507.564984	662.0
1508.083166	661.25
1508.601292	661.0
1509.119364	661.0
1509.637381	660.5
1510.155344	661.0
1510.673252	670.0
1511.191105	660.5
1511.708903	663.0
1512.226647	660.25
1512.744336	662.25
1513.261971	663.75
1513.77955	660.0
1514.297076	660.75
1514.814546	662.25
1515.331962	659.25
1515.849323	661.0
1516.366629	661.75
1516.883881	662.5
1517.401078	662.0
1517.918221	661.5
1518.435309	661.25
1518.952342	659.25
1519.469321	662.75
1519.986245	659.25
1520.503114	660.25
1521.019929	662.75
1521.536689	663.0
1522.053395	662.0
1522.570046	661.5
1523.086642	663.5
1523.603184	663.25
1524.119671	663.5
1524.636103	662.5
1525.152481	660.25
1525.668805	657.75
1526.185073	661.5
1526.701288	662.5
1527.217447	662.0
1527.733552	660.25
1528.249603	661.25
1528.765599	663.25
1529.28154	660.25
1529.797427	662.0
1530.313259	661.5
1530.829037	659.5
1531.34476	662.75
1531.860429	662.0
1532.376043	661.0
1532.891602	662.75
1533.407107	660.25
1533.922558	661.0
1534.437954	658.25
1534.953295	660.75
1535.468582	661.75
1535.983815	661.5
1536.498993	661.25
1537.014116	662.0
1537.529185	659.75
1538.044199	662.5
1538.559159	660.5
1539.074064	659.25
1539.588915	660.5
1540.103712	661.25
1540.618454	659.75
1541.133141	660.5
1541.647774	661.0
1542.162353	661.25
1542.676877	662.0
1543.191346	659.0
1543.705761	659.5
1544.220122	658.5
1544.734428	661.0
1545.24868	664.0
1545.762877	661.5
1546.27702	662.25
1546.791109	656.25
1547.305143	660.25
1547.819122	659.75
1548.333047	660.25
1548.846918	661.0
1549.360734	659.25
1549.874496	661.25
1550.388204	661.0
1550.901857	661.0
1551.415455	663.0
1551.929	661.0
1552.442489	662.0
1552.955925	661.5
1553.469306	659.75
1553.982632	663.5
1554.495905	659.25
1555.009123	663.5
1555.522286	661.5
1556.035395	663.0
1556.54845	661.75
1557.06145	658.75
1557.574396	660.75
1558.087288	662.0
1558.600125	662.0
1559.112908	659.75
1559.625637	661.5
1560.138311	660.25
1560.650931	661.25
1561.163497	661.75
1561.676008	662.75
1562.188465	660.75
1562.700867	659.75
1563.213216	662.5
1563.725509	660.5
1564.237749	659.75
1564.749934	660.75
1565.262065	661.75
1565.774142	661.75
1566.286164	662.75
1566.798132	661.5
1567.310046	664.5
1567.821906	659.75
1568.333711	661.25
1568.845462	661.5
1569.357158	663.0
1569.868801	660.5
1570.380389	662.25
1570.891922	660.5
1571.403402	661.25
1571.914827	661.0
1572.426198	660.0
1572.937515	662.0
1573.448777	662.5
1573.959985	660.5
1574.471139	660.0
1574.982239	660.75
1575.493285	661.0
1576.004276	663.0
1576.515213	661.0
1577.026096	660.0
1577.536924	662.75
1578.047698	660.5
1578.558419	661.75
1579.069084	662.75
1579.579696	660.0
1580.090254	659.0
1580.600757	658.5
1581.111206	660.75
1581.621601	661.75
1582.131941	659.0
1582.642228	661.0
1583.15246	661.75
1583.662638	660.25
1584.172762	660.5
1584.682832	659.5
1585.192847	661.0
1585.702809	661.25
1586.212716	659.5
1586.722569	663.25
1587.232368	660.25
1587.742113	659.75
1588.251803	660.75
1588.76144	658.5
1589.271022	659.0
1589.78055	660.75
1590.290024	660.5
1590.799444	663.25
1591.30881	660.25
1591.818121	661.0
1592.327379	660.0
