1042.452273	672.4000244
1043.018714	668.7999878
1043.585098	674.0
1044.151424	669.7999878
1044.717692	672.2000122
1045.283903	669.5999756
1045.850056	671.2000122
1046.416151	670.2000122
1046.982188	668.0
1047.548167	666.2000122
1048.114089	670.4000244
1048.679953	667.7999878
1049.24576	669.0
1049.811509	667.5999756
1050.3772	669.7999878
1050.942833	667.5999756
1051.508408	667.0
1052.073926	669.4000244
1052.639387	667.4000244
1053.204789	666.2000122
1053.770134	668.0
1054.335421	666.2000122
1054.900651	667.2000122
1055.465823	667.0
1056.030937	666.0
1056.595993	667.2000122
1057.160992	666.4000244
1057.725934	667.7999878
1058.290817	666.4000244
1058.855643	666.0
1059.420411	665.2000122
1059.985122	664.2000122
1060.549775	666.0
1061.114371	664.7999878
1061.678908	666.5999756
1062.243389	666.0
1062.807811	664.5999756
1063.372176	663.5999756
1063.936483	665.4000244
1064.500733	664.0
1065.064925	665.5999756
1065.62906	662.7999878
1066.193137	666.5999756
1066.757156	665.0
1067.321118	665.0
1067.885022	664.5999756
1068.448869	666.4000244
1069.012658	665.2000122
1069.57639	664.7999878
1070.140063	669.7999878
1070.70368	664.2000122
1071.267239	666.0
1071.83074	663.7999878
1072.394184	667.2000122
1072.95757	665.5999756
1073.520899	664.7999878
1074.08417	664.2000122
1074.647383	666.4000244
1075.21054	664.7999878
1075.773638	664.0
1076.336679	664.2000122
1076.899663	664.4000244
1077.462589	664.5999756
1078.025457	666.2000122
1078.588268	664.0
1079.151022	664.5999756
1079.713718	664.7999878
1080.276356	667.0
1080.838937	664.2000122
1081.401461	665.5999756
1081.963927	663.7999878
1082.526336	661.4000244
1083.088687	666.0
1083.650981	664.5999756
1084.213217	664.5999756
1084.775396	660.2000122
1085.337517	664.4000244
1085.899581	663.2000122
1086.461587	664.4000244
1087.023536	665.0
1087.585428	666.4000244
1088.147262	664.2000122
1088.709039	666.7999878
1089.270758	666.2000122
1089.83242	664.2000122
1090.394024	665.4000244
1090.955571	665.7999878
1091.517061	663.5999756
1092.078493	665.2000122
1092.639868	666.4000244
1093.201185	664.7999878
1093.762445	661.2000122
1094.323648	666.2000122
1094.884793	665.5999756
1095.445881	671.5999756
1096.006911	662.5999756
1096.567884	664.4000244
1097.1288	669.0
1097.689659	662.2000122
1098.25046	663.0
1098.811203	666.0
1099.37189	664.5999756
1099.932518	661.5999756
1100.49309	665.2000122
1101.053604	665.0
1101.614061	662.7999878
1102.174461	664.0
1102.734803	665.0
1103.295088	663.2000122
1103.855316	663.5999756
1104.415486	663.7999878
1104.975599	665.0
1105.535655	663.4000244
1106.095653	662.2000122
1106.655594	664.4000244
1107.215478	663.2000122
1107.775305	667.2000122
1108.335074	664.5999756
1108.894786	666.2000122
1109.45444	663.4000244
1110.014038	665.4000244
1110.573578	662.2000122
1111.133061	665.0
1111.692486	663.4000244
1112.251854	665.2000122
1112.811165	663.4000244
1113.370419	663.2000122
1113.929616	665.2000122
1114.488755	664.5999756
1115.047837	665.5999756
1115.606862	664.7999878
1116.16583	665.4000244
1116.72474	665.7999878
1117.283593	664.2000122
1117.842389	665.7999878
1118.401128	663.7999878
1118.959809	663.0
1119.518433	663.2000122
1120.077	663.5999756
1120.63551	664.5999756
1121.193963	664.7999878
1121.752358	663.4000244
1122.310697	662.4000244
1122.868978	663.5999756
1123.427202	663.5999756
1123.985368	663.7999878
1124.543478	665.4000244
1125.10153	665.4000244
1125.659526	664.2000122
1126.217464	664.4000244
1126.775345	663.5999756
1127.333168	663.7999878
1127.890935	664.2000122
1128.448644	664.2000122
1129.006297	661.7999878
1129.563892	663.5999756
1130.12143	663.7999878
1130.678911	664.5999756
1131.236335	666.0
1131.793701	662.5999756
1132.351011	664.0
1132.908263	664.5999756
1133.465458	663.2000122
1134.022597	665.7999878
1134.579678	665.0
1135.136702	663.0
1135.693669	663.4000244
1136.250578	664.7999878
1136.807431	664.7999878
1137.364227	665.0
1137.920965	664.2000122
1138.477647	666.5999756
1139.034271	664.5999756
1139.590839	663.0
1140.147349	665.4000244
1140.703802	663.4000244
1141.260198	661.7999878
1141.816537	662.4000244
1142.37282	664.4000244
1142.929045	663.2000122
1143.485213	664.2000122
1144.041323	664.5999756
1144.597377	664.2000122
1145.153374	665.0
1145.709314	663.5999756
1146.265197	666.2000122
1146.821023	663.7999878
1147.376792	665.0
1147.932503	663.5999756
1148.488158	663.5999756
1149.043756	663.4000244
1149.599297	665.4000244
1150.154781	664.0
1150.710207	662.5999756
1151.265577	665.7999878
1151.82089	663.4000244
1152.376146	666.4000244
1152.931345	662.2000122
1153.486487	663.7999878
1154.041572	666.2000122
1154.5966	662.2000122
1155.151571	663.7999878
1155.706485	663.5999756
1156.261342	664.5999756
1156.816142	662.7999878
1157.370885	664.0
1157.925572	662.5999756
1158.480201	667.4000244
1159.034774	663.4000244
1159.589289	665.4000244
1160.143748	662.7999878
1160.698149	663.5999756
1161.252494	664.7999878
1161.806782	664.7999878
1162.361013	661.5999756
1162.915187	664.2000122
1163.469304	665.5999756
1164.023364	664.4000244
1164.577368	664.5999756
1165.131314	663.2000122
1165.685204	667.4000244
1166.239036	662.5999756
1166.792812	665.2000122
1167.346531	664.0
1167.900193	662.5999756
1168.453798	662.2000122
1169.007347	665.2000122
1169.560838	663.2000122
1170.114273	662.0
1170.66765	663.0
1171.220971	664.7999878
1171.774235	663.4000244
1172.327443	662.7999878
1172.880593	663.5999756
1173.433687	664.2000122
1173.986723	662.7999878
1174.539703	663.7999878
1175.092626	665.7999878
1175.645493	664.0
1176.198302	663.7999878
1176.751055	661.2000122
1177.303751	667.4000244
1177.85639	662.5999756
1178.408972	662.2000122
1178.961498	664.0
1179.513966	663.7999878
1180.066378	660.7999878
1180.618733	664.2000122
1181.171032	663.0
1181.723273	662.2000122
1182.275458	664.7999878
1182.827586	664.5999756
1183.379657	665.2000122
1183.931672	662.7999878
1184.48363	665.7999878
1185.035531	661.7999878
1185.587375	665.2000122
1186.139162	664.2000122
1186.690893	663.0
1187.242567	664.0
1187.794184	662.5999756
1188.345745	662.2000122
1188.897249	662.5999756
1189.448696	664.5999756
1190.000086	664.7999878
1190.55142	662.4000244
1191.102697	664.4000244
1191.653918	664.0
1192.205081	665.2000122
1192.756188	664.7999878
1193.307238	680.4000244
1193.858232	662.0
1194.409169	664.4000244
1194.960049	664.5999756
1195.510872	663.0
1196.061639	664.5999756
1196.612349	662.4000244
1197.163003	660.5999756
1197.713599	663.7999878
1198.264139	662.5999756
1198.814623	663.2000122
1199.36505	663.2000122
1199.91542	662.0
1200.465734	665.0
1201.01599	661.0
1201.566191	663.7999878
1202.116334	662.0
1202.666421	664.0
1203.216452	663.2000122
1203.766425	663.4000244
1204.316343	663.7999878
1204.866203	663.4000244
1205.416007	663.5999756
1205.965754	664.0
1206.515445	663.0
1207.065079	665.5999756
1207.614657	664.5999756
1208.164177	663.0
1208.713642	664.0
1209.26305	662.0
1209.812401	664.5999756
1210.361695	664.2000122
1210.910933	665.4000244
1211.460115	663.5999756
1212.00924	666.2000122
1212.558308	663.5999756
1213.10732	665.2000122
1213.656275	666.4000244
1214.205174	662.5999756
1214.754016	669.0
1215.302801	663.0
1215.85153	664.7999878
1216.400203	663.2000122
1216.948819	666.2000122
1217.497378	666.5999756
1218.045881	664.4000244
1218.594327	664.0
1219.142717	668.0
1219.691051	665.0
1220.239327	663.7999878
1220.787548	661.7999878
1221.335712	663.0
1221.883819	664.5999756
1222.43187	664.7999878
1222.979864	664.5999756
1223.527802	663.2000122
1224.075683	665.4000244
1224.623508	783.2000122
1225.171277	860.7999878
1227.361786	882.4000244
1227.909272	882.0
1228.456702	838.4000244
1229.004075	666.5999756
1229.551392	667.7999878
1230.098652	666.5999756
1230.645856	664.5999756
1231.193003	663.2000122
1231.740094	665.5999756
1232.287129	666.2000122
1232.834107	666.0
1233.381029	665.2000122
1233.927894	666.4000244
1234.474703	666.0
1235.021455	667.2000122
1235.568151	667.0
1236.114791	665.5999756
1236.661374	663.7999878
1237.207901	665.5999756
1237.754372	664.2000122
1238.300786	665.7999878
1238.847144	668.2000122
1239.393445	665.5999756
1239.93969	666.4000244
1240.485879	665.0
1241.032011	667.7999878
1241.578087	665.5999756
1242.124106	668.0
1242.67007	668.5999756
1243.215976	669.5999756
1243.761827	667.7999878
1244.307621	667.2000122
1244.853359	668.2000122
1245.39904	666.5999756
1245.944665	668.2000122
1246.490234	668.7999878
1247.035746	668.5999756
1247.581203	669.7999878
1248.126602	668.0
1248.671946	667.0
1249.217233	668.2000122
1249.762464	669.7999878
1250.307638	669.5999756
1250.852757	668.4000244
1251.397819	667.2000122
1251.942824	667.4000244
1252.487774	666.4000244
1253.032667	669.5999756
1253.577503	667.2000122
1254.122284	669.0
1254.667008	672.0
1255.211676	666.2000122
1255.756288	666.7999878
1256.300843	673.4000244
1256.845342	668.4000244
1257.389785	670.7999878
1257.934172	674.0
1258.478502	673.0
1259.022776	672.2000122
1259.566994	670.5999756
1260.111156	679.4000244
1260.655261	675.4000244
1261.199311	673.7999878
1261.743304	677.7999878
1262.28724	678.2000122
1262.831121	687.7999878
1263.374945	691.5999756
1263.918713	693.5999756
1264.462425	690.0
1265.006081	689.4000244
1265.54968	687.0
1266.093223	678.0
1266.636711	676.4000244
1267.180141	674.0
1267.723516	670.4000244
1268.266835	673.2000122
1268.810097	672.2000122
1269.353303	674.5999756
1269.896453	671.7999878
1270.439547	672.7999878
1270.982584	675.2000122
1271.525566	670.0
1272.068491	671.7999878
1272.61136	673.2000122
1273.154173	673.5999756
1273.69693	676.0
1274.239631	671.4000244
1274.782275	675.4000244
1275.324864	676.4000244
1275.867396	674.4000244
1276.409872	673.2000122
1276.952292	673.4000244
1277.494656	674.4000244
1278.036964	678.4000244
1278.579215	674.5999756
1279.121411	679.7999878
1279.66355	683.0
1280.205634	686.4000244
1280.747661	689.2000122
1281.289632	702.4000244
1281.831547	732.4000244
1282.373406	771.7999878
1282.915209	860.2000122
1283.456955	980.5999756
1283.998646	1074.800049
1284.540281	1040.0
1285.081859	891.0
1285.623381	773.5999756
1286.164848	718.7999878
1286.706258	699.5999756
1287.247612	691.2000122
1287.788911	684.0
1288.330153	679.7999878
1288.871339	675.2000122
1289.412469	677.2000122
1289.953543	679.5999756
1290.494561	677.2000122
1291.035523	673.2000122
1291.576428	673.5999756
1292.117278	674.7999878
1292.658072	673.2000122
1293.19881	673.7999878
1293.739492	670.0
1294.280118	671.4000244
1294.820687	671.4000244
1295.361201	672.5999756
1295.901659	671.7999878
1296.442061	671.4000244
1296.982406	671.4000244
1297.522696	673.2000122
1298.06293	671.2000122
1298.603108	674.4000244
1299.143229	672.0
1299.683295	672.2000122
1300.223305	670.2000122
1300.763259	669.0
1301.303157	668.5999756
1301.842999	671.2000122
1302.382785	670.2000122
1302.922515	669.7999878
1303.462189	670.2000122
1304.001807	669.2000122
1304.541369	671.4000244
1305.080875	673.0
1305.620326	669.4000244
1306.15972	671.2000122
1306.699058	669.4000244
1307.238341	669.2000122
1307.777567	669.4000244
1308.316738	669.0
1308.855853	668.2000122
1309.394912	668.4000244
1309.933915	670.5999756
1310.472862	668.4000244
1311.011753	665.2000122
1311.550588	671.5999756
1312.089367	670.5999756
1312.62809	670.4000244
1313.166758	668.7999878
1313.70537	668.2000122
1314.243925	669.7999878
1314.782425	670.5999756
1315.320869	669.5999756
1315.859257	669.4000244
1316.397589	668.2000122
1316.935866	668.5999756
1317.474086	667.4000244
1318.012251	667.4000244
1318.55036	669.5999756
1319.088413	670.0
1319.62641	669.7999878
1320.164351	670.2000122
1320.702236	668.5999756
1321.240066	667.7999878
1321.777839	667.5999756
1322.315557	669.5999756
1322.853219	669.2000122
1323.390826	668.7999878
1323.928376	670.4000244
1324.465871	667.2000122
1325.003309	670.0
1325.540692	667.7999878
1326.07802	667.0
1326.615291	670.4000244
1327.152506	668.2000122
1327.689666	668.2000122
1328.22677	667.4000244
1328.763818	667.2000122
1329.300811	666.5999756
1329.837747	670.2000122
1330.374628	669.0
1330.911453	669.5999756
1331.448222	668.2000122
1331.984936	670.7999878
1332.521594	669.7999878
1333.058196	670.0
1333.594742	668.7999878
1334.131232	668.7999878
1334.667667	669.7999878
1335.204046	666.0
1335.740369	670.7999878
1336.276637	666.0
1336.812848	668.2000122
1337.349004	668.4000244
1337.885105	664.2000122
1338.421149	669.7999878
1338.957138	668.0
1339.493071	672.0
1340.028949	669.2000122
1340.56477	668.4000244
1341.100536	666.4000244
1341.636246	667.4000244
1342.171901	669.5999756
1342.7075	667.2000122
1343.243043	669.5999756
1343.77853	669.4000244
1344.313962	665.2000122
1344.849338	664.5999756
1345.384659	671.4000244
1345.919923	665.7999878
1346.455133	668.0
1346.990286	666.2000122
1347.525384	665.4000244
1348.060426	673.2000122
1348.595412	665.4000244
1349.130343	667.0
1349.665218	667.0
1350.200037	664.4000244
1350.734801	666.7999878
1351.269509	671.0
1351.804162	667.2000122
1352.338758	668.5999756
1352.8733	667.7999878
1353.407785	667.5999756
1353.942215	669.0
1354.476589	667.2000122
1355.010908	669.5999756
1355.545171	667.0
1356.079379	670.5999756
1356.61353	667.5999756
1357.147627	668.5999756
1357.681667	670.0
1358.215652	667.5999756
1358.749582	670.4000244
1359.283456	669.2000122
1359.817274	670.2000122
1360.351037	670.0
1360.884744	670.4000244
1361.418395	670.4000244
1361.951991	670.2000122
1362.485531	670.2000122
1363.019016	670.7999878
1363.552445	672.2000122
1364.085819	673.4000244
1364.619137	672.0
1365.1524	671.0
1365.685607	672.0
1366.218758	673.2000122
1366.751854	672.5999756
1367.284894	670.5999756
1367.817879	669.5999756
1368.350808	676.4000244
1368.883682	674.0
1369.4165	678.5999756
1369.949263	688.0
1370.48197	681.0
1371.014622	673.5999756
1371.547218	670.5999756
1372.079758	676.5999756
1372.612244	673.0
1373.144673	672.2000122
1373.677047	674.4000244
1374.209366	672.7999878
1374.741629	673.7999878
1375.273836	673.4000244
1375.805989	672.2000122
1376.338085	671.0
1376.870126	673.0
1377.402112	675.0
1377.934042	675.2000122
1378.465917	672.7999878
1378.997736	675.4000244
1379.5295	679.2000122
1380.061208	673.4000244
1380.592861	677.0
1381.124459	683.0
1381.656	682.7999878
1382.187487	680.7999878
1382.718918	679.0
1383.250294	685.2000122
1383.781614	688.7999878
1384.312879	691.4000244
1384.844088	701.4000244
1385.375242	719.7999878
1385.90634	744.5999756
1386.437383	810.7999878
1386.968371	961.7999878
1387.499303	1312.0
1388.03018	1541.800049
1388.561001	1231.0
1389.091767	898.0
1389.622478	763.4000244
1390.153133	721.5999756
1390.683733	703.0
1391.214277	691.7999878
1391.744766	687.4000244
1392.2752	685.2000122
1392.805578	681.4000244
1393.335901	682.2000122
1393.866168	681.4000244
1394.396381	677.5999756
1394.926537	680.7999878
1395.456639	677.0
1395.986685	676.4000244
1396.516675	676.4000244
1397.046611	674.0
1397.576491	674.7999878
1398.106315	677.5999756
1398.636084	672.7999878
1399.165798	673.2000122
1399.695457	672.7999878
1400.22506	673.2000122
1400.754608	676.2000122
1401.284101	673.5999756
1401.813538	674.7999878
1402.34292	671.0
1402.872247	674.5999756
1403.401518	674.7999878
1403.930734	675.5999756
1404.459895	677.5999756
1404.989	672.2000122
1405.51805	677.4000244
1406.047045	675.4000244
1406.575984	680.4000244
1407.104869	681.4000244
1407.633697	682.4000244
1408.162471	694.5999756
1408.691189	702.0
1409.219852	716.5999756
1409.74846	716.0
1410.277013	702.4000244
1410.80551	690.2000122
1411.333952	681.5999756
1411.862339	675.0
1412.39067	672.2000122
1412.918946	674.2000122
1413.447167	672.0
1413.975333	671.0
1414.503444	672.4000244
1415.031499	670.4000244
1415.559499	680.5999756
1416.087444	668.7999878
1416.615333	670.5999756
1417.143167	670.2000122
1417.670947	666.5999756
1418.19867	670.0
1418.726339	669.0
1419.253952	670.7999878
1419.781511	665.5999756
1420.309014	670.4000244
1420.836461	667.7999878
1421.363854	667.7999878
1421.891191	666.7999878
1422.418474	667.7999878
1422.945701	669.5999756
1423.472872	667.4000244
1423.999989	667.5999756
1424.52705	667.2000122
1425.054057	669.0
1425.581008	664.7999878
1426.107904	666.0
1426.634745	666.7999878
1427.16153	670.5999756
1427.688261	669.0
1428.214936	667.2000122
1428.741556	666.7999878
1429.268121	668.4000244
1429.794631	664.4000244
1430.321085	667.4000244
1430.847485	666.0
1431.373829	666.5999756
1431.900118	665.5999756
1432.426353	667.5999756
1432.952532	667.5999756
1433.478655	666.4000244
1434.004724	666.0
1434.530738	666.4000244
1435.056696	665.7999878
1435.5826	665.2000122
1436.108448	666.5999756
1436.634241	665.4000244
1437.159979	665.4000244
1437.685662	663.7999878
1438.21129	666.0
1438.736863	665.4000244
1439.262381	669.0
1439.787843	665.5999756
1440.313251	663.7999878
1440.838603	663.5999756
1441.3639	663.7999878
1441.889143	666.4000244
1442.41433	665.4000244
1442.939462	664.5999756
1443.464539	666.2000122
1443.989561	665.5999756
1444.514528	664.4000244
1445.03944	664.5999756
1445.564297	664.0
1446.089099	663.4000244
1446.613846	665.0
1447.138537	662.2000122
1447.663174	663.4000244
1448.187756	664.4000244
1448.712282	665.0
1449.236754	663.4000244
1449.761171	664.0
1450.285532	662.5999756
1450.809839	667.2000122
1451.33409	663.5999756
1451.858287	666.5999756
1452.382428	665.0
1452.906515	663.0
1453.430546	663.0
1453.954523	661.2000122
1454.478444	665.5999756
1455.002311	663.5999756
1455.526123	662.0
1456.049879	664.2000122
1456.573581	664.0
1457.097227	663.7999878
1457.620819	664.0
1458.144356	665.7999878
1458.667837	663.7999878
1459.191264	662.0
1459.714636	665.2000122
1460.237952	664.5999756
1460.761214	663.0
1461.284421	663.2000122
1461.807573	664.4000244
1462.33067	664.4000244
1462.853712	667.2000122
1463.376699	664.5999756
1463.899632	664.5999756
1464.422509	664.5999756
1464.945331	663.0
1465.468099	663.2000122
1465.990811	660.2000122
1466.513469	662.4000244
1467.036071	666.5999756
1467.558619	661.2000122
1468.081112	663.7999878
1468.60355	664.2000122
1469.125933	662.2000122
1469.648261	663.0
1470.170534	665.5999756
1470.692752	665.7999878
1471.214916	665.2000122
1471.737024	663.4000244
1472.259078	665.2000122
1472.781077	663.0
1473.303021	662.7999878
1473.82491	663.7999878
1474.346744	664.2000122
1474.868523	662.4000244
1475.390248	663.4000244
1475.911917	663.4000244
1476.433532	664.0
1476.955092	663.5999756
1477.476597	664.4000244
1477.998047	661.2000122
1478.519442	662.2000122
1479.040783	660.0
1479.562068	662.4000244
1480.083299	662.0
1480.604475	664.0
1481.125596	662.2000122
1481.646663	663.2000122
1482.167674	664.7999878
1482.688631	662.0
1483.209533	662.7999878
1483.73038	665.4000244
1484.251172	665.0
1484.771909	659.5999756
1485.292592	663.7999878
1485.81322	662.2000122
1486.333793	662.5999756
1486.854311	660.7999878
1487.374775	665.0
1487.895183	665.0
1488.415537	663.5999756
1488.935836	662.2000122
1489.456081	665.2000122
1489.97627	660.7999878
1490.496405	662.4000244
1491.016485	662.0
1491.536511	664.7999878
1492.056481	661.7999878
1492.576397	662.7999878
1493.096258	663.2000122
1493.616064	663.2000122
1494.135816	664.7999878
1494.655513	664.2000122
1495.175155	663.0
1495.694742	661.2000122
1496.214274	664.2000122
1496.733752	662.5999756
1497.253175	663.5999756
1497.772544	660.0
1498.291858	663.7999878
1498.811116	663.2000122
1499.330321	661.7999878
1499.84947	670.5999756
1500.368565	665.5999756
1500.887605	661.4000244
1501.406591	663.2000122
1501.925521	660.7999878
1502.444397	661.5999756
1502.963219	659.4000244
1503.481985	662.4000244
1504.000697	664.5999756
1504.519355	662.5999756
1505.037957	663.4000244
1505.556505	662.2000122
1506.074999	663.5999756
1506.593437	663.4000244
1507.111821	662.2000122
1507.63015	663.0
1508.148425	664.4000244
1508.666645	663.5999756
1509.18481	660.4000244
1509.702921	661.2000122
1510.220977	664.4000244
1510.738979	671.4000244
1511.256925	664.0
1511.774817	665.0
1512.292655	665.0
1512.810438	661.5999756
1513.328166	663.2000122
1513.84584	661.4000244
1514.363459	660.5999756
1514.881023	661.2000122
1515.398533	662.2000122
1515.915988	662.4000244
1516.433389	662.5999756
1516.950734	661.7999878
1517.468026	663.7999878
1517.985263	662.0
1518.502445	660.2000122
1519.019572	661.0
1519.536645	663.5999756
1520.053664	663.7999878
1520.570628	661.7999878
1521.087537	661.0
1521.604392	660.5999756
1522.121192	661.0
1522.637937	663.4000244
1523.154628	660.7999878
1523.671265	662.2000122
1524.187847	663.0
1524.704374	662.5999756
1525.220847	662.5999756
1525.737265	666.0
1526.253629	667.7999878
1526.769938	666.2000122
1527.286192	663.5999756
1527.802392	662.5999756
1528.318538	661.0
1528.834629	663.4000244
1529.350666	661.2000122
1529.866648	665.0
1530.382575	663.5999756
1530.898448	662.2000122
1531.414266	662.4000244
1531.93003	660.5999756
1532.44574	659.4000244
1532.961395	662.4000244
1533.476995	662.2000122
1533.992541	663.0
1534.508033	664.0
1535.02347	664.4000244
1535.538852	663.2000122
1536.05418	661.5999756
1536.569454	662.4000244
1537.084673	659.2000122
1537.599837	662.0
1538.114947	661.5999756
1538.630003	661.5999756
1539.145004	662.5999756
1539.659951	664.4000244
1540.174843	659.7999878
1540.689681	661.4000244
1541.204465	659.2000122
1541.719194	663.0
1542.233868	663.5999756
1542.748488	662.4000244
1543.263054	665.2000122
1543.777565	663.0
1544.292022	662.2000122
1544.806424	663.0
1545.320772	662.5999756
1545.835066	659.4000244
1546.349305	661.0
1546.863489	661.2000122
1547.37762	661.0
1547.891696	661.5999756
1548.405717	661.2000122
1548.919684	661.4000244
1549.433597	663.0
1549.947455	661.0
1550.461259	661.4000244
1550.975009	664.0
1551.488704	661.7999878
1552.002345	661.0
1552.515931	663.0
1553.029463	661.7999878
1553.542941	662.4000244
1554.056364	663.5999756
1554.569733	662.5999756
1555.083048	662.7999878
1555.596308	661.4000244
1556.109514	663.0
1556.622665	663.2000122
1557.135762	663.7999878
1557.648805	662.0
1558.161794	662.7999878
1558.674728	664.4000244
1559.187608	663.0
1559.700433	661.5999756
1560.213205	662.4000244
1560.725921	661.5999756
1561.238584	661.2000122
1561.751192	664.4000244
1562.263746	662.5999756
1562.776246	660.0
1563.288691	663.0
1563.801082	662.0
1564.313419	662.7999878
1564.825701	663.2000122
1565.337929	664.0
1565.850103	662.4000244
1566.362223	662.0
1566.874288	661.2000122
1567.386299	662.7999878
1567.898256	662.7999878
1568.410158	662.2000122
1568.922007	662.0
1569.4338	661.0
1569.94554	662.7999878
1570.457226	661.2000122
1570.968857	662.5999756
1571.480434	662.0
1571.991956	661.2000122
1572.503425	663.0
1573.014839	662.5999756
1573.526199	664.0
1574.037505	661.0
1574.548756	660.5999756
1575.059953	662.0
1575.571096	661.0
1576.082185	663.4000244
1576.59322	661.2000122
1577.1042	661.5999756
1577.615126	664.5999756
1578.125998	663.2000122
1578.636816	661.4000244
1579.14758	662.5999756
1579.658289	662.0
1580.168944	661.7999878
1580.679545	664.5999756
1581.190092	659.2000122
1581.700585	661.5999756
1582.211023	661.0
1582.721407	660.2000122
1583.231737	660.0
1583.742013	662.2000122
1584.252235	662.2000122
1584.762403	662.0
1585.272516	663.2000122
1585.782575	661.7999878
1586.292581	661.2000122
1586.802532	662.0
1587.312428	658.5999756
1587.822271	661.0
1588.33206	659.7999878
1588.841794	662.0
1589.351474	664.2000122
1589.8611	663.0
1590.370672	660.4000244
1590.88019	661.0
1591.389654	660.5999756
1591.899064	660.4000244
1592.408419	660.5999756
