1043.018714	1159.0
1043.585098	1179.0
1044.151424	1183.0
1044.717692	1196.0
1045.283903	1169.0
1045.850056	1164.0
1046.416151	1163.0
1046.982188	1159.0
1047.548167	1179.0
1048.114089	1182.0
1048.679953	1177.0
1049.24576	1191.0
1049.811509	1160.0
1050.3772	1197.0
1050.942833	1165.0
1051.508408	1180.0
1052.073926	1178.0
1052.639387	1178.0
1053.204789	1158.0
1053.770134	1156.0
1054.335421	1167.0
1054.900651	1173.0
1055.465823	1168.0
1056.030937	1189.0
1056.595993	1187.0
1057.160992	1184.0
1057.725934	1193.0
1058.290817	1185.0
1058.855643	1173.0
1059.420411	1186.0
1059.985122	1191.0
1060.549775	1178.0
1061.114371	1162.0
1061.678908	1183.0
1062.243389	1183.0
1062.807811	1179.0
1063.372176	1174.0
1063.936483	1186.0
1064.500733	1174.0
1065.064925	1175.0
1065.62906	1171.0
1066.193137	1201.0
1066.757156	1178.0
1067.321118	1189.0
1067.885022	1188.0
1068.448869	1165.0
1069.012658	1169.0
1069.57639	1177.0
1070.140063	1217.0
1070.70368	1184.0
1071.267239	1180.0
1071.83074	1215.0
1072.394184	1196.0
1072.95757	1165.0
1073.520899	1178.0
1074.08417	1220.0
1074.647383	1209.0
1075.773638	1214.0
1076.336679	1203.0
1076.899663	1176.0
1077.462589	1205.0
1078.025457	1211.0
1078.588268	1186.0
1079.151022	1198.0
1079.713718	1192.0
1080.276356	1189.0
1080.838937	1178.0
1081.401461	1175.0
1081.963927	1191.0
1082.526336	1158.0
1083.088687	1183.0
1083.650981	1193.0
1084.213217	1218.0
1084.775396	1184.0
1085.337517	1221.0
1085.899581	1202.0
1086.461587	1209.0
1087.023536	1198.0
1087.585428	1208.0
1088.147262	1194.0
1088.709039	1185.0
1089.270758	1210.0
1089.83242	1197.0
1090.394024	1192.0
1090.955571	1206.0
1091.517061	1194.0
1092.078493	1193.0
1092.639868	1188.0
1093.201185	1215.0
1093.762445	1223.0
1094.323648	1195.0
1094.884793	1200.0
1095.445881	1204.0
1096.006911	1186.0
1096.567884	1209.0
1097.1288	1229.0
1097.689659	1192.0
1098.25046	1193.0
1098.811203	1212.0
1099.37189	1215.0
1099.932518	1217.0
1100.49309	1205.0
1101.053604	1216.0
1101.614061	1226.0
1102.174461	1211.0
1102.734803	1192.0
1103.295088	1195.0
1103.855316	1193.0
1104.415486	1240.0
1104.975599	1196.0
1105.535655	1202.0
1106.095653	1212.0
1106.655594	1223.0
1107.215478	1196.0
1107.775305	1202.0
1108.335074	1217.0
1108.894786	1222.0
1109.45444	1205.0
1110.014038	1220.0
1110.573578	1196.0
1111.133061	1220.0
1111.692486	1216.0
1112.251854	1212.0
1112.811165	1214.0
1113.370419	1221.0
1113.929616	1211.0
1114.488755	1197.0
1115.047837	1236.0
1115.606862	1207.0
1116.16583	1231.0
1116.72474	1214.0
1117.283593	1235.0
1117.842389	1213.0
1118.401128	1231.0
1118.959809	1211.0
1119.518433	1219.0
1120.077	1219.0
1120.63551	1228.0
1121.193963	1212.0
1121.752358	1223.0
1122.310697	1229.0
1122.868978	1223.0
1123.427202	1207.0
1123.985368	1229.0
1124.543478	1234.0
1125.10153	1231.0
1125.659526	1208.0
1126.217464	1234.0
1126.775345	1191.0
1127.333168	1216.0
1127.890935	1223.0
1128.448644	1218.0
1129.006297	1238.0
1129.563892	1203.0
1130.12143	1234.0
1130.678911	1238.0
1131.236335	1246.0
1131.793701	1223.0
1132.351011	1242.0
1132.908263	1212.0
1133.465458	1228.0
1134.022597	1240.0
1134.579678	1213.0
1135.136702	1249.0
1135.693669	1230.0
1136.250578	1235.0
1136.807431	1246.0
1137.364227	1223.0
1137.920965	1243.0
1138.477647	1218.0
1139.034271	1233.0
1139.590839	1255.0
1140.147349	1245.0
1140.703802	1207.0
1141.260198	1232.0
1141.816537	1244.0
1142.37282	1221.0
1142.929045	1211.0
1143.485213	1240.0
1144.041323	1237.0
1144.597377	1221.0
1145.153374	1249.0
1145.709314	1227.0
1146.265197	1227.0
1146.821023	1245.0
1147.376792	1218.0
1147.932503	1230.0
1148.488158	1241.0
1149.043756	1243.0
1149.599297	1248.0
1150.154781	1229.0
1150.710207	1224.0
1151.265577	1203.0
1151.82089	1224.0
1152.376146	1238.0
1152.931345	1215.0
1153.486487	1243.0
1154.041572	1225.0
1154.5966	1209.0
1155.151571	1219.0
1155.706485	1253.0
1156.261342	1219.0
1156.816142	1241.0
1157.370885	1229.0
1157.925572	1230.0
1158.480201	1280.0
1159.034774	1234.0
1159.589289	1215.0
1160.143748	1240.0
1160.698149	1233.0
1161.252494	1232.0
1161.806782	1241.0
1162.361013	1229.0
1162.915187	1226.0
1163.469304	1247.0
1164.023364	1228.0
1164.577368	1239.0
1165.131314	1241.0
1165.685204	1232.0
1166.239036	1252.0
1166.792812	1230.0
1167.346531	1262.0
1167.900193	1236.0
1168.453798	1237.0
1169.007347	1182.0
1169.560838	1228.0
1170.114273	1227.0
1170.66765	1216.0
1171.220971	1219.0
1171.774235	1233.0
1172.327443	1222.0
1172.880593	1231.0
1173.433687	1217.0
1173.986723	1238.0
1174.539703	1245.0
1175.092626	1241.0
1175.645493	1216.0
1176.198302	1201.0
1176.751055	1213.0
1177.303751	1209.0
1177.85639	1214.0
1178.408972	1227.0
1178.961498	1196.0
1179.513966	1244.0
1180.066378	1201.0
1180.618733	1228.0
1181.171032	1215.0
1181.723273	1227.0
1182.275458	1237.0
1182.827586	1216.0
1183.379657	1221.0
1183.931672	1220.0
1184.48363	1223.0
1185.035531	1224.0
1185.587375	1219.0
1186.139162	1210.0
1186.690893	1211.0
1187.242567	1228.0
1187.794184	1193.0
1188.345745	1216.0
1188.897249	1200.0
1189.448696	1195.0
1190.000086	1220.0
1190.55142	1235.0
1191.102697	1219.0
1191.653918	1208.0
1192.205081	1259.0
1192.756188	1180.0
1193.307238	1254.0
1193.858232	1206.0
1194.409169	1236.0
1194.960049	1222.0
1195.510872	1193.0
1196.061639	1207.0
1196.612349	1229.0
1197.163003	1214.0
1197.713599	1207.0
1198.264139	1206.0
1198.814623	1196.0
1199.36505	1214.0
1199.91542	1205.0
1200.465734	1214.0
1201.01599	1212.0
1201.566191	1235.0
1202.116334	1228.0
1202.666421	1223.0
1203.216452	1224.0
1203.766425	1234.0
1204.316343	1255.0
1204.866203	1254.0
1205.416007	1219.0
1205.965754	1211.0
1206.515445	1229.0
1207.065079	1229.0
1207.614657	1205.0
1208.164177	1197.0
1208.713642	1192.0
1209.26305	1208.0
1209.812401	1223.0
1210.361695	1203.0
1210.910933	1210.0
1211.460115	1198.0
1212.00924	1204.0
1212.558308	1178.0
1213.10732	1220.0
1213.656275	1195.0
1214.205174	1200.0
1214.754016	1208.0
1215.302801	1213.0
1215.85153	1202.0
1216.400203	1205.0
1216.948819	1200.0
1217.497378	1207.0
1218.045881	1187.0
1218.594327	1178.0
1219.142717	1214.0
1219.691051	1187.0
1220.239327	1191.0
1220.787548	1210.0
1221.335712	1197.0
1221.883819	1197.0
1222.43187	1201.0
1222.979864	1201.0
1223.527802	1214.0
1224.075683	1205.0
1224.623508	1197.0
1225.171277	1206.0
1225.718989	1179.0
1226.266644	1176.0
1226.814243	1216.0
1227.361786	1209.0
1227.909272	1208.0
1228.456702	1196.0
1229.004075	1220.0
1229.551392	1223.0
1230.098652	1191.0
1230.645856	1184.0
1231.740094	1200.0
1232.287129	1213.0
1232.834107	1218.0
1233.381029	1188.0
1233.927894	1192.0
1234.474703	1201.0
1235.021455	1214.0
1235.568151	1221.0
1236.114791	1197.0
1236.661374	1206.0
1237.207901	1209.0
1237.754372	1185.0
1238.300786	1218.0
1238.847144	1196.0
1239.93969	1189.0
1240.485879	1193.0
1241.032011	1216.0
1241.578087	1208.0
1242.124106	1195.0
1242.67007	1204.0
1243.215976	1184.0
1243.761827	1194.0
1244.307621	1190.0
1244.853359	1208.0
1245.944665	1219.0
1246.490234	1199.0
1247.035746	1193.0
1247.581203	1197.0
1248.126602	1183.0
1248.671946	1213.0
1249.217233	1205.0
1249.762464	1229.0
1250.307638	1205.0
1250.852757	1199.0
1251.397819	1212.0
1251.942824	1214.0
1252.487774	1193.0
1253.032667	1199.0
1253.577503	1196.0
1254.122284	1213.0
1254.667008	1182.0
1255.211676	1227.0
1255.756288	1187.0
1256.300843	1221.0
1256.845342	1217.0
1257.389785	1214.0
1257.934172	1177.0
1258.478502	1163.0
1259.022776	1190.0
1259.566994	1191.0
1260.111156	1198.0
1260.655261	1208.0
1261.199311	1191.0
1261.743304	1191.0
1262.28724	1198.0
1262.831121	1171.0
1263.374945	1198.0
1263.918713	1204.0
1264.462425	1195.0
1265.006081	1188.0
1265.54968	1211.0
1266.093223	1190.0
1266.636711	1188.0
1267.180141	1207.0
1267.723516	1191.0
1268.266835	1173.0
1268.810097	1176.0
1269.353303	1193.0
1269.896453	1180.0
1270.439547	1175.0
1270.982584	1197.0
1271.525566	1179.0
1272.068491	1183.0
1272.61136	1181.0
1273.154173	1201.0
1273.69693	1199.0
1274.239631	1172.0
1274.782275	1176.0
1275.324864	1178.0
1275.867396	1176.0
1276.409872	1214.0
1276.952292	1188.0
1277.494656	1184.0
1278.036964	1176.0
1278.579215	1171.0
1279.121411	1175.0
1279.66355	1199.0
1280.205634	1181.0
1280.747661	1208.0
1281.289632	1196.0
1281.831547	1210.0
1282.373406	1187.0
1282.915209	1187.0
1283.456955	1169.0
1283.998646	1176.0
1284.540281	1189.0
1285.081859	1206.0
1285.623381	1178.0
1286.164848	1177.0
1286.706258	1177.0
1287.247612	1177.0
1287.788911	1197.0
1288.330153	1212.0
1288.871339	1189.0
1289.412469	1176.0
1289.953543	1173.0
1290.494561	1201.0
1291.035523	1193.0
1291.576428	1176.0
1292.117278	1192.0
1292.658072	1162.0
1293.19881	1164.0
1293.739492	1175.0
1294.280118	1194.0
1294.820687	1182.0
1295.361201	1156.0
1295.901659	1169.0
1296.442061	1158.0
1296.982406	1191.0
1297.522696	1173.0
1298.06293	1193.0
1298.603108	1199.0
1299.143229	1159.0
1299.683295	1163.0
1300.223305	1189.0
1300.763259	1194.0
1301.303157	1160.0
1301.842999	1195.0
1302.382785	1184.0
1302.922515	1174.0
1303.462189	1167.0
1304.001807	1165.0
1304.541369	1170.0
1305.080875	1174.0
1305.620326	1174.0
1306.15972	1171.0
1306.699058	1195.0
1307.238341	1169.0
1307.777567	1174.0
1308.316738	1138.0
1308.855853	1174.0
1309.394912	1181.0
1309.933915	1176.0
1310.472862	1161.0
1311.011753	1198.0
1311.550588	1176.0
1312.089367	1176.0
1312.62809	1159.0
1313.166758	1159.0
1313.70537	1174.0
1314.243925	1166.0
1314.782425	1167.0
1315.320869	1161.0
1315.859257	1175.0
1316.397589	1158.0
1316.935866	1163.0
1317.474086	1202.0
1318.012251	1190.0
1318.55036	1167.0
1319.088413	1183.0
1319.62641	1169.0
1320.164351	1159.0
1320.702236	1157.0
1321.240066	1169.0
1321.777839	1162.0
1322.315557	1154.0
1322.853219	1167.0
1323.390826	1156.0
1323.928376	1159.0
1324.465871	1177.0
1325.003309	1178.0
1325.540692	1153.0
1326.07802	1151.0
1326.615291	1164.0
1327.152506	1154.0
1327.689666	1159.0
1328.22677	1175.0
1328.763818	1142.0
1329.300811	1166.0
1329.837747	1138.0
1330.374628	1162.0
1330.911453	1155.0
1331.448222	1139.0
1331.984936	1182.0
1332.521594	1152.0
1333.058196	1174.0
1333.594742	1157.0
1334.131232	1161.0
1334.667667	1159.0
1335.204046	1173.0
1335.740369	1154.0
1336.276637	1161.0
1336.812848	1151.0
1337.349004	1169.0
1337.885105	1153.0
1338.957138	1143.0
1339.493071	1163.0
1340.028949	1143.0
1340.56477	1179.0
1341.100536	1146.0
1341.636246	1163.0
1342.171901	1148.0
1342.7075	1162.0
1343.243043	1146.0
1343.77853	1140.0
1344.313962	1164.0
1344.849338	1156.0
1345.384659	1161.0
1345.919923	1146.0
1346.455133	1163.0
1346.990286	1178.0
1347.525384	1139.0
1348.060426	1168.0
1348.595412	1170.0
1349.130343	1137.0
1349.665218	1139.0
1350.200037	1148.0
1350.734801	1140.0
1351.269509	1176.0
1351.804162	1140.0
1352.338758	1142.0
1352.8733	1124.0
1353.407785	1123.0
1353.942215	1157.0
1354.476589	1142.0
1355.010908	1163.0
1355.545171	1175.0
1356.079379	1152.0
1356.61353	1150.0
1357.147627	1155.0
1357.681667	1150.0
1358.215652	1167.0
1358.749582	1130.0
1359.283456	1147.0
1359.817274	1168.0
1360.351037	1139.0
1360.884744	1144.0
1361.418395	1142.0
1361.951991	1165.0
1362.485531	1141.0
1363.019016	1147.0
1363.552445	1168.0
1364.085819	1182.0
1364.619137	1144.0
1365.1524	1159.0
1365.685607	1177.0
1366.218758	1153.0
1366.751854	1158.0
1367.284894	1154.0
1367.817879	1132.0
1368.350808	1136.0
1368.883682	1159.0
1369.4165	1159.0
1369.949263	1151.0
1370.48197	1167.0
1371.014622	1152.0
1371.547218	1153.0
1372.079758	1155.0
1372.612244	1147.0
1373.144673	1160.0
1373.677047	1152.0
1374.209366	1146.0
1374.741629	1128.0
1375.273836	1137.0
1375.805989	1133.0
1376.338085	1151.0
1376.870126	1148.0
1377.402112	1125.0
1377.934042	1155.0
1378.465917	1158.0
1378.997736	1138.0
1379.5295	1153.0
1380.061208	1150.0
1380.592861	1165.0
1381.124459	1149.0
1381.656	1168.0
1382.187487	1152.0
1382.718918	1132.0
1383.250294	1131.0
1383.781614	1154.0
1384.312879	1146.0
1384.844088	1158.0
1385.375242	1129.0
1385.90634	1150.0
1386.437383	1145.0
1386.968371	1144.0
1387.499303	1164.0
1388.03018	1159.0
1388.561001	1127.0
1389.091767	1143.0
1389.622478	1149.0
1390.153133	1131.0
1390.683733	1127.0
1391.214277	1173.0
1391.744766	1145.0
1392.2752	1164.0
1392.805578	1132.0
1393.335901	1167.0
1393.866168	1169.0
1394.396381	1146.0
1394.926537	1166.0
1395.456639	1133.0
1395.986685	1149.0
1396.516675	1109.0
1397.046611	1139.0
1397.576491	1135.0
1398.106315	1130.0
1398.636084	1154.0
1399.165798	1163.0
1399.695457	1129.0
1400.22506	1124.0
1400.754608	1137.0
1401.284101	1143.0
1401.813538	1112.0
1402.34292	1115.0
1402.872247	1128.0
1403.401518	1155.0
1403.930734	1154.0
1404.459895	1148.0
1404.989	1152.0
1405.51805	1149.0
1406.047045	1163.0
1406.575984	1102.0
1407.104869	1122.0
1408.162471	1127.0
1408.691189	1108.0
1409.219852	1132.0
1409.74846	1124.0
1410.277013	1144.0
1410.80551	1118.0
1411.333952	1132.0
1411.862339	1116.0
1412.39067	1110.0
1412.918946	1145.0
1413.447167	1130.0
1413.975333	1133.0
1414.503444	1115.0
1415.031499	1145.0
1415.559499	1130.0
1416.087444	1116.0
1416.615333	1129.0
1417.143167	1114.0
1417.670947	1119.0
1418.19867	1127.0
1418.726339	1143.0
1419.253952	1128.0
1419.781511	1121.0
1420.309014	1111.0
1420.836461	1142.0
1421.363854	1136.0
1421.891191	1112.0
1422.418474	1128.0
1422.945701	1108.0
1423.472872	1118.0
1423.999989	1121.0
1424.52705	1128.0
1425.054057	1107.0
1425.581008	1105.0
1426.107904	1123.0
1426.634745	1114.0
1427.16153	1111.0
1427.688261	1108.0
1428.214936	1110.0
1428.741556	1091.0
1429.268121	1091.0
1429.794631	1107.0
1430.321085	1096.0
1430.847485	1116.0
1431.373829	1114.0
1431.900118	1109.0
1432.426353	1098.0
1432.952532	1092.0
1433.478655	1105.0
1434.004724	1096.0
1434.530738	1085.0
1435.056696	1099.0
1435.5826	1110.0
1436.108448	1113.0
1436.634241	1089.0
1437.159979	1112.0
1437.685662	1103.0
1438.21129	1079.0
1438.736863	1092.0
1439.262381	1089.0
1439.787843	1081.0
1440.313251	1080.0
1440.838603	1082.0
1441.3639	1087.0
1441.889143	1094.0
1442.41433	1073.0
1442.939462	1083.0
1443.464539	1056.0
1443.989561	1083.0
1444.514528	1074.0
1445.03944	1080.0
1445.564297	1066.0
1446.089099	1091.0
1446.613846	1097.0
1447.138537	1081.0
1447.663174	1047.0
1448.187756	1069.0
1448.712282	1054.0
1449.236754	1086.0
1449.761171	1080.0
1450.285532	1059.0
1450.809839	1090.0
1451.33409	1072.0
1451.858287	1065.0
1452.382428	1064.0
1452.906515	1065.0
1453.430546	1071.0
1453.954523	1076.0
1454.478444	1065.0
1455.002311	1074.0
1455.526123	1062.0
1456.049879	1047.0
1456.573581	1061.0
1457.097227	1069.0
1457.620819	1082.0
1458.667837	1064.0
1459.191264	1059.0
1459.714636	1034.0
1460.237952	1056.0
1460.761214	1065.0
1461.284421	1039.0
1461.807573	1039.0
1462.33067	1054.0
1462.853712	1036.0
1463.376699	1054.0
1463.899632	1055.0
1464.422509	1068.0
1464.945331	1071.0
1465.468099	1060.0
1465.990811	1054.0
1466.513469	1065.0
1467.036071	1056.0
1467.558619	1028.0
1468.081112	1058.0
1468.60355	1044.0
1469.125933	1030.0
1469.648261	1053.0
1470.170534	1038.0
1470.692752	1069.0
1471.214916	1037.0
1471.737024	1052.0
1472.259078	1051.0
1472.781077	1056.0
1473.303021	1019.0
1473.82491	1043.0
1474.346744	1039.0
1474.868523	1041.0
1475.390248	1038.0
1475.911917	1037.0
1476.433532	1018.0
1477.476597	1023.0
1477.998047	1015.0
1478.519442	1022.0
1479.040783	1012.0
1479.562068	1043.0
1480.083299	1012.0
1480.604475	1032.0
1481.125596	1025.0
1481.646663	1030.0
1482.167674	1027.0
1482.688631	1010.0
1483.209533	1006.0
1483.73038	1019.0
1484.251172	1031.0
1485.292592	1024.0
1485.81322	1000.0
1486.333793	1013.0
1486.854311	1024.0
1487.374775	1029.0
1487.895183	1026.0
1488.415537	1018.0
1488.935836	1009.0
1489.456081	1012.0
1489.97627	1020.0
1490.496405	1033.0
1491.016485	1000.0
1491.536511	1017.0
1492.056481	998.0
1492.576397	1016.0
1493.096258	997.0
1493.616064	1009.0
1494.135816	1022.0
1494.655513	990.0
1495.175155	1001.0
1495.694742	995.0
1496.214274	1004.0
1496.733752	1004.0
1497.253175	1018.0
1497.772544	999.0
1498.291858	1016.0
1498.811116	1026.0
1499.330321	1013.0
1499.84947	1002.0
1500.368565	1007.0
1500.887605	1003.0
1501.406591	1013.0
1501.925521	1007.0
1502.444397	1015.0
1502.963219	998.0
1503.481985	1015.0
1504.000697	1010.0
1504.519355	1010.0
1505.037957	1000.0
1505.556505	1018.0
1506.074999	1001.0
1506.593437	990.0
1507.111821	1001.0
1507.63015	995.0
1508.148425	1008.0
1508.666645	975.0
1509.18481	987.0
1509.702921	999.0
1510.220977	975.0
1510.738979	1002.0
1511.256925	993.0
1512.292655	1002.0
1512.810438	990.0
1513.328166	1007.0
1513.84584	1009.0
1514.363459	1013.0
1514.881023	984.0
1515.398533	992.0
1515.915988	1016.0
1516.433389	982.0
1516.950734	975.0
1517.468026	982.0
1517.985263	1006.0
1518.502445	1006.0
1519.019572	1003.0
1519.536645	994.0
1520.570628	997.0
1521.087537	997.0
1521.604392	992.0
1522.121192	980.0
1522.637937	1000.0
1523.154628	994.0
1523.671265	993.0
1524.187847	1000.0
1524.704374	991.0
1525.220847	1008.0
1525.737265	1006.0
1526.253629	971.0
1526.769938	989.0
1527.286192	975.0
1527.802392	986.0
1528.318538	991.0
1528.834629	981.0
1529.350666	1007.0
1529.866648	983.0
1530.382575	986.0
1530.898448	988.0
1531.414266	979.0
1531.93003	996.0
1532.44574	995.0
1532.961395	987.0
1533.476995	981.0
1533.992541	980.0
1534.508033	990.0
1535.02347	974.0
1535.538852	972.0
1536.05418	970.0
1536.569454	974.0
1537.084673	994.0
1537.599837	983.0
1538.114947	966.0
1538.630003	971.0
1539.145004	972.0
1539.659951	964.0
1540.174843	985.0
1540.689681	973.0
1541.204465	976.0
1541.719194	971.0
1542.233868	970.0
1542.748488	986.0
1543.263054	994.0
1543.777565	966.0
1544.292022	975.0
1544.806424	978.0
1545.320772	994.0
1545.835066	985.0
1546.349305	968.0
1546.863489	968.0
1547.37762	966.0
1547.891696	972.0
1548.405717	986.0
1548.919684	997.0
1549.433597	978.0
1549.947455	979.0
1550.461259	971.0
1550.975009	988.0
1551.488704	991.0
1552.002345	973.0
1552.515931	992.0
1553.029463	982.0
1553.542941	995.0
1554.569733	981.0
1555.083048	979.0
1555.596308	956.0
1556.109514	989.0
1556.622665	962.0
1557.135762	980.0
1557.648805	987.0
1558.161794	979.0
1558.674728	979.0
1559.187608	973.0
1559.700433	975.0
1560.213205	984.0
1560.725921	981.0
1561.238584	987.0
1561.751192	973.0
1562.263746	974.0
1562.776246	975.0
1563.288691	985.0
1563.801082	989.0
1564.313419	966.0
1565.850103	982.0
1566.362223	967.0
1566.874288	979.0
1567.386299	972.0
1567.898256	994.0
1568.410158	958.0
1568.922007	981.0
1569.4338	985.0
1569.94554	975.0
1570.457226	965.0
1570.968857	985.0
1571.480434	981.0
1571.991956	970.0
1572.503425	978.0
1573.014839	967.0
1573.526199	974.0
1574.037505	984.0
1574.548756	983.0
1575.059953	975.0
1575.571096	972.0
1576.082185	992.0
1576.59322	968.0
1577.1042	987.0
1577.615126	965.0
1578.125998	959.0
1578.636816	961.0
1579.14758	983.0
1579.658289	977.0
1580.168944	955.0
1580.679545	979.0
1581.190092	969.0
1581.700585	981.0
1582.211023	974.0
1582.721407	987.0
1583.231737	975.0
1583.742013	979.0
1584.252235	967.0
1584.762403	964.0
1585.272516	979.0
1585.782575	967.0
1586.292581	968.0
1586.802532	976.0
1587.312428	982.0
1587.822271	962.0
1588.33206	966.0
1588.841794	982.0
1589.351474	973.0
1589.8611	971.0
1590.370672	987.0
1590.88019	980.0
1591.389654	959.0
1591.899064	977.0
