1042.452273	689.0
1043.018714	690.0
1043.585098	683.7999878
1044.151424	688.2000122
1044.717692	686.7999878
1045.283903	683.7999878
1045.850056	680.7999878
1046.416151	680.7999878
1046.982188	682.2000122
1047.548167	681.2000122
1048.114089	679.2000122
1048.679953	676.4000244
1049.24576	675.7999878
1049.811509	677.5999756
1050.3772	679.0
1050.942833	677.2000122
1051.508408	674.7999878
1052.073926	678.5999756
1052.639387	674.5999756
1053.204789	678.4000244
1053.770134	674.7999878
1054.335421	679.0
1054.900651	678.5999756
1055.465823	675.0
1056.030937	676.2000122
1056.595993	677.0
1057.160992	674.5999756
1057.725934	670.4000244
1058.290817	672.5999756
1058.855643	674.2000122
1059.420411	671.4000244
1059.985122	673.5999756
1060.549775	673.4000244
1061.114371	671.4000244
1061.678908	671.2000122
1062.243389	673.7999878
1062.807811	673.0
1063.372176	672.0
1063.936483	674.0
1064.500733	669.2000122
1065.064925	670.7999878
1065.62906	673.4000244
1066.193137	673.4000244
1066.757156	673.4000244
1067.321118	671.4000244
1067.885022	671.4000244
1068.448869	670.7999878
1069.012658	670.5999756
1069.57639	672.5999756
1070.140063	676.7999878
1070.70368	671.5999756
1071.267239	672.7999878
1071.83074	671.5999756
1072.394184	672.4000244
1072.95757	671.2000122
1073.520899	672.4000244
1074.08417	673.5999756
1074.647383	671.2000122
1075.21054	673.0
1075.773638	672.5999756
1076.336679	672.4000244
1076.899663	669.5999756
1077.462589	671.7999878
1078.025457	670.0
1078.588268	673.2000122
1079.151022	667.7999878
1079.713718	669.2000122
1080.276356	674.0
1080.838937	669.5999756
1081.401461	672.0
1081.963927	673.5999756
1082.526336	675.4000244
1083.088687	674.7999878
1083.650981	672.7999878
1084.213217	672.0
1084.775396	672.2000122
1085.337517	671.2000122
1085.899581	670.5999756
1086.461587	670.0
1087.023536	670.4000244
1087.585428	672.5999756
1088.147262	674.7999878
1088.709039	672.7999878
1089.270758	673.5999756
1089.83242	672.4000244
1090.394024	671.7999878
1090.955571	671.7999878
1091.517061	670.5999756
1092.078493	669.4000244
1092.639868	673.4000244
1093.201185	675.0
1093.762445	673.2000122
1094.323648	669.7999878
1094.884793	670.4000244
1095.445881	685.5999756
1096.006911	673.0
1096.567884	671.4000244
1097.1288	677.7999878
1097.689659	673.0
1098.25046	668.0
1098.811203	671.7999878
1099.37189	671.4000244
1099.932518	670.4000244
1100.49309	673.4000244
1101.053604	668.0
1101.614061	673.0
1102.174461	672.5999756
1102.734803	671.2000122
1103.295088	670.0
1103.855316	671.5999756
1104.415486	670.5999756
1104.975599	669.5999756
1105.535655	674.0
1106.095653	676.2000122
1106.655594	671.5999756
1107.215478	673.4000244
1107.775305	672.7999878
1108.335074	675.5999756
1108.894786	675.4000244
1109.45444	674.5999756
1110.014038	673.0
1110.573578	676.0
1111.133061	676.2000122
1111.692486	675.4000244
1112.251854	676.2000122
1112.811165	675.4000244
1113.370419	673.5999756
1113.929616	678.7999878
1114.488755	674.7999878
1115.047837	673.5999756
1115.606862	673.7999878
1116.16583	673.7999878
1116.72474	673.4000244
1117.283593	677.4000244
1117.842389	673.7999878
1118.401128	674.2000122
1118.959809	672.7999878
1119.518433	675.2000122
1120.077	672.5999756
1120.63551	671.5999756
1121.193963	666.4000244
1121.752358	670.2000122
1122.310697	673.0
1122.868978	670.5999756
1123.427202	671.7999878
1123.985368	668.7999878
1124.543478	670.4000244
1125.10153	673.4000244
1125.659526	669.4000244
1126.217464	670.5999756
1126.775345	669.7999878
1127.333168	668.5999756
1127.890935	668.4000244
1128.448644	666.5999756
1129.006297	671.7999878
1129.563892	668.2000122
1130.12143	669.4000244
1130.678911	670.0
1131.236335	670.7999878
1131.793701	668.5999756
1132.351011	670.7999878
1132.908263	671.4000244
1133.465458	671.5999756
1134.022597	673.2000122
1134.579678	669.0
1135.136702	670.5999756
1135.693669	669.0
1136.250578	669.2000122
1136.807431	672.0
1137.364227	671.0
1137.920965	670.2000122
1138.477647	670.4000244
1139.034271	668.2000122
1139.590839	668.7999878
1140.147349	671.0
1140.703802	670.5999756
1141.260198	670.2000122
1141.816537	669.2000122
1142.37282	671.7999878
1142.929045	672.2000122
1143.485213	669.0
1144.041323	670.7999878
1144.597377	672.0
1145.153374	672.2000122
1145.709314	667.5999756
1146.265197	671.7999878
1146.821023	669.5999756
1147.376792	670.4000244
1147.932503	670.7999878
1148.488158	670.2000122
1149.043756	667.7999878
1149.599297	669.2000122
1150.154781	669.2000122
1150.710207	667.5999756
1151.265577	667.5999756
1151.82089	671.4000244
1152.376146	669.0
1152.931345	667.0
1153.486487	669.5999756
1154.041572	669.0
1154.5966	668.4000244
1155.151571	669.7999878
1155.706485	669.7999878
1156.261342	671.0
1156.816142	670.7999878
1157.370885	668.0
1157.925572	669.0
1158.480201	667.0
1159.034774	669.0
1159.589289	670.5999756
1160.143748	670.2000122
1160.698149	671.7999878
1161.252494	666.5999756
1161.806782	668.4000244
1162.361013	671.0
1162.915187	669.0
1163.469304	668.2000122
1164.023364	669.0
1164.577368	670.5999756
1165.131314	668.0
1165.685204	670.2000122
1166.239036	667.7999878
1166.792812	671.2000122
1167.346531	668.0
1167.900193	670.2000122
1168.453798	669.2000122
1169.007347	669.4000244
1169.560838	670.7999878
1170.114273	668.4000244
1170.66765	669.7999878
1171.220971	670.2000122
1171.774235	671.0
1172.327443	668.7999878
1172.880593	669.4000244
1173.433687	669.4000244
1173.986723	669.4000244
1174.539703	670.5999756
1175.092626	669.2000122
1175.645493	666.5999756
1176.198302	669.5999756
1176.751055	669.4000244
1177.303751	667.7999878
1177.85639	668.4000244
1178.408972	667.7999878
1178.961498	670.7999878
1179.513966	670.7999878
1180.066378	670.7999878
1180.618733	670.5999756
1181.171032	672.5999756
1181.723273	671.7999878
1182.275458	673.5999756
1182.827586	670.7999878
1183.379657	672.7999878
1183.931672	673.5999756
1184.48363	674.5999756
1185.035531	674.7999878
1185.587375	674.0
1186.139162	670.5999756
1186.690893	673.0
1187.242567	673.5999756
1187.794184	672.5999756
1188.345745	671.7999878
1188.897249	671.4000244
1189.448696	671.0
1190.000086	671.4000244
1190.55142	670.5999756
1191.102697	669.0
1191.653918	669.0
1192.205081	668.2000122
1192.756188	672.7999878
1193.307238	691.0
1193.858232	668.7999878
1194.409169	671.2000122
1194.960049	674.0
1195.510872	669.2000122
1196.061639	669.5999756
1196.612349	668.7999878
1197.163003	667.0
1197.713599	668.4000244
1198.264139	666.7999878
1198.814623	669.2000122
1199.36505	670.4000244
1199.91542	668.4000244
1200.465734	669.2000122
1201.01599	671.0
1201.566191	670.7999878
1202.116334	669.0
1202.666421	668.2000122
1203.216452	669.2000122
1203.766425	666.5999756
1204.316343	670.4000244
1204.866203	668.2000122
1205.416007	670.2000122
1205.965754	668.7999878
1206.515445	669.4000244
1207.065079	671.5999756
1207.614657	668.2000122
1208.164177	669.7999878
1208.713642	668.4000244
1209.26305	668.0
1209.812401	668.2000122
1210.361695	669.5999756
1210.910933	670.0
1211.460115	669.7999878
1212.00924	672.2000122
1212.558308	668.7999878
1213.10732	669.7999878
1213.656275	666.2000122
1214.205174	672.2000122
1214.754016	668.2000122
1215.302801	671.2000122
1215.85153	667.7999878
1216.400203	667.2000122
1216.948819	670.0
1217.497378	670.0
1218.045881	671.2000122
1218.594327	670.4000244
1219.142717	672.0
1219.691051	671.0
1220.239327	670.2000122
1220.787548	671.0
1221.335712	669.5999756
1221.883819	668.5999756
1222.43187	671.7999878
1222.979864	673.0
1223.527802	672.4000244
1224.075683	671.7999878
1224.623508	671.7999878
1225.171277	670.4000244
1225.718989	670.7999878
1226.266644	671.2000122
1226.814243	671.5999756
1227.361786	672.4000244
1227.909272	672.0
1228.456702	671.2000122
1229.004075	670.7999878
1229.551392	673.0
1230.098652	670.2000122
1230.645856	673.0
1231.193003	669.0
1231.740094	671.0
1232.287129	671.2000122
1232.834107	671.0
1233.381029	670.0
1233.927894	669.0
1234.474703	672.0
1235.021455	668.2000122
1235.568151	670.0
1236.114791	673.5999756
1236.661374	671.7999878
1237.207901	667.4000244
1237.754372	670.0
1238.300786	671.0
1238.847144	670.4000244
1239.393445	670.2000122
1239.93969	672.5999756
1240.485879	669.4000244
1241.032011	669.4000244
1241.578087	668.0
1242.124106	671.2000122
1242.67007	670.7999878
1243.215976	670.7999878
1243.761827	673.2000122
1244.307621	669.5999756
1244.853359	670.4000244
1245.39904	669.5999756
1245.944665	670.5999756
1246.490234	671.4000244
1247.035746	671.2000122
1247.581203	667.5999756
1248.126602	670.7999878
1248.671946	672.0
1249.217233	668.7999878
1249.762464	670.2000122
1250.307638	670.7999878
1250.852757	670.5999756
1251.397819	668.5999756
1251.942824	669.4000244
1252.487774	671.7999878
1253.032667	666.7999878
1253.577503	667.5999756
1254.122284	672.2000122
1254.667008	670.7999878
1255.211676	671.2000122
1255.756288	670.0
1256.300843	670.2000122
1256.845342	671.7999878
1257.389785	670.4000244
1257.934172	665.7999878
1258.478502	668.5999756
1259.022776	670.4000244
1259.566994	665.7999878
1260.111156	682.0
1260.655261	666.7999878
1261.199311	668.7999878
1261.743304	671.2000122
1262.28724	667.0
1262.831121	668.7999878
1263.374945	670.2000122
1263.918713	669.0
1264.462425	670.7999878
1265.006081	671.4000244
1265.54968	672.2000122
1266.093223	668.4000244
1266.636711	669.7999878
1267.180141	669.2000122
1267.723516	669.4000244
1268.266835	671.4000244
1268.810097	666.7999878
1269.353303	668.5999756
1269.896453	669.4000244
1270.439547	667.7999878
1270.982584	667.2000122
1271.525566	669.4000244
1272.068491	664.2000122
1272.61136	666.7999878
1273.154173	670.0
1273.69693	667.4000244
1274.239631	669.5999756
1274.782275	665.7999878
1275.324864	667.5999756
1275.867396	666.4000244
1276.409872	667.7999878
1276.952292	669.4000244
1277.494656	666.2000122
1278.036964	668.5999756
1278.579215	665.7999878
1279.121411	666.2000122
1279.66355	668.7999878
1280.205634	667.0
1280.747661	668.0
1281.289632	668.4000244
1281.831547	666.4000244
1282.373406	673.2000122
1282.915209	666.2000122
1283.456955	668.4000244
1283.998646	669.7999878
1284.540281	667.5999756
1285.081859	679.5999756
1285.623381	697.2000122
1286.164848	690.2000122
1286.706258	673.0
1287.247612	669.0
1287.788911	668.2000122
1288.330153	668.7999878
1288.871339	670.5999756
1289.412469	669.2000122
1289.953543	668.0
1290.494561	668.2000122
1291.035523	671.4000244
1291.576428	667.5999756
1292.117278	669.4000244
1292.658072	668.4000244
1293.19881	673.0
1293.739492	666.4000244
1294.280118	668.4000244
1294.820687	669.4000244
1295.361201	667.2000122
1295.901659	670.4000244
1296.442061	667.4000244
1296.982406	670.4000244
1297.522696	669.5999756
1298.06293	667.2000122
1299.683295	670.0
1300.223305	669.0
1300.763259	672.4000244
1301.303157	669.5999756
1301.842999	669.5999756
1302.382785	668.4000244
1302.922515	670.5999756
1303.462189	669.5999756
1304.001807	666.5999756
1304.541369	665.4000244
1305.080875	670.0
1305.620326	668.2000122
1306.15972	671.0
1306.699058	666.5999756
1307.238341	668.4000244
1307.777567	670.2000122
1308.316738	667.2000122
1308.855853	668.5999756
1309.394912	668.4000244
1309.933915	665.5999756
1310.472862	666.4000244
1311.011753	670.7999878
1311.550588	666.2000122
1312.089367	666.5999756
1312.62809	666.4000244
1313.166758	666.7999878
1313.70537	669.0
1314.243925	668.0
1314.782425	669.7999878
1315.320869	665.4000244
1315.859257	668.0
1316.397589	669.2000122
1316.935866	669.4000244
1317.474086	667.5999756
1318.012251	670.0
1318.55036	668.7999878
1319.088413	665.5999756
1319.62641	666.2000122
1320.164351	666.2000122
1320.702236	665.4000244
1321.240066	667.4000244
1321.777839	665.5999756
1322.315557	666.2000122
1322.853219	667.4000244
1323.390826	669.2000122
1323.928376	670.2000122
1324.465871	666.7999878
1325.003309	666.7999878
1325.540692	666.7999878
1326.07802	665.5999756
1326.615291	664.5999756
1327.152506	665.2000122
1327.689666	668.0
1328.22677	667.7999878
1328.763818	667.7999878
1329.300811	667.2000122
1329.837747	666.4000244
1330.374628	666.5999756
1330.911453	667.0
1331.448222	664.4000244
1331.984936	667.0
1332.521594	665.2000122
1333.058196	669.4000244
1333.594742	667.4000244
1334.131232	669.5999756
1334.667667	669.5999756
1335.204046	667.5999756
1335.740369	668.4000244
1336.276637	667.5999756
1336.812848	667.4000244
1337.349004	667.2000122
1337.885105	667.5999756
1338.421149	666.7999878
1338.957138	666.4000244
1339.493071	666.4000244
1340.028949	666.0
1340.56477	663.7999878
1341.100536	665.5999756
1341.636246	668.0
1342.171901	667.0
1342.7075	666.4000244
1343.243043	668.4000244
1343.77853	668.2000122
1344.313962	665.5999756
1344.849338	665.4000244
1345.384659	665.7999878
1345.919923	667.2000122
1346.455133	665.7999878
1346.990286	665.5999756
1347.525384	668.2000122
1348.060426	667.2000122
1348.595412	667.7999878
1349.130343	668.4000244
1349.665218	665.4000244
1350.200037	666.0
1350.734801	669.0
1351.269509	664.5999756
1351.804162	663.7999878
1352.338758	669.0
1352.8733	666.7999878
1353.407785	667.4000244
1353.942215	668.0
1354.476589	666.0
1355.010908	663.4000244
1355.545171	668.5999756
1356.079379	666.4000244
1356.61353	665.4000244
1357.147627	665.0
1357.681667	667.7999878
1358.215652	666.4000244
1358.749582	667.0
1359.283456	666.7999878
1359.817274	667.0
1360.351037	666.4000244
1360.884744	665.7999878
1361.418395	666.2000122
1361.951991	669.0
1362.485531	664.2000122
1363.019016	666.5999756
1363.552445	664.5999756
1364.085819	664.7999878
1364.619137	668.4000244
1365.1524	669.0
1365.685607	665.5999756
1366.218758	666.7999878
1366.751854	666.0
1367.284894	666.4000244
1367.817879	666.5999756
1368.350808	666.2000122
1368.883682	669.2000122
1369.4165	666.7999878
1369.949263	669.5999756
1370.48197	666.2000122
1371.014622	668.4000244
1371.547218	666.7999878
1372.079758	668.2000122
1372.612244	666.4000244
1373.144673	667.0
1373.677047	666.2000122
1374.209366	667.7999878
1374.741629	669.0
1375.273836	666.5999756
1375.805989	670.0
1376.338085	667.0
1376.870126	667.5999756
1377.402112	663.7999878
1377.934042	665.7999878
1378.465917	668.7999878
1378.997736	664.7999878
1379.5295	666.4000244
1380.061208	667.0
1380.592861	665.5999756
1381.124459	668.2000122
1381.656	667.5999756
1382.187487	670.2000122
1382.718918	664.4000244
1383.250294	666.4000244
1383.781614	667.0
1384.312879	666.5999756
1384.844088	665.2000122
1385.375242	668.0
1385.90634	665.4000244
1386.437383	664.0
1386.968371	667.5999756
1387.499303	668.4000244
1388.03018	671.0
1388.561001	699.7999878
1389.091767	721.7999878
1389.622478	683.5999756
1390.153133	670.2000122
1390.683733	664.7999878
1391.214277	664.7999878
1391.744766	668.4000244
1392.2752	666.0
1392.805578	668.0
1393.335901	665.2000122
1393.866168	668.4000244
1394.396381	667.0
1394.926537	667.4000244
1395.456639	666.0
1395.986685	664.0
1396.516675	665.0
1397.046611	666.0
1397.576491	666.7999878
1398.106315	666.5999756
1398.636084	667.7999878
1399.165798	666.0
1399.695457	665.2000122
1400.22506	667.2000122
1400.754608	664.7999878
1401.284101	663.0
1401.813538	667.4000244
1402.34292	664.7999878
1402.872247	664.0
1403.401518	664.4000244
1403.930734	665.5999756
1404.459895	666.0
1404.989	667.7999878
1405.51805	668.2000122
1406.047045	667.7999878
1406.575984	666.5999756
1407.104869	665.4000244
1407.633697	667.5999756
1408.162471	665.0
1408.691189	666.7999878
1409.219852	668.2000122
1409.74846	668.7999878
1410.277013	670.2000122
1410.80551	668.0
1411.333952	667.7999878
1411.862339	668.0
1412.39067	663.2000122
1412.918946	665.0
1413.447167	665.4000244
1413.975333	666.2000122
1414.503444	667.2000122
1415.031499	666.0
1415.559499	679.0
1416.087444	666.0
1416.615333	665.4000244
1417.143167	664.5999756
1417.670947	667.4000244
1418.19867	666.7999878
1418.726339	665.2000122
1419.253952	665.5999756
1419.781511	666.0
1420.309014	665.0
1420.836461	668.4000244
1421.363854	664.0
1421.891191	666.5999756
1422.418474	669.0
1422.945701	669.2000122
1423.472872	666.2000122
1423.999989	665.4000244
1424.52705	665.4000244
1425.054057	665.4000244
1425.581008	666.0
1426.107904	667.7999878
1426.634745	668.0
1427.16153	666.7999878
1427.688261	666.2000122
1428.214936	665.0
1428.741556	664.5999756
1429.268121	667.4000244
1429.794631	665.0
1430.321085	666.7999878
1430.847485	667.0
1431.373829	667.5999756
1431.900118	665.4000244
1432.426353	667.7999878
1432.952532	668.0
1433.478655	664.0
1434.004724	664.4000244
1434.530738	669.5999756
1435.056696	665.4000244
1435.5826	666.2000122
1436.108448	668.2000122
1436.634241	666.7999878
1437.159979	667.5999756
1437.685662	669.2000122
1438.21129	668.5999756
1438.736863	668.4000244
1439.262381	669.2000122
1439.787843	667.2000122
1440.313251	668.0
1440.838603	667.2000122
1441.3639	668.0
1441.889143	667.0
1442.41433	669.7999878
1442.939462	667.2000122
1443.464539	667.0
1443.989561	665.5999756
1444.514528	667.7999878
1445.03944	669.7999878
1445.564297	668.7999878
1446.089099	665.2000122
1446.613846	669.4000244
1447.138537	668.4000244
1447.663174	667.7999878
1448.187756	668.2000122
1448.712282	668.4000244
1449.236754	671.2000122
1449.761171	667.4000244
1450.285532	670.0
1450.809839	667.4000244
1451.33409	668.5999756
1451.858287	667.0
1452.382428	669.0
1452.906515	668.4000244
1453.430546	667.2000122
1453.954523	667.5999756
1454.478444	666.4000244
1455.002311	670.2000122
1455.526123	667.7999878
1456.049879	667.4000244
1456.573581	668.2000122
1457.097227	667.4000244
1457.620819	668.5999756
1458.144356	670.0
1458.667837	669.2000122
1459.191264	671.2000122
1459.714636	667.2000122
1460.237952	670.4000244
1460.761214	667.2000122
1461.284421	668.0
1461.807573	666.5999756
1462.33067	668.2000122
1462.853712	676.2000122
1463.376699	675.2000122
1463.899632	670.4000244
1464.422509	669.2000122
1464.945331	668.2000122
1465.468099	667.2000122
1465.990811	668.2000122
1466.513469	664.2000122
1467.036071	668.0
1467.558619	666.4000244
1468.081112	669.2000122
1468.60355	665.4000244
1469.125933	669.4000244
1469.648261	664.5999756
1470.170534	670.4000244
1470.692752	670.0
1471.214916	664.7999878
1471.737024	667.2000122
1472.259078	667.0
1472.781077	670.0
1473.303021	667.5999756
1473.82491	668.7999878
1474.346744	668.0
1474.868523	666.2000122
1475.390248	665.0
1475.911917	666.4000244
1476.433532	667.7999878
1476.955092	669.0
1477.476597	666.4000244
1477.998047	667.2000122
1478.519442	669.7999878
1479.040783	666.5999756
1479.562068	665.7999878
1480.083299	665.0
1480.604475	665.5999756
1481.125596	666.5999756
1481.646663	665.0
1482.167674	667.4000244
1482.688631	667.0
1483.209533	668.2000122
1483.73038	665.5999756
1484.251172	666.5999756
1484.771909	665.0
1485.292592	665.7999878
1485.81322	665.0
1486.333793	667.4000244
1486.854311	664.4000244
1487.374775	663.5999756
1487.895183	667.4000244
1488.415537	663.2000122
1488.935836	667.2000122
1489.456081	664.7999878
1489.97627	665.7999878
1490.496405	665.4000244
1491.016485	663.5999756
1491.536511	665.7999878
1492.056481	664.2000122
1492.576397	664.0
1493.096258	668.0
1493.616064	667.4000244
1494.135816	664.7999878
1494.655513	664.4000244
1495.175155	665.4000244
1495.694742	663.4000244
1496.214274	667.2000122
1496.733752	666.7999878
1497.253175	665.7999878
1497.772544	665.7999878
1498.291858	664.0
1498.811116	664.0
1499.330321	665.0
1499.84947	672.5999756
1500.368565	666.2000122
1500.887605	661.2000122
1501.406591	667.2000122
1501.925521	664.0
1502.444397	661.4000244
1502.963219	666.2000122
1503.481985	665.4000244
1504.000697	666.2000122
1504.519355	662.5999756
1505.037957	665.2000122
1505.556505	665.7999878
1506.074999	666.7999878
1506.593437	664.5999756
1507.111821	666.7999878
1507.63015	665.4000244
1508.148425	661.4000244
1508.666645	666.5999756
1509.18481	668.0
1509.702921	667.7999878
1510.220977	665.5999756
1510.738979	673.5999756
1511.256925	664.4000244
1511.774817	666.0
1512.292655	666.2000122
1512.810438	665.2000122
1513.328166	665.5999756
1513.84584	662.4000244
1514.363459	664.5999756
1514.881023	663.2000122
1515.398533	667.0
1515.915988	662.7999878
1516.433389	665.0
1516.950734	664.5999756
1517.468026	665.2000122
1517.985263	666.2000122
1518.502445	667.5999756
1519.019572	662.4000244
1519.536645	662.7999878
1520.053664	667.0
1520.570628	664.0
1521.087537	666.7999878
1521.604392	666.2000122
1522.121192	665.2000122
1522.637937	668.5999756
1523.154628	663.0
1523.671265	661.4000244
1524.187847	666.5999756
1524.704374	663.7999878
1525.220847	665.2000122
1525.737265	668.0
1526.253629	670.4000244
1526.769938	669.4000244
1527.286192	664.2000122
1527.802392	665.4000244
1528.318538	666.2000122
1528.834629	667.0
1529.350666	662.7999878
1529.866648	666.7999878
1530.382575	664.7999878
1530.898448	664.4000244
1531.414266	665.0
1531.93003	664.4000244
1532.44574	664.2000122
1532.961395	664.2000122
1533.476995	667.2000122
1533.992541	665.2000122
1534.508033	665.0
1535.02347	667.0
1535.538852	665.2000122
1536.05418	665.7999878
1536.569454	662.5999756
1537.084673	665.0
1537.599837	664.4000244
1538.114947	665.0
1538.630003	665.7999878
1539.145004	666.2000122
1539.659951	666.4000244
1540.174843	665.4000244
1540.689681	663.5999756
1541.204465	664.5999756
1541.719194	665.5999756
1542.233868	663.7999878
1542.748488	662.4000244
1543.263054	666.7999878
1543.777565	664.0
1544.292022	664.5999756
1544.806424	663.7999878
1545.320772	666.7999878
1545.835066	662.7999878
1546.349305	665.5999756
1546.863489	663.4000244
1547.37762	665.0
1547.891696	664.7999878
1548.405717	666.2000122
1548.919684	665.2000122
1549.433597	662.2000122
1549.947455	668.5999756
1550.461259	667.0
1550.975009	663.7999878
1551.488704	664.5999756
1552.002345	664.4000244
1552.515931	663.5999756
1553.029463	663.5999756
1553.542941	664.4000244
1554.056364	666.4000244
1554.569733	664.2000122
1555.083048	663.2000122
1555.596308	664.0
1556.109514	663.7999878
1556.622665	664.4000244
1557.135762	661.5999756
1557.648805	665.4000244
1558.161794	664.7999878
1558.674728	664.0
1559.187608	665.5999756
1559.700433	663.7999878
1560.213205	667.0
1560.725921	666.5999756
1561.238584	663.5999756
1561.751192	663.7999878
1562.263746	664.4000244
1562.776246	665.2000122
1563.288691	666.4000244
1563.801082	665.5999756
1564.313419	663.5999756
1564.825701	667.2000122
1565.337929	664.4000244
1565.850103	665.0
1566.362223	666.2000122
1566.874288	665.7999878
1567.386299	666.7999878
1567.898256	665.7999878
1568.410158	665.4000244
1568.922007	664.7999878
1569.4338	666.4000244
1569.94554	666.2000122
1570.457226	667.5999756
1570.968857	665.7999878
1571.480434	663.7999878
1571.991956	666.4000244
1572.503425	665.4000244
1573.014839	664.5999756
1573.526199	663.4000244
1574.037505	662.7999878
1574.548756	664.2000122
1575.059953	664.5999756
1575.571096	661.4000244
1576.082185	667.5999756
1576.59322	665.0
1577.1042	667.7999878
1577.615126	664.5999756
1578.125998	666.7999878
1578.636816	665.2000122
1579.14758	665.0
1579.658289	666.5999756
1580.168944	664.5999756
1580.679545	664.7999878
1581.190092	664.2000122
1581.700585	664.0
1582.211023	665.2000122
1582.721407	666.4000244
1583.231737	668.0
1583.742013	667.4000244
1584.252235	665.5999756
1584.762403	665.4000244
1585.272516	664.5999756
1585.782575	667.0
1586.292581	665.0
1586.802532	666.0
1587.312428	665.7999878
1587.822271	667.2000122
1588.33206	667.0
1588.841794	665.4000244
1589.351474	667.5999756
1589.8611	664.7999878
1590.370672	662.7999878
1590.88019	666.2000122
1591.389654	666.2000122
1591.899064	665.5999756
1592.408419	663.0
