1042.414189	681.0
1042.980685	680.4000244
1043.547124	679.0
1044.113505	680.2000122
1044.679828	681.5999756
1045.246093	680.7999878
1045.8123	676.0
1046.378449	678.5999756
1046.94454	677.2000122
1047.510573	676.7999878
1048.076548	675.2000122
1048.642465	678.4000244
1049.208325	675.4000244
1049.774126	676.5999756
1050.339869	677.5999756
1050.905555	681.5999756
1051.471183	675.5999756
1052.036752	675.4000244
1052.602264	675.4000244
1053.167718	678.4000244
1053.733114	675.4000244
1054.298452	675.7999878
1054.863733	676.5999756
1055.428955	675.4000244
1055.994119	676.4000244
1056.559226	675.4000244
1057.124275	674.4000244
1057.689266	673.5999756
1058.254199	675.7999878
1058.819074	675.4000244
1059.383891	676.2000122
1059.94865	676.4000244
1060.513352	677.5999756
1061.077996	674.5999756
1061.642582	674.7999878
1062.20711	677.2000122
1062.77158	676.2000122
1063.335992	673.2000122
1063.900347	672.7999878
1064.464643	675.0
1065.028882	675.0
1065.593063	674.2000122
1066.157187	675.7999878
1066.721252	675.5999756
1067.28526	676.7999878
1067.84921	673.5999756
1068.413102	675.0
1068.976936	676.4000244
1069.540713	675.4000244
1070.104431	679.7999878
1070.668092	675.0
1071.231696	673.4000244
1071.795241	678.5999756
1072.358729	673.0
1072.922159	676.5999756
1073.485531	674.2000122
1074.048845	672.2000122
1074.612102	672.4000244
1075.175301	676.5999756
1075.738442	672.7999878
1076.301525	674.5999756
1076.864551	676.4000244
1077.427519	673.5999756
1077.990429	673.2000122
1078.553281	676.5999756
1079.116076	672.4000244
1079.678813	676.7999878
1080.241492	673.2000122
1080.804114	673.5999756
1081.366678	674.7999878
1081.929184	674.7999878
1082.491633	675.0
1083.054024	672.7999878
1083.616357	675.4000244
1084.178632	675.4000244
1084.74085	673.2000122
1085.30301	674.5999756
1085.865113	674.0
1086.427158	674.5999756
1086.989145	676.4000244
1087.551074	675.7999878
1088.112946	671.4000244
1088.67476	675.5999756
1089.236517	671.2000122
1089.798216	674.0
1090.359857	675.0
1090.92144	676.4000244
1091.482966	672.2000122
1092.044435	673.4000244
1092.605845	671.7999878
1093.167199	672.5999756
1093.728494	676.2000122
1094.289732	676.0
1094.850912	672.2000122
1095.412035	686.0
1095.9731	674.4000244
1096.534107	673.7999878
1097.095057	681.4000244
1097.65595	675.2000122
1098.216784	672.4000244
1098.777561	675.5999756
1099.338281	675.7999878
1099.898943	672.4000244
1100.459547	673.2000122
1101.020094	675.7999878
1101.580584	672.2000122
1102.141015	677.4000244
1102.701389	673.7999878
1103.261706	675.2000122
1103.821965	672.4000244
1104.382167	671.0
1104.942311	674.0
1105.502397	677.0
1106.062426	674.4000244
1106.622398	674.2000122
1107.182312	674.5999756
1107.742168	674.7999878
1108.301967	673.4000244
1108.861708	673.0
1109.421392	673.5999756
1109.981019	674.0
1110.540587	670.0
1111.100099	674.5999756
1111.659553	672.4000244
1112.218949	672.0
1112.778288	672.0
1113.33757	674.0
1113.896794	676.4000244
1114.45596	673.2000122
1115.015069	671.5999756
1115.574121	674.4000244
1116.133115	673.7999878
1116.692052	674.5999756
1117.250931	677.4000244
1117.809753	672.5999756
1118.368517	671.7999878
1118.927224	673.2000122
1119.485873	674.2000122
1120.044465	673.0
1120.603	675.0
1121.161477	673.2000122
1121.719897	676.4000244
1122.278259	672.7999878
1122.836564	673.4000244
1123.394812	674.0
1123.953002	673.0
1124.511135	671.5999756
1125.06921	672.7999878
1125.627228	673.0
1126.185189	674.0
1126.743092	672.0
1127.300938	674.4000244
1127.858726	672.5999756
1128.416457	673.7999878
1128.974131	672.5999756
1129.531748	676.2000122
1130.089307	674.4000244
1130.646808	671.2000122
1131.204252	673.7999878
1131.761639	670.5999756
1132.318969	673.5999756
1132.876241	672.0
1133.433456	674.4000244
1133.990614	674.5999756
1134.547714	675.7999878
1135.104757	674.7999878
1135.661743	675.0
1136.218671	670.0
1136.775542	674.4000244
1137.332356	674.2000122
1137.889112	672.0
1138.445811	675.7999878
1139.002453	674.2000122
1139.559037	674.0
1140.115565	674.0
1140.672035	674.2000122
1141.228447	674.7999878
1141.784803	672.5999756
1142.341101	674.5999756
1142.897342	668.7999878
1143.453525	673.7999878
1144.009651	674.0
1144.565721	674.5999756
1145.121732	672.4000244
1145.677687	670.7999878
1146.233584	675.0
1146.789424	674.4000244
1147.345207	672.2000122
1147.900933	675.5999756
1148.456601	673.0
1149.012212	673.7999878
1149.567766	674.5999756
1150.123263	673.2000122
1150.678702	674.0
1151.234085	673.7999878
1151.78941	675.2000122
1152.344678	670.5999756
1152.899888	670.4000244
1153.455042	671.2000122
1154.010138	675.2000122
1154.565177	676.4000244
1155.120159	675.7999878
1155.675084	671.0
1156.229951	674.4000244
1156.784762	675.4000244
1157.339515	674.5999756
1157.894211	675.4000244
1158.44885	673.4000244
1159.003432	673.0
1159.557956	673.5999756
1160.112424	675.2000122
1160.666834	674.5999756
1161.221187	676.2000122
1161.775483	675.2000122
1162.329722	678.5999756
1162.883904	672.4000244
1163.438029	670.2000122
1163.992096	674.2000122
1164.546107	674.5999756
1165.10006	672.7999878
1165.653956	671.7999878
1166.207795	675.2000122
1166.761577	672.0
1167.315302	675.2000122
1167.86897	674.0
1168.422581	672.7999878
1168.976134	674.7999878
1169.529631	674.2000122
1170.08307	672.7999878
1170.636453	676.0
1171.189778	673.0
1171.743046	673.4000244
1172.296257	673.5999756
1172.849412	673.0
1173.402509	674.7999878
1173.955549	674.5999756
1174.508532	672.0
1175.061458	671.7999878
1175.614327	674.2000122
1176.167138	674.0
1176.719893	674.7999878
1177.272591	672.0
1177.825232	672.0
1178.377816	674.2000122
1178.930342	674.2000122
1179.482812	671.4000244
1180.035225	673.2000122
1180.587581	676.2000122
1181.139879	672.2000122
1181.692121	674.5999756
1182.244306	674.7999878
1182.796434	674.2000122
1183.348504	673.2000122
1183.900518	674.7999878
1184.452475	674.2000122
1185.004375	671.7999878
1185.556218	671.0
1186.108004	672.2000122
1186.659733	671.5999756
1187.211405	675.7999878
1187.76302	673.7999878
1188.314578	676.2000122
1188.866079	671.4000244
1189.417523	673.5999756
1189.96891	673.4000244
1190.520241	673.7999878
1191.071514	670.4000244
1191.622731	672.2000122
1192.17389	676.2000122
1192.724993	671.7999878
1193.276039	690.4000244
1193.827027	674.2000122
1194.377959	672.2000122
1194.928834	673.0
1195.479653	675.0
1196.030414	669.4000244
1196.581118	675.0
1197.131766	672.4000244
1197.682356	674.4000244
1198.23289	675.4000244
1198.783367	673.5999756
1199.333786	675.5999756
1199.88415	672.4000244
1200.434456	673.0
1200.984705	674.4000244
1201.534898	673.4000244
1202.085033	674.0
1202.635112	673.2000122
1203.185134	676.2000122
1203.735099	671.4000244
1204.285007	675.0
1204.834859	672.4000244
1205.384653	671.5999756
1205.934391	674.4000244
1206.484072	673.7999878
1207.033696	673.0
1207.583263	674.2000122
1208.132774	673.4000244
1208.682228	674.2000122
1209.231624	672.2000122
1209.780965	676.2000122
1210.330248	674.7999878
1210.879474	675.2000122
1211.428644	674.2000122
1211.977757	673.4000244
1212.526813	673.0
1213.075813	677.2000122
1213.624755	672.0
1214.173641	672.2000122
1214.72247	675.4000244
1215.271242	675.4000244
1215.819958	674.2000122
1216.368617	673.4000244
1216.917219	674.0
1217.465764	674.7999878
1218.014253	673.0
1218.562685	675.4000244
1219.11106	678.2000122
1219.659378	674.7999878
1220.20764	674.5999756
1220.755845	672.0
1221.303993	675.2000122
1221.852085	670.5999756
1222.400119	669.0
1222.948097	673.2000122
1223.496019	674.2000122
1224.043883	673.0
1224.591691	673.0
1225.139443	675.2000122
1225.687137	673.5999756
1226.234775	673.7999878
1226.782357	676.2000122
1227.329881	674.0
1227.877349	676.2000122
1228.42476	672.2000122
1228.972115	675.0
1229.519413	675.2000122
1230.066654	676.2000122
1230.613839	674.4000244
1231.160967	677.0
1231.708038	673.7999878
1232.255053	674.0
1232.802011	674.7999878
1233.348912	674.0
1233.895757	674.5999756
1234.442545	673.0
1234.989277	674.7999878
1235.535951	675.2000122
1236.08257	675.7999878
1236.629131	674.4000244
1237.175636	673.5999756
1237.722085	675.0
1238.268477	673.7999878
1238.814812	676.7999878
1239.361091	677.7999878
1239.907313	673.2000122
1240.453478	675.4000244
1240.999587	670.7999878
1241.54564	675.0
1242.091636	676.0
1242.637575	675.4000244
1243.183457	677.7999878
1243.729284	675.7999878
1244.275053	677.0
1244.820766	676.0
1245.366423	674.7999878
1245.912022	672.7999878
1246.457566	677.2000122
1247.003053	676.5999756
1247.548483	676.5999756
1248.093857	673.7999878
1248.639174	675.7999878
1249.184435	674.2000122
1249.729639	674.5999756
1250.274787	676.7999878
1250.819878	674.0
1251.364912	675.4000244
1251.909891	676.2000122
1252.454812	677.4000244
1252.999677	678.5999756
1253.544486	674.7999878
1254.089238	674.2000122
1254.633934	675.0
1255.178573	673.5999756
1255.723156	677.0
1256.267682	674.4000244
1256.812152	676.2000122
1257.356565	676.5999756
1257.900922	680.4000244
1258.445223	682.7999878
1258.989467	680.7999878
1259.533654	679.0
1260.077785	688.7999878
1260.62186	680.2000122
1261.165878	683.4000244
1261.70984	686.7999878
1262.253745	692.7999878
1262.797594	689.7999878
1263.341386	697.2000122
1263.885123	693.4000244
1264.428802	688.0
1264.972425	689.2000122
1265.515992	683.5999756
1266.059503	681.2000122
1266.602957	682.2000122
1267.146354	678.7999878
1267.689696	679.5999756
1268.23298	680.0
1268.776209	681.2000122
1269.319381	676.2000122
1269.862497	678.4000244
1270.405556	680.5999756
1270.948559	682.4000244
1271.491506	680.0
1272.034396	680.4000244
1272.57723	679.4000244
1273.120007	681.4000244
1273.662728	677.7999878
1274.205393	680.7999878
1274.748002	683.2000122
1275.290554	681.2000122
1275.83305	682.4000244
1276.375489	681.2000122
1276.917872	686.4000244
1277.460199	683.7999878
1278.00247	683.4000244
1278.544684	688.7999878
1279.086842	690.0
1279.628943	694.4000244
1280.170989	697.7999878
1280.712978	709.7999878
1281.25491	727.2000122
1281.796787	783.2000122
1282.338607	866.5999756
1282.880371	1001.200012
1283.422078	1060.800049
1283.963729	977.4000244
1284.505324	857.0
1285.046863	768.4000244
1285.588345	732.2000122
1286.129772	711.2000122
1286.671142	696.7999878
1287.212455	694.5999756
1287.753713	691.0
1288.294914	684.5999756
1288.836059	686.7999878
1289.377147	686.7999878
1289.91818	685.4000244
1290.459156	680.5999756
1291.000076	684.7999878
1291.54094	683.4000244
1292.081747	681.0
1292.622499	679.5999756
1293.163194	680.7999878
1293.703833	682.4000244
1294.244415	680.4000244
1294.784942	678.2000122
1295.325412	679.2000122
1295.865826	679.0
1296.406184	682.2000122
1296.946486	680.0
1297.486731	680.4000244
1298.026921	679.0
1298.567054	677.7999878
1299.107131	677.4000244
1299.647152	678.4000244
1300.187116	677.5999756
1300.727025	677.0
1301.266877	677.7999878
1301.806673	677.4000244
1302.346413	679.0
1302.886097	679.2000122
1303.425725	675.7999878
1303.965297	675.2000122
1304.504812	678.4000244
1305.044272	674.7999878
1305.583675	675.7999878
1306.123022	676.2000122
1306.662313	677.0
1307.201548	677.0
1307.740727	676.5999756
1308.279849	678.2000122
1308.818916	676.4000244
1309.357926	677.7999878
1309.896881	673.2000122
1310.435779	674.7999878
1310.974621	677.4000244
1311.513407	674.7999878
1312.052137	673.7999878
1312.590811	677.5999756
1313.129429	675.5999756
1313.667991	677.7999878
1314.206497	676.7999878
1314.744946	674.4000244
1315.28334	674.2000122
1315.821678	672.2000122
1316.359959	674.7999878
1316.898184	676.0
1317.436354	676.4000244
1317.974467	675.4000244
1318.512525	675.4000244
1319.050526	675.4000244
1319.588471	675.7999878
1320.12636	672.7999878
1320.664194	674.0
1321.201971	677.7999878
1321.739692	676.5999756
1322.277357	676.4000244
1322.814967	675.7999878
1323.35252	673.2000122
1323.890017	679.7999878
1324.427458	674.7999878
1324.964843	677.2000122
1325.502173	674.4000244
1326.039446	676.7999878
1326.576663	674.2000122
1327.113824	676.0
1327.65093	675.5999756
1328.187979	676.4000244
1328.724972	675.5999756
1329.26191	676.2000122
1329.798791	677.2000122
1330.335617	672.0
1330.872386	676.7999878
1331.4091	676.0
1331.945758	675.2000122
1332.48236	671.7999878
1333.018905	674.0
1333.555395	673.5999756
1334.091829	674.0
1334.628207	675.4000244
1335.164529	675.7999878
1335.700796	677.0
1336.237006	676.5999756
1336.77316	673.7999878
1337.309259	677.0
1337.845301	673.4000244
1338.381288	672.7999878
1338.917219	673.7999878
1339.453094	673.0
1339.988913	677.4000244
1340.524676	673.0
1341.060383	673.0
1341.596034	674.4000244
1342.13163	674.5999756
1342.66717	676.0
1343.202653	677.5999756
1343.738081	671.2000122
1344.273453	673.0
1344.80877	675.7999878
1345.34403	675.4000244
1345.879235	674.2000122
1346.414383	674.7999878
1346.949476	674.7999878
1347.484513	675.0
1348.019494	677.7999878
1348.55442	675.0
1349.089289	672.5999756
1349.624103	677.5999756
1350.158861	676.0
1350.693563	674.2000122
1351.228209	678.0
1351.7628	674.5999756
1352.297334	677.4000244
1352.831813	676.5999756
1353.366236	675.5999756
1353.900604	675.7999878
1354.434915	672.5999756
1354.969171	674.7999878
1355.503371	676.4000244
1356.037515	676.4000244
1356.571604	677.4000244
1357.105636	673.5999756
1357.639613	675.5999756
1358.173535	675.2000122
1358.7074	676.4000244
1359.24121	678.2000122
1359.774964	675.4000244
1360.308662	679.2000122
1360.842304	675.5999756
1361.375891	678.7999878
1361.909422	675.0
1362.442897	673.2000122
1362.976317	677.4000244
1363.50968	679.0
1364.042989	673.0
1364.576241	680.5999756
1365.109438	676.5999756
1365.642579	676.0
1366.175664	674.4000244
1366.708693	679.2000122
1367.241667	677.7999878
1367.774585	676.7999878
1368.307448	681.5999756
1368.840255	681.5999756
1369.373006	685.0
1369.905701	694.2000122
1370.438341	689.4000244
1370.970925	681.4000244
1371.503454	679.0
1372.035926	679.4000244
1372.568344	679.0
1373.100705	680.2000122
1373.633011	682.4000244
1374.165261	678.0
1374.697456	679.2000122
1375.229595	683.2000122
1375.761678	680.7999878
1376.293705	681.2000122
1376.825677	681.0
1377.357594	680.5999756
1377.889455	682.2000122
1378.42126	682.5999756
1378.953009	684.2000122
1379.484703	684.7999878
1380.016342	684.4000244
1380.547924	684.4000244
1381.079452	688.5999756
1381.610923	686.5999756
1382.142339	691.7999878
1382.673699	691.2000122
1383.205004	696.5999756
1383.736253	698.2000122
1384.267447	707.0
1384.798585	716.4000244
1385.329668	736.2000122
1385.860695	775.5999756
1386.391666	855.7999878
1386.922582	1057.800049
1387.453442	1370.800049
1387.984247	1459.199951
1388.514996	1138.199951
1389.04569	894.5999756
1389.576328	779.4000244
1390.10691	732.5999756
1390.637437	720.7999878
1391.167909	704.0
1391.698325	700.2000122
1392.228685	692.5999756
1392.75899	689.2000122
1393.28924	692.7999878
1393.819434	683.7999878
1394.349572	688.0
1394.879655	682.4000244
1395.409683	681.0
1395.939655	683.4000244
1396.469571	680.0
1396.999432	683.2000122
1397.529237	685.2000122
1398.058987	681.0
1398.588682	680.2000122
1399.118321	683.0
1399.647905	680.2000122
1400.177433	679.5999756
1400.706906	682.5999756
1401.236323	681.5999756
1401.765685	680.2000122
1402.294991	680.0
1402.824242	678.7999878
1403.353437	679.0
1403.882577	682.5999756
1404.411662	683.5999756
1404.940691	681.2000122
1405.469665	688.4000244
1405.998583	684.5999756
1406.527446	687.4000244
1407.056253	692.2000122
1407.585005	694.7999878
1408.113702	702.0
1408.642343	708.5999756
1409.170929	714.5999756
1409.69946	704.5999756
1410.227935	702.4000244
1410.756354	694.0
1411.284719	690.4000244
1411.813028	683.2000122
1412.341281	683.4000244
1412.869479	680.7999878
1413.397622	676.4000244
1413.92571	677.7999878
1414.453742	676.5999756
1414.981718	675.5999756
1415.50964	685.7999878
1416.037506	675.7999878
1416.565316	673.0
1417.093072	676.0
1417.620772	676.2000122
1418.148416	674.5999756
1418.676005	675.7999878
1419.203539	675.7999878
1419.731018	674.2000122
1420.258441	676.4000244
1420.785809	673.5999756
1421.313122	675.0
1421.840379	674.4000244
1422.367582	677.0
1422.894728	671.0
1423.42182	676.2000122
1423.948856	673.2000122
1424.475837	673.5999756
1425.002762	671.7999878
1425.529633	671.4000244
1426.056448	671.7999878
1426.583207	676.2000122
1427.109912	676.2000122
1427.636561	676.5999756
1428.163155	672.7999878
1428.689694	674.4000244
1429.216177	673.0
1429.742605	675.7999878
1430.268978	671.0
1430.795296	673.5999756
1431.321558	674.2000122
1431.847765	673.7999878
1432.373917	672.2000122
1432.900014	670.4000244
1433.426056	675.0
1433.952042	670.7999878
1434.477973	675.0
1435.003849	671.0
1435.529669	672.0
1436.055435	675.2000122
1436.581145	672.0
1437.1068	672.0
1437.632399	673.0
1438.157944	672.5999756
1438.683433	670.2000122
1439.208868	672.4000244
1439.734247	672.2000122
1440.25957	673.2000122
1440.784839	671.0
1441.310053	671.2000122
1441.835211	670.4000244
1442.885362	689.4000244
1443.410355	667.5999756
1443.935292	669.2000122
1444.460175	669.0
1444.985002	670.5999756
1445.509774	668.5999756
1446.034491	671.2000122
1446.559153	669.7999878
1447.08376	671.2000122
1447.608312	670.7999878
1448.132808	671.2000122
1448.65725	671.7999878
1449.181636	671.2000122
1449.705967	670.7999878
1450.230243	671.7999878
1450.754464	670.5999756
1451.27863	669.0
1451.802741	669.0
1452.326797	672.2000122
1452.850797	673.2000122
1453.374743	671.2000122
1453.898633	670.0
1454.422468	670.5999756
1454.946249	669.2000122
1455.469974	670.4000244
1455.993644	671.7999878
1456.517259	669.2000122
1457.040819	668.5999756
1457.564324	670.4000244
1458.087773	671.2000122
1458.611168	670.7999878
1459.134508	672.2000122
1459.657793	669.4000244
1460.181022	670.2000122
1460.704197	671.5999756
1461.227316	672.0
1461.750381	673.0
1462.27339	669.5999756
1462.796345	670.0
1463.319244	672.2000122
1463.842089	671.0
1464.364878	668.2000122
1464.887613	669.0
1465.410292	669.4000244
1465.932916	670.0
1466.455486	668.4000244
1466.978	671.7999878
1467.50046	671.4000244
1468.022864	670.5999756
1468.545214	671.7999878
1469.067508	671.0
1469.589748	668.0
1470.111932	668.5999756
1470.634062	670.2000122
1471.156136	668.5999756
1471.678156	671.4000244
1472.20012	671.0
1472.72203	668.4000244
1473.243885	672.0
1473.765685	669.0
1474.28743	672.0
1474.80912	669.5999756
1475.330755	673.4000244
1475.852335	670.4000244
1476.37386	667.5999756
1476.89533	671.4000244
1477.416745	669.5999756
1477.938106	669.7999878
1478.459411	671.5999756
1478.980662	671.0
1479.501857	669.4000244
1480.022998	668.7999878
1480.544084	670.7999878
1481.065115	668.5999756
1481.586091	670.0
1482.107012	669.5999756
1482.627878	673.4000244
1483.14869	668.7999878
1483.669446	671.0
1484.190148	669.7999878
1484.710794	668.4000244
1485.231386	670.5999756
1485.751923	668.2000122
1486.272406	668.5999756
1486.792833	668.0
1487.313205	670.5999756
1487.833523	669.0
1488.353786	666.7999878
1488.873994	670.4000244
1489.394147	670.4000244
1489.914245	669.0
1490.434288	668.0
1490.954277	669.0
1491.474211	670.4000244
1491.99409	667.7999878
1492.513914	670.2000122
1493.033683	668.2000122
1493.553398	669.5999756
1494.073057	668.7999878
1494.592662	668.5999756
1495.112212	667.5999756
1495.631708	669.0
1496.151148	668.2000122
1496.670534	668.4000244
1497.189865	667.7999878
1497.709141	669.7999878
1498.228362	669.7999878
1498.747529	669.7999878
1499.266641	666.7999878
1499.785698	677.0
1500.3047	668.5999756
1500.823648	669.7999878
1501.34254	668.7999878
1501.861379	665.4000244
1502.380162	670.4000244
1502.89889	667.7999878
1503.417564	668.7999878
1503.936183	669.4000244
1504.454748	667.7999878
1504.973257	671.7999878
1505.491712	668.5999756
1506.010112	666.7999878
1506.528458	667.2000122
1507.046748	670.0
1507.564984	669.7999878
1508.083166	669.4000244
1508.601292	669.0
1509.119364	668.4000244
1509.637381	669.5999756
1510.155344	667.7999878
1510.673252	676.2000122
1511.191105	665.5999756
1511.708903	669.0
1512.226647	670.5999756
1512.744336	669.2000122
1513.261971	667.4000244
1513.77955	669.0
1514.297076	668.7999878
1514.814546	669.2000122
1515.331962	669.5999756
1515.849323	666.4000244
1516.366629	670.7999878
1516.883881	668.5999756
1517.401078	668.7999878
1517.918221	667.7999878
1518.435309	666.5999756
1518.952342	669.0
1519.469321	665.4000244
1519.986245	667.7999878
1520.503114	667.7999878
1521.019929	669.7999878
1521.536689	672.4000244
1522.053395	668.0
1522.570046	670.0
1523.086642	666.5999756
1523.603184	667.0
1524.119671	668.0
1524.636103	673.0
1525.152481	667.5999756
1525.668805	666.7999878
1526.185073	669.0
1526.701288	667.2000122
1527.217447	665.5999756
1527.733552	669.2000122
1528.249603	665.0
1528.765599	669.4000244
1529.28154	670.5999756
1529.797427	670.4000244
1530.313259	668.5999756
1530.829037	669.5999756
1531.34476	669.4000244
1531.860429	669.7999878
1532.376043	669.2000122
1532.891602	668.5999756
1533.407107	668.2000122
1533.922558	667.5999756
1534.437954	669.2000122
1534.953295	668.4000244
1535.468582	666.7999878
1535.983815	667.7999878
1536.498993	668.4000244
1537.014116	669.7999878
1537.529185	669.0
1538.044199	671.2000122
1538.559159	665.0
1539.074064	666.0
1539.588915	668.4000244
1540.103712	672.2000122
1540.618454	667.4000244
1541.133141	665.4000244
1541.647774	667.2000122
1542.162353	671.4000244
1542.676877	667.2000122
1543.191346	668.5999756
1543.705761	668.2000122
1544.220122	666.5999756
1544.734428	669.5999756
1545.24868	668.7999878
1545.762877	667.4000244
1546.27702	665.2000122
1546.791109	666.7999878
1547.305143	669.4000244
1547.819122	666.7999878
1548.333047	668.0
1548.846918	668.2000122
1549.360734	668.4000244
1549.874496	669.4000244
1550.388204	669.5999756
1550.901857	665.2000122
1551.415455	666.4000244
1551.929	668.5999756
1552.442489	667.2000122
1552.955925	666.2000122
1553.469306	667.0
1553.982632	666.5999756
1554.495905	666.4000244
1555.009123	666.5999756
1555.522286	665.7999878
1556.035395	668.2000122
1556.54845	670.2000122
1557.06145	669.4000244
1557.574396	668.2000122
1558.087288	666.5999756
1558.600125	668.7999878
1559.112908	667.2000122
1559.625637	669.0
1560.138311	668.0
1560.650931	668.4000244
1561.163497	665.4000244
1561.676008	670.4000244
1562.188465	668.5999756
1562.700867	668.2000122
1563.213216	667.2000122
1563.725509	669.2000122
1564.237749	667.5999756
1564.749934	668.4000244
1565.262065	666.5999756
1565.774142	670.0
1566.286164	668.0
1566.798132	667.5999756
1567.310046	669.4000244
1567.821906	667.4000244
1568.333711	668.5999756
1568.845462	669.2000122
1569.357158	667.5999756
1569.868801	670.0
1570.380389	669.7999878
1570.891922	664.2000122
1571.403402	669.7999878
1571.914827	667.5999756
1572.426198	667.7999878
1572.937515	668.5999756
1573.448777	667.7999878
1573.959985	667.4000244
1574.471139	666.7999878
1574.982239	671.4000244
1575.493285	666.7999878
1576.004276	666.7999878
1576.515213	668.2000122
1577.026096	667.0
1577.536924	667.0
1578.047698	667.5999756
1578.558419	665.0
1579.069084	666.7999878
1579.579696	669.0
1580.090254	667.5999756
1580.600757	669.4000244
1581.111206	670.5999756
1581.621601	667.7999878
1582.131941	670.5999756
1582.642228	664.7999878
1583.15246	669.4000244
1583.662638	667.4000244
1584.172762	666.5999756
1584.682832	664.5999756
1585.192847	671.0
1585.702809	668.4000244
1586.212716	667.4000244
1586.722569	667.2000122
1587.232368	668.2000122
1587.742113	668.2000122
1588.251803	666.2000122
1588.76144	667.5999756
1589.271022	667.0
1589.78055	669.4000244
1590.290024	665.2000122
1590.799444	669.0
1591.30881	667.5999756
1591.818121	670.4000244
1592.327379	663.5999756
