1042.414189	679.5999756
1042.980685	677.7999878
1043.547124	682.4000244
1044.113505	678.5999756
1044.679828	678.5999756
1045.246093	676.7999878
1045.8123	680.5999756
1046.378449	676.7999878
1046.94454	677.7999878
1047.510573	674.0
1048.076548	676.0
1048.642465	676.2000122
1049.208325	677.0
1049.774126	675.2000122
1050.339869	676.0
1050.905555	675.5999756
1051.471183	673.0
1052.036752	674.7999878
1052.602264	677.2000122
1053.167718	677.2000122
1053.733114	674.4000244
1054.298452	676.4000244
1054.863733	673.0
1055.428955	673.2000122
1055.994119	673.5999756
1056.559226	674.0
1057.124275	674.2000122
1057.689266	672.5999756
1058.254199	675.7999878
1058.819074	674.7999878
1059.383891	673.5999756
1059.94865	675.5999756
1060.513352	672.4000244
1061.077996	674.4000244
1061.642582	674.5999756
1062.20711	673.4000244
1062.77158	673.5999756
1063.335992	675.4000244
1063.900347	674.7999878
1064.464643	674.7999878
1065.028882	673.7999878
1065.593063	670.7999878
1066.157187	673.4000244
1066.721252	674.7999878
1067.28526	674.2000122
1067.84921	674.4000244
1068.413102	672.5999756
1068.976936	673.0
1069.540713	673.0
1070.104431	682.7999878
1070.668092	674.5999756
1071.231696	673.2000122
1071.795241	673.5999756
1072.358729	674.4000244
1072.922159	675.5999756
1073.485531	669.2000122
1074.048845	672.4000244
1074.612102	674.4000244
1075.175301	672.2000122
1075.738442	672.4000244
1076.301525	673.2000122
1076.864551	673.0
1077.427519	670.7999878
1077.990429	673.2000122
1078.553281	675.0
1079.116076	673.0
1079.678813	673.7999878
1080.241492	673.7999878
1080.804114	673.0
1081.366678	673.4000244
1081.929184	673.7999878
1082.491633	674.5999756
1083.054024	672.7999878
1083.616357	673.5999756
1084.178632	674.2000122
1084.74085	671.2000122
1085.30301	672.7999878
1085.865113	671.2000122
1086.427158	671.7999878
1086.989145	674.5999756
1087.551074	676.5999756
1088.112946	673.5999756
1088.67476	673.2000122
1089.236517	672.7999878
1089.798216	672.2000122
1090.359857	675.4000244
1090.92144	672.5999756
1091.482966	678.0
1092.044435	674.4000244
1092.605845	672.2000122
1093.167199	673.5999756
1093.728494	670.0
1094.289732	672.7999878
1094.850912	670.5999756
1095.412035	684.5999756
1095.9731	676.2000122
1096.534107	673.0
1097.095057	678.5999756
1097.65595	673.4000244
1098.216784	672.4000244
1098.777561	673.2000122
1099.338281	671.4000244
1099.898943	672.7999878
1100.459547	672.4000244
1101.020094	677.2000122
1101.580584	675.4000244
1102.141015	674.0
1102.701389	672.7999878
1103.261706	671.4000244
1103.821965	674.4000244
1104.382167	670.7999878
1104.942311	675.4000244
1105.502397	673.2000122
1106.062426	674.2000122
1106.622398	675.2000122
1107.182312	674.5999756
1107.742168	673.2000122
1108.301967	670.5999756
1108.861708	673.5999756
1109.421392	671.4000244
1109.981019	673.5999756
1110.540587	672.5999756
1111.100099	673.4000244
1111.659553	673.2000122
1112.218949	675.7999878
1112.778288	671.5999756
1113.33757	669.5999756
1113.896794	671.0
1114.45596	673.5999756
1115.015069	672.4000244
1115.574121	673.2000122
1116.133115	674.0
1116.692052	673.2000122
1117.250931	677.0
1117.809753	674.0
1118.368517	671.5999756
1118.927224	672.0
1119.485873	672.2000122
1120.044465	673.4000244
1120.603	671.2000122
1121.161477	672.7999878
1121.719897	673.4000244
1122.278259	670.2000122
1122.836564	674.7999878
1123.394812	676.0
1123.953002	673.0
1124.511135	670.2000122
1125.06921	671.7999878
1125.627228	675.4000244
1126.185189	674.5999756
1126.743092	673.7999878
1127.300938	672.2000122
1127.858726	672.5999756
1128.416457	670.5999756
1128.974131	671.0
1129.531748	670.4000244
1130.089307	672.4000244
1130.646808	675.2000122
1131.204252	674.2000122
1131.761639	671.4000244
1132.318969	671.7999878
1132.876241	674.0
1133.433456	674.7999878
1133.990614	672.7999878
1134.547714	671.0
1135.104757	670.2000122
1135.661743	672.7999878
1136.218671	673.7999878
1136.775542	672.0
1137.332356	675.0
1137.889112	670.7999878
1138.445811	673.4000244
1139.002453	673.2000122
1139.559037	673.4000244
1140.115565	673.7999878
1140.672035	671.5999756
1141.228447	676.4000244
1141.784803	671.0
1142.341101	672.0
1142.897342	671.4000244
1143.453525	676.4000244
1144.009651	671.0
1144.565721	674.0
1145.121732	669.7999878
1145.677687	674.0
1146.233584	672.2000122
1146.789424	673.0
1147.345207	673.7999878
1147.900933	672.5999756
1148.456601	674.7999878
1149.012212	675.0
1149.567766	671.5999756
1150.123263	670.0
1150.678702	673.0
1151.234085	672.0
1151.78941	670.2000122
1152.344678	674.5999756
1152.899888	672.4000244
1153.455042	671.5999756
1154.010138	671.5999756
1154.565177	671.2000122
1155.120159	676.0
1155.675084	672.2000122
1156.229951	672.4000244
1156.784762	670.0
1157.339515	673.5999756
1157.894211	673.7999878
1158.44885	672.5999756
1159.003432	675.2000122
1159.557956	670.7999878
1160.112424	671.5999756
1160.666834	672.5999756
1161.221187	672.2000122
1161.775483	673.4000244
1162.329722	674.0
1162.883904	673.0
1163.438029	671.5999756
1163.992096	674.5999756
1164.546107	671.2000122
1165.10006	673.5999756
1165.653956	671.2000122
1166.207795	674.7999878
1166.761577	674.4000244
1167.315302	672.7999878
1167.86897	671.7999878
1168.422581	671.2000122
1168.976134	673.7999878
1169.529631	670.5999756
1170.08307	671.0
1170.636453	673.2000122
1171.189778	674.4000244
1171.743046	670.7999878
1172.296257	670.0
1172.849412	671.5999756
1173.402509	670.7999878
1173.955549	672.2000122
1174.508532	670.4000244
1175.061458	673.5999756
1175.614327	671.5999756
1176.167138	670.4000244
1176.719893	673.0
1177.272591	671.0
1177.825232	671.2000122
1178.377816	672.2000122
1178.930342	671.4000244
1179.482812	671.5999756
1180.035225	671.5999756
1180.587581	671.4000244
1181.139879	674.2000122
1181.692121	674.5999756
1182.244306	674.0
1182.796434	672.4000244
1183.348504	672.5999756
1183.900518	673.4000244
1184.452475	670.4000244
1185.004375	671.7999878
1185.556218	673.0
1186.108004	673.7999878
1186.659733	673.2000122
1187.211405	670.5999756
1187.76302	671.7999878
1188.314578	675.5999756
1188.866079	673.7999878
1189.417523	674.7999878
1189.96891	670.2000122
1190.520241	672.4000244
1191.071514	673.4000244
1191.622731	674.0
1192.17389	671.2000122
1192.724993	673.5999756
1193.276039	689.5999756
1193.827027	676.2000122
1194.377959	672.0
1194.928834	671.2000122
1195.479653	676.2000122
1196.030414	671.5999756
1196.581118	674.7999878
1197.131766	670.5999756
1197.682356	675.7999878
1198.23289	672.0
1198.783367	672.2000122
1199.333786	670.4000244
1199.88415	672.4000244
1200.434456	671.5999756
1200.984705	675.2000122
1201.534898	670.0
1202.085033	673.7999878
1202.635112	672.7999878
1203.185134	672.0
1203.735099	669.2000122
1204.285007	672.2000122
1204.834859	673.5999756
1205.384653	672.5999756
1205.934391	668.4000244
1206.484072	672.4000244
1207.033696	670.4000244
1207.583263	674.7999878
1208.132774	669.7999878
1208.682228	672.2000122
1209.231624	672.2000122
1209.780965	674.4000244
1210.330248	672.5999756
1210.879474	673.2000122
1211.428644	672.2000122
1211.977757	671.7999878
1212.526813	672.5999756
1213.075813	678.2000122
1213.624755	673.5999756
1214.173641	672.7999878
1214.72247	673.0
1215.271242	671.5999756
1215.819958	669.5999756
1216.368617	670.7999878
1216.917219	673.2000122
1217.465764	671.2000122
1218.014253	675.0
1218.562685	672.5999756
1219.11106	674.7999878
1219.659378	671.7999878
1220.20764	671.0
1220.755845	671.2000122
1221.303993	673.7999878
1221.852085	671.5999756
1222.400119	672.7999878
1222.948097	673.2000122
1223.496019	673.4000244
1224.043883	674.7999878
1224.591691	671.2000122
1225.139443	673.5999756
1225.687137	674.7999878
1226.234775	671.7999878
1226.782357	672.2000122
1227.329881	674.0
1227.877349	672.7999878
1228.42476	674.0
1228.972115	673.0
1229.519413	673.7999878
1230.066654	673.4000244
1230.613839	674.4000244
1231.160967	673.4000244
1231.708038	672.5999756
1232.255053	674.0
1232.802011	674.7999878
1233.348912	673.2000122
1233.895757	674.2000122
1234.442545	673.7999878
1234.989277	675.0
1235.535951	673.0
1236.08257	674.5999756
1236.629131	675.5999756
1237.175636	673.5999756
1237.722085	674.5999756
1238.268477	671.2000122
1238.814812	674.0
1239.361091	671.5999756
1239.907313	673.5999756
1240.453478	674.0
1240.999587	673.2000122
1241.54564	672.7999878
1242.091636	677.0
1242.637575	676.7999878
1243.183457	673.5999756
1243.729284	674.5999756
1244.275053	676.0
1244.820766	672.0
1245.366423	674.4000244
1245.912022	676.7999878
1246.457566	675.0
1247.003053	673.4000244
1247.548483	673.4000244
1248.093857	673.7999878
1248.639174	675.4000244
1249.184435	673.7999878
1249.729639	675.2000122
1250.274787	676.5999756
1250.819878	675.5999756
1251.364912	674.7999878
1251.909891	673.5999756
1252.454812	675.7999878
1252.999677	674.4000244
1253.544486	675.4000244
1254.089238	674.0
1254.633934	671.2000122
1255.178573	679.0
1255.723156	675.5999756
1256.267682	678.7999878
1256.812152	675.7999878
1257.356565	677.7999878
1257.900922	680.4000244
1258.445223	682.0
1258.989467	679.5999756
1259.533654	679.2000122
1260.077785	690.2000122
1260.62186	682.5999756
1261.165878	685.7999878
1261.70984	686.7999878
1262.253745	691.4000244
1262.797594	692.5999756
1263.341386	692.7999878
1263.885123	693.0
1264.428802	691.2000122
1264.972425	691.4000244
1265.515992	686.4000244
1266.059503	683.5999756
1266.602957	680.7999878
1267.146354	680.7999878
1267.689696	680.0
1268.23298	678.4000244
1268.776209	676.7999878
1269.319381	681.5999756
1269.862497	681.4000244
1270.405556	681.0
1270.948559	680.5999756
1271.491506	678.0
1272.034396	677.2000122
1272.57723	680.0
1273.120007	678.7999878
1273.662728	679.0
1274.205393	678.0
1274.748002	680.5999756
1275.290554	680.2000122
1275.83305	680.5999756
1276.375489	680.0
1276.917872	681.0
1277.460199	680.4000244
1278.00247	682.5999756
1278.544684	688.7999878
1279.086842	687.7999878
1279.628943	692.7999878
1280.170989	697.0
1280.712978	710.7999878
1281.25491	730.2000122
1281.796787	787.5999756
1282.338607	873.0
1282.880371	1011.0
1283.422078	1073.400024
1283.963729	987.7999878
1284.505324	848.7999878
1285.046863	762.5999756
1285.588345	725.2000122
1286.129772	711.4000244
1286.671142	698.2000122
1287.212455	691.4000244
1287.753713	689.0
1288.294914	687.0
1288.836059	687.4000244
1289.377147	682.0
1289.91818	683.0
1290.459156	679.5999756
1291.000076	682.0
1291.54094	679.0
1292.081747	677.7999878
1292.622499	677.0
1293.163194	678.2000122
1293.703833	679.7999878
1294.244415	678.7999878
1294.784942	679.4000244
1295.325412	677.0
1295.865826	680.0
1296.406184	676.0
1296.946486	677.7999878
1297.486731	675.7999878
1298.026921	677.0
1298.567054	676.0
1299.107131	674.4000244
1299.647152	675.7999878
1300.187116	676.4000244
1300.727025	677.0
1301.266877	677.4000244
1301.806673	677.2000122
1302.346413	674.4000244
1302.886097	676.4000244
1303.425725	674.0
1303.965297	674.0
1304.504812	675.7999878
1305.044272	676.7999878
1305.583675	672.7999878
1306.123022	677.4000244
1306.662313	673.7999878
1307.201548	672.5999756
1307.740727	675.5999756
1308.279849	675.4000244
1308.818916	675.7999878
1309.357926	675.2000122
1309.896881	675.2000122
1310.435779	675.2000122
1310.974621	674.2000122
1311.513407	673.4000244
1312.052137	673.0
1312.590811	673.4000244
1313.129429	676.0
1313.667991	675.5999756
1314.206497	673.0
1314.744946	675.2000122
1315.28334	675.2000122
1315.821678	675.7999878
1316.359959	673.4000244
1316.898184	674.0
1317.436354	673.2000122
1317.974467	672.7999878
1318.512525	674.7999878
1319.050526	674.4000244
1319.588471	676.2000122
1320.12636	674.4000244
1320.664194	674.4000244
1321.201971	672.5999756
1321.739692	677.2000122
1322.277357	674.0
1322.814967	674.5999756
1323.35252	674.4000244
1323.890017	677.5999756
1324.427458	673.4000244
1324.964843	676.2000122
1325.502173	676.4000244
1326.039446	673.7999878
1326.576663	675.2000122
1327.113824	672.2000122
1327.65093	674.5999756
1328.187979	675.7999878
1328.724972	674.5999756
1329.26191	673.7999878
1329.798791	672.2000122
1330.335617	674.7999878
1330.872386	672.7999878
1331.4091	675.2000122
1331.945758	673.7999878
1332.48236	673.2000122
1333.018905	673.7999878
1333.555395	676.0
1334.091829	672.5999756
1334.628207	673.0
1335.164529	675.2000122
1335.700796	674.5999756
1336.237006	671.7999878
1336.77316	671.5999756
1337.309259	672.7999878
1337.845301	673.4000244
1338.381288	677.5999756
1338.917219	674.4000244
1339.453094	673.2000122
1339.988913	674.7999878
1340.524676	674.7999878
1341.060383	674.5999756
1341.596034	671.7999878
1342.13163	676.2000122
1342.66717	675.5999756
1343.202653	671.7999878
1343.738081	675.7999878
1344.273453	671.5999756
1344.80877	677.5999756
1345.34403	675.4000244
1345.879235	673.4000244
1346.414383	677.4000244
1346.949476	669.4000244
1347.484513	670.7999878
1348.019494	672.0
1348.55442	674.2000122
1349.089289	673.2000122
1349.624103	674.5999756
1350.158861	674.0
1350.693563	674.2000122
1351.228209	674.0
1351.7628	673.7999878
1352.297334	675.0
1352.831813	671.5999756
1353.366236	674.4000244
1353.900604	673.5999756
1354.434915	672.7999878
1354.969171	677.4000244
1355.503371	674.7999878
1356.037515	673.7999878
1356.571604	673.0
1357.105636	675.0
1357.639613	675.0
1358.173535	672.5999756
1358.7074	676.5999756
1359.24121	676.5999756
1359.774964	676.7999878
1360.308662	673.4000244
1360.842304	676.0
1361.375891	676.4000244
1361.909422	674.4000244
1362.442897	676.4000244
1362.976317	675.5999756
1363.50968	676.0
1364.042989	677.2000122
1364.576241	678.7999878
1365.109438	675.0
1365.642579	678.4000244
1366.175664	678.0
1366.708693	679.2000122
1367.241667	675.7999878
1367.774585	675.4000244
1368.307448	677.0
1368.840255	678.4000244
1369.373006	686.0
1369.905701	691.7999878
1370.438341	690.0
1370.970925	680.0
1371.503454	678.2000122
1372.035926	678.4000244
1372.568344	676.7999878
1373.100705	683.5999756
1373.633011	679.7999878
1374.165261	681.5999756
1374.697456	678.5999756
1375.229595	677.7999878
1375.761678	676.5999756
1376.293705	680.5999756
1376.825677	678.0
1377.357594	681.4000244
1377.889455	680.0
1378.42126	681.5999756
1378.953009	681.2000122
1379.484703	681.0
1380.016342	683.5999756
1380.547924	684.5999756
1381.079452	685.0
1381.610923	687.0
1382.142339	690.4000244
1382.673699	690.5999756
1383.205004	697.2000122
1383.736253	696.5999756
1384.267447	705.4000244
1384.798585	720.0
1385.329668	737.7999878
1385.860695	774.4000244
1386.391666	858.7999878
1386.922582	1061.800049
1387.453442	1388.800049
1387.984247	1462.199951
1388.514996	1149.599976
1389.04569	895.5999756
1389.576328	778.4000244
1390.10691	736.4000244
1390.637437	717.2000122
1391.167909	705.5999756
1391.698325	700.0
1392.228685	693.0
1392.75899	689.0
1393.28924	686.5999756
1393.819434	686.5999756
1394.349572	685.0
1394.879655	686.0
1395.409683	676.7999878
1395.939655	680.0
1396.469571	680.5999756
1396.999432	683.4000244
1397.529237	684.2000122
1398.058987	682.0
1398.588682	679.2000122
1399.118321	683.0
1399.647905	681.4000244
1400.177433	679.4000244
1400.706906	679.5999756
1401.236323	681.7999878
1401.765685	684.4000244
1402.294991	679.2000122
1402.824242	680.5999756
1403.353437	683.5999756
1403.882577	679.0
1404.411662	682.2000122
1404.940691	685.5999756
1405.469665	683.7999878
1405.998583	686.2000122
1406.527446	689.5999756
1407.056253	691.4000244
1407.585005	693.5999756
1408.113702	699.2000122
1408.642343	707.5999756
1409.170929	709.4000244
1409.69946	712.2000122
1410.227935	699.4000244
1410.756354	694.5999756
1411.284719	692.0
1411.813028	685.0
1412.341281	682.5999756
1412.869479	678.0
1413.397622	676.2000122
1413.92571	675.5999756
1414.453742	678.4000244
1414.981718	673.0
1415.50964	686.4000244
1416.037506	676.2000122
1416.565316	675.0
1417.093072	675.0
1417.620772	673.5999756
1418.148416	677.0
1418.676005	672.4000244
1419.203539	672.7999878
1419.731018	672.0
1420.258441	673.0
1420.785809	676.2000122
1421.313122	673.0
1421.840379	672.2000122
1422.367582	672.4000244
1422.894728	673.4000244
1423.42182	678.0
1423.948856	674.5999756
1424.475837	671.7999878
1425.002762	674.5999756
1425.529633	674.0
1426.056448	671.5999756
1426.583207	673.2000122
1427.109912	670.7999878
1427.636561	673.4000244
1428.163155	671.5999756
1428.689694	674.0
1429.216177	670.7999878
1429.742605	674.5999756
1430.268978	671.2000122
1430.795296	675.5999756
1431.321558	673.5999756
1431.847765	668.7999878
1432.373917	672.2000122
1432.900014	672.5999756
1433.426056	673.4000244
1433.952042	671.4000244
1434.477973	670.4000244
1435.003849	671.5999756
1435.529669	670.5999756
1436.055435	670.2000122
1436.581145	670.2000122
1437.1068	668.0
1437.632399	671.4000244
1438.157944	670.2000122
1438.683433	670.0
1439.208868	671.5999756
1439.734247	668.7999878
1440.25957	673.2000122
1440.784839	669.5999756
1441.310053	670.5999756
1441.835211	669.0
1442.360314	670.5999756
1442.885362	673.4000244
1443.410355	667.4000244
1443.935292	671.2000122
1444.460175	670.7999878
1444.985002	667.2000122
1445.509774	669.7999878
1446.034491	671.2000122
1446.559153	669.4000244
1447.08376	671.0
1447.608312	668.4000244
1448.132808	670.2000122
1448.65725	669.4000244
1449.181636	671.4000244
1449.705967	669.5999756
1450.230243	670.0
1450.754464	670.0
1451.27863	667.2000122
1451.802741	669.5999756
1452.326797	670.2000122
1452.850797	673.0
1453.374743	670.4000244
1453.898633	670.4000244
1454.422468	669.2000122
1454.946249	669.2000122
1455.469974	670.5999756
1455.993644	669.4000244
1456.517259	669.2000122
1457.040819	669.5999756
1457.564324	668.5999756
1458.087773	670.4000244
1458.611168	667.5999756
1459.134508	671.2000122
1459.657793	670.5999756
1460.181022	672.5999756
1460.704197	667.5999756
1461.227316	669.5999756
1461.750381	670.4000244
1462.27339	669.0
1462.796345	671.5999756
1463.319244	670.0
1463.842089	671.4000244
1464.364878	667.2000122
1464.887613	667.2000122
1465.410292	668.2000122
1465.932916	668.7999878
1466.455486	667.0
1466.978	668.5999756
1467.50046	669.7999878
1468.022864	670.7999878
1468.545214	670.2000122
1469.067508	669.5999756
1469.589748	669.5999756
1470.111932	670.7999878
1470.634062	671.7999878
1471.156136	668.7999878
1471.678156	668.7999878
1472.20012	667.5999756
1472.72203	669.7999878
1473.243885	668.0
1473.765685	668.7999878
1474.28743	672.2000122
1474.80912	666.5999756
1475.330755	670.4000244
1475.852335	669.5999756
1476.37386	668.2000122
1476.89533	668.7999878
1477.416745	668.7999878
1477.938106	668.2000122
1478.459411	667.4000244
1478.980662	666.2000122
1479.501857	669.0
1480.022998	669.0
1480.544084	668.4000244
1481.065115	670.4000244
1481.586091	668.5999756
1482.107012	671.0
1482.627878	668.5999756
1483.14869	668.2000122
1483.669446	666.4000244
1484.190148	668.2000122
1484.710794	666.7999878
1485.231386	665.7999878
1485.751923	668.5999756
1486.272406	668.7999878
1486.792833	665.5999756
1487.313205	668.5999756
1487.833523	668.4000244
1488.353786	672.0
1488.873994	667.7999878
1489.394147	669.4000244
1489.914245	668.5999756
1490.434288	668.0
1490.954277	667.0
1491.474211	667.0
1491.99409	667.7999878
1492.513914	666.4000244
1493.033683	668.0
1493.553398	669.4000244
1494.073057	668.5999756
1494.592662	668.5999756
1495.112212	670.2000122
1495.631708	669.5999756
1496.151148	664.4000244
1496.670534	667.7999878
1497.189865	666.5999756
1497.709141	670.5999756
1498.228362	666.2000122
1498.747529	668.2000122
1499.266641	668.0
1499.785698	675.2000122
1500.3047	666.7999878
1500.823648	668.0
1501.34254	669.4000244
1501.861379	667.2000122
1502.380162	665.4000244
1502.89889	665.5999756
1503.417564	668.7999878
1503.936183	669.4000244
1504.454748	669.0
1504.973257	670.2000122
1505.491712	669.2000122
1506.010112	666.0
1506.528458	671.7999878
1507.046748	666.5999756
1507.564984	667.4000244
1508.083166	667.5999756
1508.601292	665.4000244
1509.119364	669.0
1509.637381	667.0
1510.155344	668.5999756
1510.673252	676.4000244
1511.191105	665.4000244
1511.708903	666.0
1512.226647	667.7999878
1512.744336	667.2000122
1513.261971	667.2000122
1513.77955	666.4000244
1514.297076	667.5999756
1514.814546	668.0
1515.331962	666.0
1515.849323	669.2000122
1516.366629	669.0
1516.883881	667.7999878
1517.401078	665.4000244
1517.918221	669.5999756
1518.435309	667.0
1518.952342	665.7999878
1519.469321	668.7999878
1519.986245	667.4000244
1520.503114	668.2000122
1521.019929	666.5999756
1521.536689	666.0
1522.053395	667.4000244
1522.570046	667.2000122
1523.086642	666.5999756
1523.603184	668.7999878
1524.119671	667.4000244
1524.636103	667.0
1525.152481	667.7999878
1525.668805	663.7999878
1526.185073	672.0
1526.701288	669.4000244
1527.217447	667.7999878
1527.733552	665.7999878
1528.249603	668.2000122
1528.765599	666.4000244
1529.28154	668.0
1529.797427	667.4000244
1530.313259	665.4000244
1530.829037	667.4000244
1531.34476	669.0
1531.860429	670.5999756
1532.376043	668.5999756
1532.891602	666.7999878
1533.407107	667.2000122
1533.922558	668.7999878
1534.437954	665.7999878
1534.953295	667.4000244
1535.468582	667.4000244
1535.983815	668.0
1536.498993	667.0
1537.014116	667.0
1537.529185	666.5999756
1538.044199	666.2000122
1538.559159	666.7999878
1539.074064	667.0
1539.588915	666.0
1540.103712	670.0
1540.618454	668.0
1541.133141	667.0
1541.647774	667.7999878
1542.162353	668.4000244
1542.676877	665.4000244
1543.191346	666.0
1543.705761	668.5999756
1544.220122	667.7999878
1544.734428	666.4000244
1545.24868	666.5999756
1545.762877	666.0
1546.27702	666.5999756
1546.791109	665.7999878
1547.305143	685.0
1548.333047	666.7999878
1548.846918	667.0
1549.360734	668.7999878
1549.874496	667.2000122
1550.388204	666.0
1550.901857	668.0
1551.415455	665.4000244
1551.929	668.4000244
1552.442489	666.4000244
1552.955925	668.4000244
1553.469306	665.2000122
1553.982632	667.5999756
1554.495905	668.4000244
1555.009123	668.0
1555.522286	668.2000122
1556.035395	667.0
1556.54845	667.5999756
1557.06145	667.5999756
1557.574396	666.2000122
1558.087288	667.4000244
1558.600125	665.7999878
1559.112908	667.0
1559.625637	668.2000122
1560.138311	666.0
1560.650931	665.7999878
1561.163497	666.7999878
1561.676008	664.2000122
1562.188465	666.5999756
1562.700867	669.2000122
1563.213216	667.5999756
1563.725509	665.4000244
1564.237749	668.0
1564.749934	669.5999756
1565.262065	666.0
1565.774142	669.2000122
1566.286164	666.5999756
1566.798132	665.0
1567.310046	667.5999756
1567.821906	665.7999878
1568.333711	667.7999878
1568.845462	664.5999756
1569.357158	664.5999756
1569.868801	669.2000122
1570.380389	666.0
1570.891922	666.5999756
1571.403402	665.2000122
1571.914827	665.7999878
1572.426198	667.7999878
1572.937515	666.0
1573.448777	667.4000244
1573.959985	667.4000244
1574.471139	668.5999756
1574.982239	665.0
1575.493285	667.2000122
1576.004276	664.7999878
1576.515213	667.0
1577.026096	666.0
1577.536924	668.5999756
1578.047698	663.4000244
1578.558419	668.2000122
1579.069084	664.5999756
1579.579696	666.5999756
1580.090254	665.4000244
1580.600757	666.7999878
1581.111206	666.0
1581.621601	667.5999756
1582.131941	666.2000122
1582.642228	668.2000122
1583.15246	668.0
1583.662638	668.5999756
1584.172762	664.7999878
1584.682832	667.2000122
1585.192847	666.4000244
1585.702809	666.5999756
1586.212716	668.2000122
1586.722569	667.0
1587.232368	665.4000244
1587.742113	665.4000244
1588.251803	668.2000122
1588.76144	667.0
1589.271022	667.2000122
1589.78055	667.7999878
1590.290024	664.5999756
1590.799444	666.7999878
1591.30881	664.2000122
1591.818121	665.2000122
1592.327379	666.0
