1042.414189	686.7999878
1042.980685	689.4000244
1043.547124	687.0
1044.113505	687.5999756
1044.679828	687.2000122
1045.246093	689.0
1045.8123	683.2000122
1046.378449	691.4000244
1046.94454	686.5999756
1047.510573	683.7999878
1048.076548	685.5999756
1048.642465	685.4000244
1049.208325	688.0
1049.774126	683.7999878
1050.339869	685.7999878
1050.905555	686.2000122
1051.471183	682.7999878
1052.036752	680.0
1052.602264	684.4000244
1053.167718	684.4000244
1053.733114	682.7999878
1054.298452	679.5999756
1054.863733	681.2000122
1055.428955	682.7999878
1055.994119	683.5999756
1056.559226	682.4000244
1057.124275	685.0
1057.689266	683.0
1058.254199	682.7999878
1058.819074	679.2000122
1059.383891	683.5999756
1059.94865	681.7999878
1060.513352	683.5999756
1061.077996	683.4000244
1061.642582	678.2000122
1062.20711	679.7999878
1062.77158	682.4000244
1063.335992	681.7999878
1063.900347	681.5999756
1064.464643	679.0
1065.028882	684.7999878
1065.593063	678.2000122
1066.157187	684.2000122
1066.721252	681.0
1067.28526	680.7999878
1067.84921	682.4000244
1068.413102	682.7999878
1068.976936	680.0
1069.540713	684.4000244
1070.104431	687.7999878
1070.668092	681.4000244
1071.231696	683.4000244
1071.795241	680.4000244
1072.358729	680.5999756
1072.922159	681.5999756
1073.485531	678.4000244
1074.048845	681.5999756
1074.612102	678.5999756
1075.175301	681.2000122
1075.738442	681.0
1076.301525	682.5999756
1076.864551	682.4000244
1077.427519	682.7999878
1077.990429	680.5999756
1078.553281	683.5999756
1079.116076	681.7999878
1079.678813	681.5999756
1080.241492	684.2000122
1080.804114	681.0
1081.366678	680.5999756
1081.929184	682.2000122
1082.491633	682.2000122
1083.054024	678.7999878
1083.616357	679.5999756
1084.178632	682.2000122
1084.74085	682.5999756
1085.30301	684.5999756
1085.865113	678.2000122
1086.427158	682.0
1086.989145	680.0
1087.551074	684.4000244
1088.112946	679.0
1088.67476	680.0
1089.236517	678.4000244
1089.798216	681.5999756
1090.359857	681.7999878
1090.92144	684.0
1091.482966	678.5999756
1092.044435	683.5999756
1092.605845	679.4000244
1093.167199	680.2000122
1093.728494	678.7999878
1094.289732	683.5999756
1094.850912	681.2000122
1095.412035	694.5999756
1095.9731	679.4000244
1096.534107	681.0
1097.095057	685.4000244
1097.65595	681.5999756
1098.216784	683.2000122
1098.777561	683.5999756
1099.338281	680.5999756
1099.898943	681.2000122
1100.459547	680.5999756
1101.020094	680.5999756
1101.580584	682.5999756
1102.141015	682.4000244
1102.701389	682.5999756
1103.261706	680.4000244
1103.821965	682.2000122
1104.382167	680.7999878
1104.942311	683.0
1105.502397	680.0
1106.062426	680.7999878
1106.622398	683.4000244
1107.182312	682.0
1107.742168	681.5999756
1108.301967	681.2000122
1108.861708	680.2000122
1109.421392	682.5999756
1109.981019	680.2000122
1110.540587	683.5999756
1111.100099	680.2000122
1111.659553	684.4000244
1112.218949	682.0
1112.778288	681.7999878
1113.33757	676.5999756
1113.896794	677.5999756
1114.45596	681.7999878
1115.015069	679.7999878
1115.574121	678.4000244
1116.133115	680.0
1116.692052	681.7999878
1117.250931	681.7999878
1117.809753	679.0
1118.368517	681.0
1118.927224	681.7999878
1119.485873	680.0
1120.044465	680.0
1120.603	679.5999756
1121.161477	681.2000122
1121.719897	680.5999756
1122.278259	678.4000244
1122.836564	680.0
1123.394812	680.0
1123.953002	680.7999878
1124.511135	681.7999878
1125.06921	678.7999878
1125.627228	681.7999878
1126.185189	678.4000244
1126.743092	677.5999756
1127.300938	680.4000244
1127.858726	681.7999878
1128.416457	680.5999756
1128.974131	680.4000244
1129.531748	681.0
1130.089307	681.0
1130.646808	683.4000244
1131.204252	681.7999878
1131.761639	683.5999756
1132.318969	682.2000122
1132.876241	682.5999756
1133.433456	680.5999756
1133.990614	679.4000244
1134.547714	682.0
1135.104757	681.2000122
1135.661743	679.2000122
1136.218671	680.7999878
1136.775542	681.2000122
1137.332356	681.4000244
1137.889112	682.2000122
1138.445811	680.4000244
1139.002453	682.5999756
1139.559037	681.2000122
1140.115565	678.4000244
1140.672035	679.4000244
1141.228447	679.7999878
1141.784803	680.2000122
1142.341101	683.4000244
1142.897342	681.4000244
1143.453525	681.5999756
1144.009651	680.7999878
1144.565721	680.5999756
1145.121732	682.4000244
1145.677687	680.2000122
1146.233584	683.0
1146.789424	680.5999756
1147.345207	679.7999878
1147.900933	682.7999878
1148.456601	681.0
1149.012212	678.7999878
1149.567766	680.0
1150.123263	682.4000244
1150.678702	682.7999878
1151.234085	681.2000122
1151.78941	681.2000122
1152.344678	678.2000122
1152.899888	682.0
1153.455042	680.5999756
1154.010138	683.2000122
1154.565177	680.7999878
1155.120159	686.0
1155.675084	685.4000244
1156.229951	681.5999756
1156.784762	680.4000244
1157.339515	680.4000244
1157.894211	682.2000122
1158.44885	681.5999756
1159.003432	682.2000122
1159.557956	683.2000122
1160.112424	678.0
1160.666834	680.7999878
1161.221187	677.0
1161.775483	680.5999756
1162.329722	682.0
1162.883904	679.0
1163.438029	681.5999756
1163.992096	679.5999756
1164.546107	681.7999878
1165.10006	680.5999756
1165.653956	678.5999756
1166.207795	682.0
1166.761577	680.7999878
1167.315302	681.0
1167.86897	678.5999756
1168.422581	679.5999756
1168.976134	680.5999756
1169.529631	679.7999878
1170.08307	681.0
1170.636453	682.5999756
1171.189778	678.7999878
1171.743046	681.5999756
1172.296257	679.5999756
1172.849412	682.0
1173.402509	680.7999878
1173.955549	682.7999878
1174.508532	681.2000122
1175.061458	679.2000122
1175.614327	682.2000122
1176.167138	681.7999878
1176.719893	681.0
1177.272591	680.7999878
1177.825232	682.2000122
1178.377816	680.4000244
1178.930342	678.5999756
1179.482812	680.2000122
1180.035225	680.2000122
1180.587581	681.0
1181.139879	681.5999756
1181.692121	683.7999878
1182.244306	681.4000244
1182.796434	680.0
1183.348504	679.4000244
1183.900518	678.4000244
1184.452475	680.4000244
1185.004375	682.4000244
1185.556218	682.5999756
1186.108004	680.5999756
1186.659733	681.7999878
1187.211405	681.7999878
1187.76302	679.7999878
1188.314578	682.2000122
1188.866079	684.5999756
1189.417523	682.7999878
1189.96891	680.5999756
1190.520241	681.2000122
1191.071514	676.4000244
1191.622731	681.7999878
1192.17389	681.7999878
1192.724993	683.2000122
1193.276039	696.4000244
1193.827027	681.7999878
1194.377959	680.2000122
1194.928834	681.0
1195.479653	680.4000244
1196.030414	680.2000122
1196.581118	682.2000122
1197.131766	680.2000122
1197.682356	681.4000244
1198.23289	681.2000122
1198.783367	683.4000244
1199.333786	682.7999878
1199.88415	682.0
1200.434456	679.7999878
1200.984705	684.2000122
1201.534898	683.0
1202.085033	681.4000244
1202.635112	682.7999878
1203.185134	682.7999878
1203.735099	681.4000244
1204.285007	682.2000122
1204.834859	680.7999878
1205.384653	681.2000122
1205.934391	682.2000122
1206.484072	683.0
1207.033696	681.5999756
1207.583263	683.4000244
1208.132774	678.2000122
1208.682228	681.0
1209.231624	681.5999756
1209.780965	679.2000122
1210.330248	679.4000244
1210.879474	680.7999878
1211.428644	680.0
1211.977757	682.7999878
1212.526813	681.4000244
1213.075813	682.5999756
1213.624755	683.0
1214.173641	681.2000122
1214.72247	680.2000122
1215.271242	683.0
1215.819958	682.5999756
1216.368617	680.0
1216.917219	682.7999878
1217.465764	681.5999756
1218.014253	679.7999878
1218.562685	679.5999756
1219.11106	683.0
1219.659378	681.4000244
1220.20764	682.5999756
1220.755845	678.5999756
1221.303993	684.0
1221.852085	682.2000122
1222.400119	683.4000244
1222.948097	679.2000122
1223.496019	680.4000244
1224.043883	681.7999878
1224.591691	682.5999756
1225.139443	681.0
1225.687137	680.7999878
1226.234775	680.4000244
1226.782357	681.5999756
1227.329881	681.0
1227.877349	681.7999878
1228.42476	680.2000122
1228.972115	680.7999878
1229.519413	680.4000244
1230.066654	681.0
1230.613839	682.5999756
1231.160967	681.7999878
1231.708038	685.2000122
1232.255053	680.7999878
1232.802011	678.7999878
1233.348912	679.0
1233.895757	677.0
1234.442545	679.4000244
1234.989277	679.2000122
1235.535951	678.7999878
1236.08257	680.4000244
1236.629131	685.5999756
1237.175636	680.4000244
1237.722085	683.0
1238.268477	682.4000244
1238.814812	681.5999756
1239.361091	682.4000244
1239.907313	682.4000244
1240.453478	679.7999878
1240.999587	681.7999878
1241.54564	679.0
1242.091636	680.5999756
1242.637575	681.5999756
1243.183457	684.2000122
1243.729284	684.4000244
1244.275053	682.0
1244.820766	682.4000244
1245.366423	682.0
1245.912022	681.7999878
1246.457566	684.7999878
1247.003053	683.0
1247.548483	683.7999878
1248.093857	681.5999756
1248.639174	679.5999756
1249.184435	680.5999756
1249.729639	682.4000244
1250.274787	683.0
1250.819878	686.2000122
1251.364912	683.7999878
1251.909891	682.5999756
1252.454812	682.0
1252.999677	680.7999878
1253.544486	679.5999756
1254.089238	684.2000122
1254.633934	681.5999756
1255.178573	682.0
1255.723156	686.2000122
1256.267682	685.4000244
1256.812152	686.0
1257.356565	683.2000122
1257.900922	690.2000122
1258.445223	688.2000122
1258.989467	686.5999756
1259.533654	686.2000122
1260.077785	697.7999878
1260.62186	692.5999756
1261.165878	689.4000244
1261.70984	697.5999756
1262.253745	697.5999756
1262.797594	699.2000122
1263.341386	696.2000122
1263.885123	693.2000122
1264.428802	692.2000122
1264.972425	690.2000122
1265.515992	693.0
1266.059503	685.7999878
1266.602957	686.7999878
1267.146354	684.4000244
1267.689696	686.5999756
1268.23298	687.4000244
1268.776209	688.7999878
1269.319381	688.4000244
1269.862497	687.2000122
1270.405556	686.0
1270.948559	686.7999878
1271.491506	687.4000244
1272.034396	687.2000122
1272.57723	686.4000244
1273.120007	689.7999878
1273.662728	687.5999756
1274.205393	683.0
1274.748002	686.2000122
1275.290554	685.5999756
1275.83305	689.2000122
1276.375489	688.4000244
1276.917872	692.0
1277.460199	691.5999756
1278.00247	690.4000244
1278.544684	695.0
1279.086842	695.2000122
1279.628943	697.2000122
1280.170989	703.7999878
1280.712978	717.0
1281.25491	739.4000244
1281.796787	794.0
1282.338607	894.5999756
1282.880371	986.5999756
1283.422078	986.7999878
1283.963729	871.2000122
1284.505324	785.7999878
1285.046863	739.5999756
1285.588345	718.2000122
1286.129772	704.0
1286.671142	699.0
1287.212455	693.5999756
1287.753713	694.2000122
1288.294914	692.4000244
1288.836059	691.0
1289.377147	689.0
1289.91818	686.5999756
1290.459156	689.0
1291.000076	689.7999878
1291.54094	687.0
1292.081747	688.4000244
1292.622499	684.4000244
1293.163194	686.2000122
1293.703833	687.4000244
1294.244415	684.0
1294.784942	683.7999878
1295.325412	688.7999878
1295.865826	684.2000122
1296.406184	684.0
1296.946486	683.7999878
1297.486731	683.5999756
1298.026921	686.7999878
1298.567054	684.7999878
1299.107131	682.0
1299.647152	685.4000244
1300.187116	688.2000122
1300.727025	683.2000122
1301.266877	684.5999756
1301.806673	683.2000122
1302.346413	683.2000122
1302.886097	682.5999756
1303.425725	688.0
1303.965297	679.0
1304.504812	685.4000244
1305.044272	683.2000122
1305.583675	685.2000122
1306.123022	684.2000122
1306.662313	684.7999878
1307.201548	682.4000244
1307.740727	681.2000122
1308.279849	681.4000244
1308.818916	683.4000244
1309.357926	681.5999756
1309.896881	681.7999878
1310.435779	681.7999878
1310.974621	681.7999878
1311.513407	682.0
1312.052137	681.5999756
1312.590811	681.7999878
1313.129429	683.2000122
1313.667991	680.7999878
1314.206497	681.2000122
1314.744946	683.4000244
1315.28334	682.5999756
1315.821678	682.5999756
1316.359959	681.7999878
1316.898184	681.5999756
1317.436354	684.4000244
1317.974467	682.2000122
1319.588471	705.5999756
1320.12636	683.0
1320.664194	677.0
1321.201971	679.4000244
1321.739692	684.0
1322.277357	681.7999878
1322.814967	681.7999878
1323.35252	680.0
1323.890017	685.4000244
1324.427458	679.7999878
1324.964843	681.7999878
1325.502173	682.2000122
1326.039446	683.0
1326.576663	681.5999756
1327.113824	684.7999878
1327.65093	681.4000244
1328.187979	683.4000244
1328.724972	681.2000122
1329.26191	681.7999878
1329.798791	679.2000122
1330.335617	681.5999756
1330.872386	684.0
1331.4091	683.0
1331.945758	682.0
1332.48236	683.7999878
1333.018905	682.5999756
1333.555395	680.2000122
1334.091829	679.4000244
1334.628207	683.4000244
1335.164529	682.4000244
1335.700796	680.0
1336.237006	682.2000122
1336.77316	680.5999756
1337.309259	683.7999878
1337.845301	682.5999756
1338.381288	679.5999756
1338.917219	682.7999878
1339.453094	685.5999756
1339.988913	680.7999878
1340.524676	682.5999756
1341.060383	682.5999756
1341.596034	681.2000122
1342.13163	683.0
1342.66717	681.5999756
1343.202653	683.0
1343.738081	684.0
1344.273453	682.0
1344.80877	682.7999878
1345.34403	679.7999878
1345.879235	683.0
1346.414383	683.7999878
1346.949476	684.0
1347.484513	682.0
1348.019494	682.0
1348.55442	683.0
1349.089289	681.2000122
1349.624103	682.0
1350.158861	683.2000122
1350.693563	683.2000122
1351.228209	679.5999756
1351.7628	682.5999756
1352.297334	681.5999756
1352.831813	681.4000244
1353.366236	681.7999878
1353.900604	681.2000122
1354.434915	679.0
1354.969171	683.5999756
1355.503371	681.5999756
1356.037515	684.5999756
1356.571604	685.2000122
1357.105636	683.0
1357.639613	684.2000122
1358.173535	682.0
1358.7074	683.7999878
1359.24121	682.5999756
1359.774964	680.5999756
1360.308662	680.2000122
1360.842304	683.0
1361.375891	682.0
1361.909422	682.4000244
1362.442897	683.2000122
1362.976317	686.2000122
1363.50968	688.0
1364.042989	682.2000122
1364.576241	682.5999756
1365.109438	682.2000122
1365.642579	685.0
1366.175664	686.0
1366.708693	681.5999756
1367.241667	682.4000244
1367.774585	686.2000122
1368.307448	684.0
1368.840255	689.0
1369.373006	690.2000122
1369.905701	697.4000244
1370.438341	694.2000122
1370.970925	688.5999756
1371.503454	683.7999878
1372.035926	684.5999756
1372.568344	689.0
1373.100705	688.7999878
1373.633011	684.4000244
1374.165261	686.2000122
1374.697456	684.0
1375.229595	686.4000244
1375.761678	686.7999878
1376.293705	692.5999756
1376.825677	690.2000122
1377.357594	685.7999878
1377.889455	688.2000122
1378.42126	688.2000122
1378.953009	692.2000122
1379.484703	687.5999756
1380.016342	689.4000244
1380.547924	689.7999878
1381.079452	691.0
1381.610923	694.4000244
1382.142339	695.5999756
1382.673699	698.0
1383.205004	701.4000244
1383.736253	703.7999878
1384.267447	712.4000244
1384.798585	723.7999878
1385.329668	738.7999878
1385.860695	773.7999878
1386.391666	865.0
1386.922582	1060.599976
1387.453442	1297.400024
1387.984247	1258.800049
1388.514996	1003.400024
1389.04569	828.0
1389.576328	757.5999756
1390.10691	734.4000244
1390.637437	709.7999878
1391.167909	708.0
1391.698325	698.7999878
1392.228685	697.7999878
1392.75899	695.0
1393.28924	689.5999756
1393.819434	696.4000244
1394.349572	690.0
1394.879655	693.0
1395.409683	689.5999756
1395.939655	689.5999756
1396.469571	692.4000244
1396.999432	687.5999756
1397.529237	688.5999756
1398.058987	687.0
1398.588682	686.0
1399.118321	688.5999756
1399.647905	687.2000122
1400.177433	688.4000244
1400.706906	685.0
1401.236323	685.2000122
1401.765685	687.5999756
1402.294991	689.4000244
1402.824242	685.5999756
1403.353437	688.0
1403.882577	685.4000244
1404.411662	687.0
1404.940691	690.0
1405.469665	692.0
1405.998583	689.5999756
1406.527446	694.7999878
1407.056253	696.7999878
1407.585005	701.4000244
1408.113702	706.7999878
1408.642343	713.4000244
1409.170929	709.4000244
1409.69946	714.0
1410.227935	701.0
1410.756354	700.0
1411.284719	692.4000244
1411.813028	691.5999756
1412.341281	688.2000122
1412.869479	687.2000122
1413.397622	686.0
1413.92571	683.2000122
1414.453742	683.4000244
1414.981718	687.7999878
1415.50964	692.2000122
1416.037506	683.7999878
1416.565316	685.4000244
1417.093072	680.5999756
1417.620772	681.7999878
1418.148416	682.0
1418.676005	680.7999878
1419.203539	681.2000122
1419.731018	681.0
1420.258441	682.0
1420.785809	682.0
1421.313122	683.2000122
1421.840379	685.4000244
1422.367582	680.2000122
1422.894728	682.4000244
1423.42182	682.0
1423.948856	680.0
1424.475837	684.0
1425.002762	683.0
1425.529633	684.0
1426.056448	681.2000122
1426.583207	682.2000122
1427.109912	682.4000244
1427.636561	680.0
1428.163155	681.2000122
1428.689694	679.5999756
1429.216177	679.7999878
1429.742605	679.7999878
1430.268978	679.7999878
1430.795296	679.0
1431.321558	680.7999878
1431.847765	681.2000122
1432.373917	682.4000244
1432.900014	679.2000122
1433.426056	681.2000122
1433.952042	679.0
1434.477973	678.7999878
1435.003849	682.5999756
1435.529669	678.4000244
1436.055435	680.0
1436.581145	677.4000244
1437.1068	680.2000122
1437.632399	678.0
1438.157944	677.7999878
1438.683433	681.2000122
1439.208868	678.5999756
1439.734247	683.5999756
1440.25957	678.7999878
1440.784839	677.7999878
1441.310053	681.7999878
1441.835211	679.0
1442.360314	677.4000244
1442.885362	679.7999878
1443.410355	680.2000122
1443.935292	681.5999756
1444.460175	679.5999756
1444.985002	679.0
1445.509774	679.2000122
1446.034491	678.0
1446.559153	678.2000122
1447.08376	680.5999756
1447.608312	679.4000244
1448.132808	679.5999756
1448.65725	677.7999878
1449.181636	679.2000122
1449.705967	680.2000122
1450.230243	679.4000244
1450.754464	675.7999878
1451.27863	679.2000122
1451.802741	678.7999878
1452.326797	678.5999756
1452.850797	679.5999756
1453.374743	678.2000122
1453.898633	678.5999756
1454.422468	679.4000244
1454.946249	678.4000244
1455.469974	679.7999878
1455.993644	677.7999878
1456.517259	676.7999878
1457.040819	675.4000244
1457.564324	678.0
1458.087773	681.0
1458.611168	678.2000122
1459.134508	679.4000244
1459.657793	678.7999878
1460.181022	679.2000122
1460.704197	678.2000122
1461.227316	679.0
1461.750381	678.4000244
1462.27339	676.7999878
1462.796345	679.2000122
1463.319244	678.5999756
1463.842089	679.0
1464.364878	676.7999878
1464.887613	678.2000122
1465.410292	676.5999756
1465.932916	678.0
1466.455486	680.0
1466.978	675.2000122
1467.50046	678.0
1468.022864	677.7999878
1468.545214	680.7999878
1469.067508	679.2000122
1469.589748	676.7999878
1470.111932	678.5999756
1470.634062	674.5999756
1471.156136	677.4000244
1471.678156	676.4000244
1472.20012	678.7999878
1472.72203	678.4000244
1473.243885	677.4000244
1473.765685	679.7999878
1474.28743	678.2000122
1474.80912	680.2000122
1475.330755	676.7999878
1475.852335	678.2000122
1476.37386	681.2000122
1476.89533	677.7999878
1477.416745	678.5999756
1477.938106	678.2000122
1478.459411	675.5999756
1478.980662	675.4000244
1479.501857	678.0
1480.022998	679.4000244
1480.544084	676.0
1481.065115	679.0
1481.586091	676.0
1482.107012	677.5999756
1482.627878	679.5999756
1483.14869	679.5999756
1483.669446	677.7999878
1484.190148	675.5999756
1484.710794	678.0
1485.231386	677.7999878
1485.751923	677.4000244
1486.272406	676.2000122
1486.792833	681.4000244
1487.313205	680.0
1487.833523	678.2000122
1488.353786	673.4000244
1488.873994	677.2000122
1489.394147	676.7999878
1489.914245	679.7999878
1490.434288	677.0
1490.954277	679.4000244
1491.474211	675.0
1491.99409	676.4000244
1492.513914	675.7999878
1493.033683	676.4000244
1493.553398	678.4000244
1494.073057	678.7999878
1494.592662	679.0
1495.112212	676.7999878
1495.631708	677.0
1496.151148	678.2000122
1496.670534	675.4000244
1497.189865	673.5999756
1497.709141	676.2000122
1498.228362	677.5999756
1498.747529	676.4000244
1499.266641	677.4000244
1499.785698	683.0
1500.3047	678.0
1500.823648	676.4000244
1501.34254	679.4000244
1501.861379	675.7999878
1502.380162	678.0
1502.89889	678.0
1503.417564	677.2000122
1503.936183	678.2000122
1504.454748	679.4000244
1504.973257	679.2000122
1505.491712	680.0
1506.010112	681.0
1506.528458	678.0
1507.046748	675.7999878
1507.564984	671.7999878
1508.083166	677.2000122
1508.601292	679.0
1509.119364	674.7999878
1509.637381	679.2000122
1510.155344	679.5999756
1510.673252	682.2000122
1511.191105	677.7999878
1511.708903	676.0
1512.226647	677.4000244
1512.744336	675.7999878
1513.261971	676.2000122
1513.77955	677.7999878
1514.297076	676.2000122
1514.814546	677.2000122
1515.331962	675.5999756
1515.849323	675.7999878
1516.366629	675.0
1516.883881	677.0
1517.401078	677.2000122
1517.918221	676.7999878
1518.435309	673.4000244
1518.952342	676.5999756
1519.469321	680.4000244
1519.986245	673.5999756
1520.503114	676.7999878
1521.019929	676.2000122
1521.536689	674.4000244
1522.053395	674.0
1522.570046	675.0
1523.086642	675.7999878
1523.603184	674.0
1524.119671	674.4000244
1524.636103	676.4000244
1525.152481	679.0
1525.668805	677.2000122
1526.185073	675.0
1526.701288	675.5999756
1527.217447	676.5999756
1527.733552	672.5999756
1528.249603	675.5999756
1528.765599	675.0
1529.28154	678.5999756
1529.797427	680.5999756
1530.313259	675.4000244
1530.829037	676.2000122
1531.34476	675.2000122
1531.860429	678.2000122
1532.376043	677.4000244
1532.891602	677.5999756
1533.407107	677.5999756
1533.922558	675.5999756
1534.437954	677.4000244
1534.953295	677.5999756
1535.468582	674.4000244
1535.983815	678.5999756
1536.498993	674.7999878
1537.014116	677.4000244
1537.529185	678.5999756
1538.044199	679.0
1538.559159	675.5999756
1539.074064	674.7999878
1539.588915	676.7999878
1540.103712	677.4000244
1540.618454	680.7999878
1541.133141	676.2000122
1541.647774	676.2000122
1542.162353	675.2000122
1542.676877	674.2000122
1543.191346	677.0
1543.705761	678.0
1544.220122	676.7999878
1544.734428	675.5999756
1545.24868	679.5999756
1545.762877	676.0
1546.27702	677.5999756
1546.791109	676.5999756
1547.305143	674.0
1547.819122	675.7999878
1548.333047	675.2000122
1548.846918	677.5999756
1549.360734	673.5999756
1549.874496	676.7999878
1550.388204	678.0
1550.901857	675.0
1551.415455	674.2000122
1551.929	676.4000244
1552.442489	678.4000244
1552.955925	676.0
1553.469306	676.0
1553.982632	676.2000122
1554.495905	678.0
1555.009123	677.4000244
1555.522286	675.7999878
1556.035395	676.4000244
1556.54845	674.7999878
1557.06145	675.7999878
1557.574396	676.7999878
1558.087288	673.7999878
1558.600125	677.2000122
1559.112908	678.0
1559.625637	672.4000244
1560.138311	675.2000122
1560.650931	674.7999878
1561.163497	676.7999878
1561.676008	677.2000122
1562.188465	676.2000122
1562.700867	675.2000122
1563.213216	673.4000244
1563.725509	679.4000244
1564.237749	676.2000122
1564.749934	671.2000122
1565.262065	674.0
1565.774142	678.4000244
1566.286164	673.2000122
1566.798132	674.2000122
1567.310046	676.5999756
1567.821906	676.7999878
1568.333711	675.7999878
1568.845462	677.4000244
1569.357158	677.4000244
1569.868801	674.5999756
1570.380389	674.7999878
1570.891922	676.2000122
1571.403402	677.5999756
1571.914827	675.5999756
1572.426198	673.0
1572.937515	674.5999756
1573.448777	674.2000122
1573.959985	676.7999878
1574.471139	673.5999756
1574.982239	673.7999878
1575.493285	677.0
1576.004276	677.0
1576.515213	676.7999878
1577.026096	674.5999756
1577.536924	674.5999756
1578.047698	676.4000244
1578.558419	673.7999878
1579.069084	674.2000122
1579.579696	675.0
1580.090254	679.4000244
1580.600757	676.5999756
1581.111206	676.7999878
1581.621601	675.4000244
1582.131941	675.0
1582.642228	675.0
1583.15246	677.2000122
1583.662638	676.7999878
1584.172762	673.0
1584.682832	674.4000244
1585.192847	675.4000244
1585.702809	674.7999878
1586.212716	675.4000244
1586.722569	677.2000122
1587.232368	675.5999756
1587.742113	679.2000122
1588.251803	679.0
1588.76144	677.5999756
1589.271022	673.5999756
1589.78055	673.7999878
1590.290024	674.7999878
1590.799444	674.2000122
1591.30881	674.4000244
1591.818121	676.0
1592.327379	673.0
