1042.414189	675.7999878
1042.980685	675.0
1043.547124	673.4000244
1044.113505	672.5999756
1044.679828	673.2000122
1045.246093	671.2000122
1045.8123	670.0
1046.378449	671.0
1046.94454	666.5999756
1047.510573	672.5999756
1048.076548	669.2000122
1048.642465	668.4000244
1049.208325	666.2000122
1049.774126	667.0
1050.339869	668.2000122
1050.905555	666.7999878
1051.471183	667.2000122
1052.036752	667.2000122
1052.602264	669.2000122
1053.167718	667.0
1053.733114	667.2000122
1054.298452	666.7999878
1054.863733	666.4000244
1055.428955	665.7999878
1055.994119	666.5999756
1056.559226	666.7999878
1057.124275	666.4000244
1057.689266	665.4000244
1058.254199	665.7999878
1058.819074	665.2000122
1059.383891	666.7999878
1059.94865	665.2000122
1060.513352	662.7999878
1061.077996	667.0
1061.642582	664.2000122
1062.20711	665.7999878
1062.77158	664.0
1063.335992	665.5999756
1063.900347	668.2000122
1064.464643	665.5999756
1065.028882	665.0
1065.593063	663.4000244
1066.157187	664.2000122
1066.721252	665.7999878
1067.28526	664.5999756
1067.84921	665.0
1068.413102	663.7999878
1068.976936	665.4000244
1069.540713	665.0
1070.104431	667.7999878
1070.668092	663.0
1071.231696	663.4000244
1071.795241	661.7999878
1072.358729	666.7999878
1072.922159	665.2000122
1073.485531	666.0
1074.048845	665.7999878
1074.612102	663.7999878
1075.175301	664.0
1075.738442	665.2000122
1076.301525	665.0
1076.864551	665.5999756
1077.427519	661.7999878
1077.990429	664.5999756
1078.553281	663.0
1079.116076	663.4000244
1079.678813	663.4000244
1080.241492	668.0
1080.804114	663.5999756
1081.366678	664.7999878
1081.929184	662.7999878
1082.491633	663.7999878
1083.054024	663.7999878
1083.616357	664.2000122
1084.178632	664.0
1084.74085	665.0
1085.30301	661.4000244
1085.865113	661.5999756
1086.427158	661.0
1086.989145	664.5999756
1087.551074	661.4000244
1088.112946	663.0
1088.67476	663.7999878
1089.236517	662.5999756
1089.798216	664.2000122
1090.359857	662.4000244
1090.92144	663.0
1091.482966	667.4000244
1092.044435	664.2000122
1092.605845	664.0
1093.167199	662.2000122
1093.728494	662.2000122
1094.289732	661.4000244
1094.850912	665.5999756
1095.412035	672.7999878
1095.9731	662.5999756
1096.534107	662.5999756
1097.095057	667.0
1097.65595	665.2000122
1098.216784	663.7999878
1098.777561	664.4000244
1099.338281	665.4000244
1099.898943	663.4000244
1100.459547	662.0
1101.020094	664.0
1101.580584	662.2000122
1102.141015	665.7999878
1102.701389	664.2000122
1103.261706	662.0
1103.821965	664.4000244
1104.382167	662.5999756
1104.942311	664.0
1105.502397	663.7999878
1106.062426	662.2000122
1106.622398	661.4000244
1107.182312	665.0
1107.742168	662.7999878
1108.301967	663.7999878
1108.861708	663.7999878
1109.421392	665.2000122
1109.981019	662.4000244
1110.540587	659.7999878
1111.100099	661.7999878
1111.659553	662.0
1112.218949	663.5999756
1112.778288	660.5999756
1113.33757	666.7999878
1113.896794	662.2000122
1114.45596	664.2000122
1115.015069	661.7999878
1115.574121	661.5999756
1116.133115	663.2000122
1116.692052	663.7999878
1117.250931	666.4000244
1117.809753	664.4000244
1118.368517	662.5999756
1118.927224	664.4000244
1119.485873	661.4000244
1120.044465	662.0
1120.603	663.7999878
1121.161477	663.5999756
1121.719897	664.7999878
1122.278259	661.7999878
1122.836564	663.4000244
1123.394812	663.7999878
1123.953002	665.2000122
1124.511135	663.2000122
1125.06921	661.2000122
1125.627228	664.2000122
1126.185189	662.0
1126.743092	662.5999756
1127.300938	662.4000244
1127.858726	660.7999878
1128.416457	666.0
1128.974131	663.4000244
1129.531748	663.5999756
1130.089307	662.7999878
1130.646808	663.5999756
1131.204252	664.0
1131.761639	660.5999756
1132.318969	664.0
1132.876241	663.4000244
1133.433456	663.5999756
1133.990614	663.4000244
1134.547714	661.2000122
1135.104757	664.0
1135.661743	665.2000122
1136.218671	662.2000122
1136.775542	661.5999756
1137.332356	661.4000244
1137.889112	661.7999878
1138.445811	664.4000244
1139.002453	662.7999878
1139.559037	660.5999756
1140.115565	664.5999756
1140.672035	664.0
1141.228447	661.5999756
1141.784803	662.7999878
1142.341101	662.2000122
1142.897342	661.7999878
1143.453525	662.0
1144.009651	663.0
1144.565721	662.4000244
1145.121732	661.4000244
1145.677687	660.7999878
1146.233584	662.5999756
1146.789424	664.0
1147.345207	663.7999878
1147.900933	660.7999878
1148.456601	663.2000122
1149.012212	665.2000122
1149.567766	662.4000244
1150.123263	666.2000122
1150.678702	666.2000122
1151.234085	666.2000122
1151.78941	661.0
1152.344678	662.0
1152.899888	663.0
1153.455042	663.5999756
1154.010138	664.2000122
1154.565177	665.5999756
1155.120159	663.5999756
1155.675084	662.5999756
1156.229951	662.5999756
1156.784762	661.7999878
1157.339515	662.0
1157.894211	662.2000122
1158.44885	660.7999878
1159.003432	663.0
1159.557956	662.2000122
1160.112424	662.2000122
1160.666834	662.5999756
1161.221187	662.5999756
1161.775483	662.0
1162.329722	664.2000122
1162.883904	664.4000244
1163.438029	662.5999756
1163.992096	664.2000122
1164.546107	662.0
1165.10006	662.5999756
1165.653956	662.2000122
1166.207795	662.0
1166.761577	663.7999878
1167.315302	661.4000244
1167.86897	665.0
1168.422581	662.0
1168.976134	663.2000122
1169.529631	663.2000122
1170.08307	662.4000244
1170.636453	663.0
1171.189778	662.4000244
1171.743046	661.4000244
1172.296257	661.2000122
1172.849412	659.5999756
1173.402509	662.0
1173.955549	661.2000122
1174.508532	664.2000122
1175.061458	664.2000122
1175.614327	662.5999756
1176.167138	662.4000244
1176.719893	661.5999756
1177.272591	662.5999756
1177.825232	662.0
1178.377816	664.7999878
1178.930342	662.0
1179.482812	663.0
1180.035225	661.7999878
1180.587581	663.0
1181.139879	665.5999756
1181.692121	661.5999756
1182.244306	662.2000122
1182.796434	663.4000244
1183.348504	663.0
1183.900518	664.7999878
1184.452475	661.7999878
1185.004375	665.2000122
1185.556218	663.4000244
1186.108004	663.0
1186.659733	661.4000244
1187.211405	660.2000122
1187.76302	663.5999756
1188.314578	660.5999756
1188.866079	664.0
1189.417523	662.5999756
1189.96891	665.0
1190.520241	662.2000122
1191.071514	661.2000122
1191.622731	664.0
1192.17389	664.2000122
1192.724993	662.4000244
1193.276039	676.2000122
1193.827027	660.5999756
1194.377959	663.7999878
1194.928834	662.5999756
1195.479653	662.4000244
1196.030414	664.0
1196.581118	661.5999756
1197.131766	662.0
1197.682356	664.2000122
1198.23289	662.5999756
1198.783367	660.5999756
1199.333786	663.0
1199.88415	663.4000244
1200.434456	663.2000122
1200.984705	664.4000244
1201.534898	663.5999756
1202.085033	662.2000122
1202.635112	664.7999878
1203.185134	663.7999878
1203.735099	663.4000244
1204.285007	663.4000244
1204.834859	662.2000122
1205.384653	662.2000122
1205.934391	663.4000244
1206.484072	661.5999756
1207.033696	660.5999756
1207.583263	663.0
1208.132774	662.4000244
1208.682228	662.4000244
1209.231624	662.5999756
1209.780965	662.7999878
1210.330248	660.0
1210.879474	662.2000122
1211.428644	662.4000244
1211.977757	662.7999878
1212.526813	661.5999756
1213.075813	661.0
1213.624755	663.2000122
1214.173641	662.2000122
1214.72247	662.0
1215.271242	663.4000244
1215.819958	663.0
1216.368617	661.7999878
1216.917219	662.0
1217.465764	663.5999756
1218.014253	665.0
1218.562685	661.2000122
1219.11106	661.4000244
1219.659378	663.7999878
1220.20764	662.7999878
1220.755845	662.4000244
1221.303993	663.4000244
1221.852085	663.7999878
1222.400119	660.0
1222.948097	663.7999878
1223.496019	663.5999756
1224.043883	661.0
1224.591691	662.4000244
1225.139443	660.2000122
1225.687137	662.4000244
1226.234775	662.7999878
1226.782357	664.0
1227.329881	663.4000244
1227.877349	664.0
1228.42476	662.7999878
1228.972115	665.4000244
1229.519413	662.7999878
1230.066654	662.4000244
1230.613839	663.5999756
1231.160967	661.5999756
1231.708038	664.7999878
1232.255053	661.2000122
1232.802011	662.2000122
1233.348912	658.7999878
1233.895757	665.0
1234.442545	663.5999756
1234.989277	661.0
1235.535951	663.5999756
1236.08257	666.2000122
1236.629131	663.5999756
1237.175636	661.4000244
1237.722085	662.4000244
1238.268477	662.4000244
1238.814812	662.0
1239.361091	662.2000122
1239.907313	663.0
1240.453478	662.5999756
1240.999587	661.4000244
1241.54564	661.4000244
1242.091636	664.5999756
1242.637575	664.2000122
1243.183457	661.7999878
1243.729284	663.5999756
1244.275053	661.0
1244.820766	664.5999756
1245.366423	662.0
1245.912022	663.2000122
1246.457566	665.0
1247.003053	664.2000122
1247.548483	661.5999756
1248.093857	662.5999756
1248.639174	661.0
1249.184435	661.5999756
1249.729639	661.2000122
1250.274787	662.7999878
1250.819878	662.5999756
1251.364912	662.2000122
1251.909891	664.0
1252.454812	663.7999878
1252.999677	662.7999878
1253.544486	663.7999878
1254.089238	665.7999878
1254.633934	661.7999878
1255.178573	663.7999878
1255.723156	663.0
1256.267682	663.7999878
1256.812152	662.7999878
1257.356565	663.0
1257.900922	663.2000122
1258.445223	665.0
1258.989467	662.2000122
1259.533654	661.4000244
1260.077785	670.5999756
1260.62186	663.2000122
1261.165878	663.4000244
1261.70984	662.0
1262.253745	664.0
1262.797594	662.2000122
1263.341386	663.2000122
1263.885123	664.0
1264.428802	667.0
1264.972425	664.4000244
1265.515992	668.4000244
1266.059503	668.4000244
1266.602957	664.5999756
1267.146354	666.2000122
1267.689696	664.2000122
1268.23298	663.7999878
1268.776209	663.5999756
1269.319381	661.7999878
1269.862497	665.0
1270.405556	663.0
1270.948559	662.2000122
1271.491506	663.7999878
1272.034396	664.2000122
1272.57723	664.7999878
1273.120007	664.7999878
1273.662728	661.4000244
1274.205393	662.5999756
1274.748002	662.7999878
1275.290554	665.0
1275.83305	665.0
1276.375489	664.4000244
1276.917872	664.5999756
1277.460199	663.0
1278.00247	664.4000244
1278.544684	664.0
1279.086842	664.4000244
1279.628943	666.0
1280.170989	662.7999878
1280.712978	663.0
1281.25491	662.7999878
1281.796787	664.7999878
1282.338607	664.0
1282.880371	668.0
1283.422078	666.4000244
1283.963729	674.5999756
1284.505324	685.4000244
1285.046863	706.4000244
1285.588345	734.2000122
1286.129772	703.2000122
1286.671142	680.4000244
1287.212455	669.5999756
1287.753713	668.2000122
1288.294914	666.0
1288.836059	665.4000244
1289.377147	665.2000122
1289.91818	661.5999756
1290.459156	662.2000122
1291.000076	662.0
1291.54094	665.2000122
1292.081747	663.5999756
1292.622499	666.4000244
1293.163194	662.2000122
1293.703833	663.2000122
1294.244415	666.0
1294.784942	663.0
1295.325412	664.5999756
1295.865826	663.2000122
1296.406184	663.2000122
1296.946486	663.2000122
1297.486731	664.7999878
1298.026921	664.5999756
1298.567054	662.7999878
1299.107131	662.0
1299.647152	665.2000122
1300.187116	663.7999878
1300.727025	661.7999878
1301.266877	665.4000244
1301.806673	663.4000244
1302.346413	664.7999878
1302.886097	663.5999756
1303.425725	665.4000244
1303.965297	662.5999756
1304.504812	664.2000122
1305.044272	660.5999756
1305.583675	661.7999878
1306.123022	662.7999878
1306.662313	661.2000122
1307.201548	662.2000122
1307.740727	664.7999878
1308.279849	661.5999756
1308.818916	663.7999878
1309.357926	660.0
1309.896881	666.4000244
1310.435779	664.0
1310.974621	661.7999878
1311.513407	662.5999756
1312.052137	663.0
1312.590811	663.7999878
1313.129429	661.7999878
1313.667991	662.5999756
1314.206497	661.7999878
1314.744946	664.2000122
1315.28334	661.5999756
1315.821678	664.0
1316.359959	663.5999756
1316.898184	661.4000244
1317.436354	662.2000122
1317.974467	663.4000244
1318.512525	666.0
1319.050526	663.4000244
1319.588471	660.7999878
1320.12636	663.4000244
1320.664194	664.4000244
1321.201971	662.2000122
1321.739692	662.2000122
1322.277357	665.2000122
1322.814967	663.5999756
1323.35252	660.5999756
1323.890017	666.0
1324.427458	664.2000122
1324.964843	661.4000244
1325.502173	662.2000122
1326.039446	661.5999756
1326.576663	665.5999756
1327.113824	663.4000244
1327.65093	662.7999878
1328.187979	662.2000122
1328.724972	665.4000244
1329.26191	663.2000122
1329.798791	661.2000122
1330.335617	665.4000244
1330.872386	663.4000244
1331.4091	661.5999756
1331.945758	662.4000244
1332.48236	662.0
1333.018905	663.4000244
1333.555395	662.0
1334.091829	662.2000122
1334.628207	664.4000244
1335.164529	664.4000244
1335.700796	662.0
1336.237006	663.0
1336.77316	663.5999756
1337.309259	664.0
1337.845301	661.5999756
1338.381288	664.0
1338.917219	662.5999756
1339.453094	662.5999756
1339.988913	663.4000244
1340.524676	664.4000244
1341.060383	663.4000244
1341.596034	664.2000122
1342.13163	661.5999756
1342.66717	664.5999756
1343.202653	662.5999756
1343.738081	664.2000122
1344.273453	663.0
1344.80877	660.0
1345.34403	663.2000122
1345.879235	663.2000122
1346.414383	662.0
1346.949476	663.5999756
1347.484513	663.4000244
1348.019494	662.7999878
1348.55442	665.7999878
1349.089289	661.0
1349.624103	664.0
1350.158861	662.5999756
1350.693563	662.5999756
1351.228209	664.4000244
1351.7628	665.2000122
1352.297334	663.2000122
1352.831813	666.2000122
1353.366236	663.5999756
1353.900604	663.7999878
1354.434915	660.0
1354.969171	664.0
1355.503371	661.5999756
1356.037515	661.4000244
1356.571604	664.4000244
1357.105636	661.7999878
1357.639613	662.2000122
1358.173535	663.4000244
1358.7074	661.7999878
1359.24121	662.5999756
1359.774964	664.2000122
1360.308662	662.0
1360.842304	663.5999756
1361.375891	661.0
1361.909422	663.2000122
1362.442897	664.2000122
1362.976317	665.4000244
1363.50968	663.0
1364.042989	662.5999756
1364.576241	663.2000122
1365.109438	664.0
1365.642579	661.5999756
1366.175664	661.5999756
1366.708693	663.7999878
1367.241667	664.7999878
1367.774585	665.5999756
1368.307448	665.0
1368.840255	666.4000244
1369.373006	662.4000244
1369.905701	665.2000122
1370.438341	663.0
1370.970925	664.0
1371.503454	664.0
1372.035926	663.0
1372.568344	662.2000122
1373.100705	662.4000244
1373.633011	662.5999756
1374.165261	662.5999756
1374.697456	661.0
1375.229595	661.2000122
1375.761678	663.5999756
1376.293705	665.5999756
1376.825677	663.2000122
1377.357594	663.4000244
1377.889455	663.7999878
1378.42126	663.7999878
1378.953009	664.2000122
1379.484703	664.2000122
1380.016342	662.7999878
1380.547924	664.0
1381.079452	664.2000122
1381.610923	664.4000244
1382.142339	666.0
1382.673699	662.7999878
1383.205004	662.5999756
1383.736253	664.7999878
1384.267447	664.4000244
1384.798585	663.2000122
1385.329668	665.5999756
1385.860695	665.7999878
1386.391666	665.5999756
1386.922582	667.2000122
1387.453442	671.4000244
1387.984247	690.2000122
1388.514996	739.4000244
1389.04569	792.7999878
1389.576328	728.7999878
1390.10691	681.7999878
1390.637437	670.4000244
1391.167909	666.5999756
1391.698325	665.5999756
1392.228685	665.2000122
1392.75899	662.2000122
1393.28924	666.5999756
1393.819434	667.4000244
1394.349572	662.7999878
1394.879655	665.0
1395.409683	662.0
1395.939655	664.4000244
1396.469571	663.4000244
1396.999432	665.0
1397.529237	663.2000122
1398.058987	664.2000122
1398.588682	664.0
1399.118321	663.0
1399.647905	664.0
1400.177433	665.2000122
1400.706906	663.5999756
1401.236323	664.2000122
1401.765685	662.7999878
1402.294991	664.5999756
1402.824242	662.0
1403.353437	663.4000244
1403.882577	665.7999878
1404.411662	661.5999756
1404.940691	664.4000244
1405.469665	660.7999878
1405.998583	663.0
1406.527446	662.7999878
1407.056253	661.0
1407.585005	665.4000244
1408.113702	662.4000244
1408.642343	668.4000244
1409.170929	667.2000122
1409.69946	667.7999878
1410.227935	668.4000244
1410.756354	669.0
1411.284719	666.0
1411.813028	667.0
1412.341281	662.5999756
1412.869479	663.7999878
1413.397622	663.7999878
1413.92571	661.0
1414.453742	664.0
1414.981718	662.0
1415.50964	672.4000244
1416.037506	664.4000244
1416.565316	662.7999878
1417.093072	664.2000122
1417.620772	660.5999756
1418.148416	662.7999878
1418.676005	662.4000244
1419.203539	662.7999878
1419.731018	662.7999878
1420.258441	662.0
1420.785809	662.2000122
1421.313122	662.7999878
1421.840379	663.2000122
1422.367582	665.0
1422.894728	663.2000122
1423.42182	663.4000244
1423.948856	663.4000244
1424.475837	662.0
1425.002762	663.0
1425.529633	663.2000122
1426.056448	663.0
1426.583207	663.2000122
1427.109912	664.7999878
1427.636561	664.2000122
1428.163155	664.0
1428.689694	663.0
1429.216177	663.4000244
1429.742605	664.7999878
1430.268978	664.0
1430.795296	662.5999756
1431.321558	662.4000244
1431.847765	664.2000122
1432.373917	662.7999878
1432.900014	662.4000244
1433.426056	662.2000122
1433.952042	661.7999878
1434.477973	661.7999878
1435.003849	661.2000122
1435.529669	663.7999878
1436.055435	661.2000122
1436.581145	664.2000122
1437.1068	661.7999878
1437.632399	664.5999756
1438.157944	662.7999878
1438.683433	660.2000122
1439.208868	663.7999878
1439.734247	662.2000122
1440.25957	662.5999756
1440.784839	662.5999756
1441.310053	661.5999756
1441.835211	663.5999756
1442.360314	662.4000244
1442.885362	663.0
1443.410355	663.5999756
1443.935292	659.4000244
1444.460175	663.2000122
1444.985002	663.4000244
1445.509774	662.7999878
1446.034491	663.2000122
1446.559153	663.4000244
1447.08376	663.2000122
1447.608312	662.5999756
1448.132808	665.0
1448.65725	663.4000244
1449.181636	666.2000122
1449.705967	663.7999878
1450.230243	663.0
1450.754464	663.4000244
1451.27863	661.5999756
1451.802741	663.7999878
1452.326797	662.2000122
1452.850797	663.4000244
1453.374743	661.7999878
1453.898633	660.7999878
1454.422468	662.7999878
1454.946249	664.2000122
1455.469974	663.5999756
1455.993644	662.5999756
1456.517259	663.4000244
1457.040819	662.4000244
1457.564324	663.4000244
1458.087773	662.0
1458.611168	662.5999756
1459.134508	662.2000122
1459.657793	661.4000244
1460.181022	663.2000122
1460.704197	663.4000244
1461.227316	662.2000122
1461.750381	660.2000122
1462.27339	658.5999756
1462.796345	664.7999878
1463.319244	663.0
1463.842089	663.2000122
1464.364878	661.4000244
1464.887613	661.4000244
1465.410292	662.7999878
1465.932916	663.0
1466.455486	662.7999878
1466.978	664.2000122
1467.50046	662.5999756
1468.022864	661.4000244
1468.545214	660.5999756
1469.067508	663.7999878
1469.589748	664.0
1470.111932	665.2000122
1470.634062	661.7999878
1471.156136	664.5999756
1471.678156	662.0
1472.20012	663.4000244
1472.72203	660.7999878
1473.243885	664.4000244
1473.765685	663.4000244
1474.28743	661.5999756
1474.80912	660.4000244
1475.330755	663.4000244
1475.852335	664.5999756
1476.37386	662.5999756
1476.89533	661.5999756
1477.416745	661.4000244
1477.938106	661.2000122
1478.459411	661.7999878
1478.980662	662.7999878
1479.501857	663.2000122
1480.022998	664.0
1480.544084	659.5999756
1481.065115	663.5999756
1481.586091	662.7999878
1482.107012	659.5999756
1482.627878	663.4000244
1483.14869	662.2000122
1483.669446	660.7999878
1484.190148	660.4000244
1484.710794	662.4000244
1485.231386	662.5999756
1485.751923	662.7999878
1486.272406	660.2000122
1486.792833	664.5999756
1487.313205	662.7999878
1487.833523	661.0
1488.353786	660.4000244
1488.873994	663.2000122
1489.394147	663.2000122
1489.914245	660.2000122
1490.434288	661.0
1490.954277	660.5999756
1491.474211	663.4000244
1491.99409	664.2000122
1492.513914	659.7999878
1493.033683	662.0
1493.553398	662.5999756
1494.073057	662.4000244
1494.592662	662.4000244
1495.112212	662.0
1495.631708	663.5999756
1496.151148	661.0
1496.670534	661.4000244
1497.189865	662.5999756
1497.709141	660.5999756
1498.228362	660.5999756
1498.747529	662.4000244
1499.266641	662.4000244
1499.785698	667.5999756
1500.3047	661.5999756
1500.823648	659.7999878
1501.34254	663.2000122
1501.861379	660.2000122
1502.380162	663.5999756
1502.89889	662.5999756
1503.417564	661.7999878
1503.936183	661.5999756
1504.454748	662.5999756
1504.973257	661.4000244
1505.491712	660.7999878
1506.010112	663.5999756
1506.528458	663.5999756
1507.046748	664.4000244
1507.564984	662.7999878
1508.083166	663.4000244
1508.601292	663.0
1509.119364	661.7999878
1509.637381	661.7999878
1510.155344	662.5999756
1510.673252	667.7999878
1511.191105	663.0
1511.708903	662.2000122
1512.226647	663.2000122
1512.744336	664.2000122
1513.261971	661.0
1513.77955	661.0
1514.297076	662.0
1514.814546	661.2000122
1515.331962	663.0
1515.849323	662.4000244
1516.366629	663.4000244
1516.883881	661.4000244
1517.401078	660.5999756
1517.918221	664.4000244
1518.435309	663.7999878
1518.952342	661.0
1519.469321	662.5999756
1519.986245	662.5999756
1520.503114	662.5999756
1521.019929	663.5999756
1521.536689	662.5999756
1522.053395	662.2000122
1522.570046	661.4000244
1523.086642	663.0
1523.603184	662.4000244
1524.119671	662.5999756
1524.636103	661.2000122
1525.152481	661.0
1525.668805	663.4000244
1526.185073	664.5999756
1526.701288	663.4000244
1527.217447	661.0
1527.733552	663.2000122
1528.249603	664.2000122
1528.765599	662.5999756
1529.28154	663.2000122
1529.797427	663.2000122
1530.313259	660.4000244
1530.829037	662.0
1531.34476	663.4000244
1531.860429	661.7999878
1532.376043	663.4000244
1532.891602	662.7999878
1533.407107	662.0
1533.922558	663.2000122
1534.437954	661.7999878
1534.953295	663.0
1535.468582	662.0
1535.983815	662.7999878
1536.498993	661.7999878
1537.014116	660.4000244
1537.529185	662.0
1538.044199	661.5999756
1538.559159	662.5999756
1539.074064	663.4000244
1539.588915	664.2000122
1540.103712	661.5999756
1540.618454	661.4000244
1541.133141	661.0
1541.647774	660.5999756
1542.162353	661.0
1542.676877	662.2000122
1543.191346	663.5999756
1543.705761	660.4000244
1544.220122	660.0
1544.734428	661.5999756
1545.24868	662.7999878
1545.762877	661.4000244
1546.27702	659.7999878
1546.791109	662.0
1547.305143	660.0
1547.819122	663.5999756
1548.333047	662.2000122
1548.846918	660.0
1549.360734	662.2000122
1549.874496	662.7999878
1550.388204	662.0
1550.901857	661.5999756
1551.415455	661.4000244
1551.929	660.7999878
1552.442489	662.2000122
1552.955925	661.0
1553.469306	663.2000122
1553.982632	663.5999756
1554.495905	662.0
1555.009123	661.0
1555.522286	662.0
1556.035395	662.2000122
1556.54845	660.0
1557.06145	661.2000122
1557.574396	660.4000244
1558.087288	664.0
1558.600125	663.5999756
1559.112908	662.2000122
1559.625637	659.5999756
1560.138311	662.4000244
1560.650931	665.5999756
1561.163497	664.5999756
1561.676008	661.2000122
1562.188465	661.7999878
1562.700867	660.7999878
1563.213216	661.5999756
1563.725509	665.0
1564.237749	661.7999878
1564.749934	664.5999756
1565.262065	664.4000244
1565.774142	662.2000122
1566.286164	662.0
1566.798132	660.2000122
1567.310046	660.2000122
1567.821906	662.7999878
1568.333711	660.0
1568.845462	663.5999756
1569.357158	662.2000122
1569.868801	661.0
1570.380389	661.7999878
1570.891922	660.5999756
1571.403402	663.2000122
1571.914827	660.5999756
1572.426198	663.7999878
1572.937515	661.0
1573.448777	663.2000122
1573.959985	662.5999756
1574.471139	660.4000244
1574.982239	664.7999878
1575.493285	663.4000244
1576.004276	661.7999878
1576.515213	659.7999878
1577.026096	662.7999878
1577.536924	661.5999756
1578.047698	661.2000122
1578.558419	663.0
1579.069084	662.4000244
1579.579696	663.2000122
1580.090254	661.5999756
1580.600757	661.5999756
1581.111206	662.7999878
1581.621601	659.4000244
1582.131941	662.5999756
1583.662638	664.4000244
1584.172762	661.4000244
1584.682832	661.5999756
1585.192847	661.7999878
1585.702809	660.7999878
1586.212716	664.5999756
1586.722569	662.2000122
1587.232368	660.7999878
1587.742113	661.0
1588.251803	659.5999756
1588.76144	661.4000244
1589.271022	665.2000122
1589.78055	661.4000244
1590.290024	661.2000122
1590.799444	660.7999878
1591.30881	660.4000244
1591.818121	660.5999756
1592.327379	659.5999756
