1042.414189	676.0
1042.980685	673.5999756
1043.547124	672.0
1044.113505	673.0
1044.679828	668.7999878
1045.246093	670.4000244
1045.8123	671.2000122
1046.378449	669.0
1046.94454	669.2000122
1047.510573	667.0
1048.076548	667.4000244
1048.642465	667.4000244
1049.208325	666.4000244
1049.774126	668.0
1050.339869	665.4000244
1050.905555	669.0
1051.471183	668.0
1052.036752	664.5999756
1052.602264	663.7999878
1053.167718	664.4000244
1053.733114	667.5999756
1054.298452	665.4000244
1054.863733	664.7999878
1055.428955	663.0
1055.994119	665.4000244
1056.559226	662.4000244
1057.124275	663.7999878
1057.689266	664.7999878
1058.254199	664.2000122
1058.819074	665.4000244
1059.383891	664.4000244
1059.94865	661.7999878
1060.513352	661.0
1061.077996	663.7999878
1061.642582	663.5999756
1062.20711	661.2000122
1062.77158	666.0
1063.335992	663.2000122
1063.900347	662.0
1064.464643	661.5999756
1065.028882	663.4000244
1065.593063	663.0
1066.157187	661.4000244
1066.721252	662.7999878
1067.28526	664.2000122
1067.84921	664.2000122
1068.413102	662.2000122
1068.976936	663.7999878
1069.540713	662.0
1070.104431	669.0
1070.668092	663.0
1071.231696	662.7999878
1071.795241	662.4000244
1072.358729	663.4000244
1072.922159	662.0
1073.485531	659.5999756
1074.048845	664.7999878
1074.612102	662.2000122
1075.175301	661.2000122
1075.738442	663.5999756
1076.301525	660.7999878
1076.864551	663.2000122
1077.427519	665.4000244
1077.990429	662.0
1078.553281	663.2000122
1079.116076	660.4000244
1079.678813	663.2000122
1080.241492	663.2000122
1080.804114	662.0
1081.366678	663.5999756
1081.929184	662.4000244
1082.491633	660.7999878
1083.054024	660.5999756
1083.616357	663.4000244
1084.178632	663.0
1084.74085	662.0
1085.30301	661.7999878
1085.865113	662.4000244
1086.427158	663.0
1086.989145	660.5999756
1087.551074	663.4000244
1088.112946	661.7999878
1088.67476	660.2000122
1089.236517	660.4000244
1089.798216	662.7999878
1090.359857	660.7999878
1090.92144	661.0
1091.482966	661.0
1092.044435	660.7999878
1092.605845	661.0
1093.167199	662.5999756
1093.728494	664.7999878
1094.289732	662.2000122
1094.850912	662.5999756
1095.412035	671.0
1095.9731	660.7999878
1096.534107	661.4000244
1097.095057	667.7999878
1097.65595	662.2000122
1098.216784	660.2000122
1098.777561	663.2000122
1099.338281	661.5999756
1099.898943	661.7999878
1100.459547	662.2000122
1101.020094	663.4000244
1101.580584	659.5999756
1102.141015	663.7999878
1102.701389	661.7999878
1103.261706	662.0
1103.821965	662.5999756
1104.382167	661.2000122
1104.942311	663.0
1105.502397	659.7999878
1106.062426	660.4000244
1106.622398	661.4000244
1107.182312	661.4000244
1107.742168	660.5999756
1108.301967	659.7999878
1108.861708	663.7999878
1109.421392	660.7999878
1109.981019	662.4000244
1110.540587	662.2000122
1111.100099	663.5999756
1111.659553	661.7999878
1112.218949	663.2000122
1112.778288	662.5999756
1113.33757	662.2000122
1113.896794	661.4000244
1114.45596	659.0
1115.015069	659.5999756
1115.574121	660.4000244
1116.133115	660.0
1116.692052	661.0
1117.250931	664.2000122
1117.809753	661.7999878
1118.368517	661.2000122
1118.927224	661.0
1119.485873	659.2000122
1120.044465	661.5999756
1120.603	660.7999878
1121.161477	661.5999756
1121.719897	659.0
1122.278259	660.4000244
1122.836564	661.5999756
1123.394812	662.0
1123.953002	660.5999756
1124.511135	660.5999756
1125.06921	661.2000122
1125.627228	661.0
1126.185189	662.5999756
1126.743092	662.5999756
1127.300938	662.5999756
1127.858726	662.4000244
1128.416457	659.5999756
1128.974131	661.5999756
1129.531748	660.0
1130.089307	662.2000122
1130.646808	660.4000244
1131.204252	661.0
1131.761639	660.4000244
1132.318969	663.5999756
1132.876241	659.5999756
1133.433456	663.2000122
1133.990614	661.2000122
1134.547714	660.5999756
1135.104757	663.2000122
1135.661743	660.7999878
1136.218671	660.7999878
1136.775542	660.2000122
1137.332356	661.7999878
1137.889112	661.0
1138.445811	661.2000122
1139.002453	662.5999756
1139.559037	661.2000122
1140.115565	660.7999878
1140.672035	661.2000122
1141.228447	661.0
1141.784803	662.4000244
1142.341101	660.4000244
1142.897342	662.5999756
1143.453525	660.5999756
1144.009651	664.2000122
1144.565721	664.0
1145.121732	661.7999878
1145.677687	661.7999878
1146.233584	661.7999878
1146.789424	662.0
1147.345207	660.7999878
1147.900933	660.2000122
1148.456601	662.5999756
1149.012212	660.0
1149.567766	660.7999878
1150.123263	663.4000244
1150.678702	660.4000244
1151.234085	662.7999878
1151.78941	662.4000244
1152.344678	658.4000244
1152.899888	661.5999756
1153.455042	659.0
1154.010138	661.0
1154.565177	660.5999756
1155.120159	662.7999878
1155.675084	660.2000122
1156.229951	661.5999756
1156.784762	662.4000244
1157.339515	661.4000244
1157.894211	661.7999878
1158.44885	661.7999878
1159.003432	661.2000122
1159.557956	661.4000244
1160.112424	661.2000122
1160.666834	663.4000244
1161.221187	660.4000244
1161.775483	659.2000122
1162.329722	661.5999756
1162.883904	662.7999878
1163.438029	661.5999756
1163.992096	662.0
1164.546107	659.0
1165.10006	661.2000122
1165.653956	660.0
1166.207795	661.2000122
1166.761577	662.2000122
1167.315302	662.4000244
1167.86897	659.4000244
1168.422581	661.5999756
1168.976134	659.7999878
1169.529631	662.4000244
1170.08307	661.7999878
1170.636453	662.5999756
1171.189778	659.7999878
1171.743046	662.0
1172.296257	661.7999878
1172.849412	661.2000122
1173.402509	662.7999878
1173.955549	661.0
1174.508532	660.2000122
1175.061458	659.7999878
1175.614327	661.0
1176.167138	661.5999756
1176.719893	660.7999878
1177.272591	660.7999878
1177.825232	661.4000244
1178.377816	660.5999756
1178.930342	660.2000122
1179.482812	662.2000122
1180.035225	662.4000244
1180.587581	660.7999878
1181.139879	658.7999878
1181.692121	661.2000122
1182.244306	662.4000244
1182.796434	662.0
1183.348504	660.2000122
1183.900518	660.2000122
1184.452475	663.0
1185.004375	660.5999756
1185.556218	661.7999878
1186.108004	661.4000244
1186.659733	659.7999878
1187.211405	660.4000244
1187.76302	661.7999878
1188.314578	658.7999878
1188.866079	660.0
1189.417523	660.2000122
1189.96891	661.0
1190.520241	661.4000244
1191.071514	659.4000244
1191.622731	662.2000122
1192.17389	661.4000244
1192.724993	661.0
1193.276039	677.7999878
1193.827027	661.4000244
1194.377959	662.0
1194.928834	665.2000122
1195.479653	658.7999878
1196.030414	658.5999756
1196.581118	661.5999756
1197.131766	660.0
1197.682356	661.4000244
1198.23289	658.0
1198.783367	660.0
1199.333786	660.4000244
1199.88415	661.7999878
1200.434456	662.2000122
1200.984705	662.5999756
1201.534898	661.4000244
1202.085033	660.5999756
1202.635112	661.2000122
1203.185134	660.5999756
1203.735099	659.4000244
1204.285007	660.7999878
1204.834859	664.2000122
1205.384653	659.7999878
1205.934391	660.7999878
1206.484072	661.2000122
1207.033696	662.2000122
1207.583263	660.7999878
1208.132774	662.5999756
1208.682228	659.7999878
1209.231624	662.2000122
1209.780965	660.7999878
1210.330248	660.5999756
1210.879474	660.0
1211.428644	659.4000244
1211.977757	661.4000244
1212.526813	660.4000244
1213.075813	661.7999878
1213.624755	661.4000244
1214.173641	662.2000122
1214.72247	660.5999756
1215.271242	661.4000244
1215.819958	660.5999756
1216.368617	660.4000244
1216.917219	660.5999756
1217.465764	659.7999878
1218.014253	660.2000122
1218.562685	661.2000122
1219.11106	661.4000244
1219.659378	659.2000122
1220.20764	662.0
1220.755845	661.5999756
1221.303993	661.2000122
1221.852085	659.0
1222.400119	659.5999756
1222.948097	660.0
1223.496019	659.7999878
1224.043883	663.5999756
1224.591691	661.5999756
1225.139443	659.0
1225.687137	661.7999878
1226.234775	660.7999878
1226.782357	661.5999756
1227.329881	661.7999878
1227.877349	660.5999756
1228.42476	661.4000244
1228.972115	657.2000122
1229.519413	661.7999878
1230.066654	661.4000244
1230.613839	660.0
1231.160967	664.0
1231.708038	660.5999756
1232.255053	660.4000244
1232.802011	664.0
1233.348912	662.4000244
1233.895757	660.4000244
1234.442545	658.5999756
1234.989277	661.5999756
1235.535951	660.2000122
1236.08257	661.4000244
1236.629131	662.4000244
1237.175636	660.7999878
1237.722085	661.0
1238.268477	660.0
1238.814812	663.4000244
1239.361091	660.2000122
1239.907313	660.0
1240.453478	660.5999756
1240.999587	660.5999756
1241.54564	662.0
1242.091636	662.2000122
1242.637575	660.5999756
1243.183457	660.0
1243.729284	661.2000122
1244.275053	661.7999878
1244.820766	662.0
1245.366423	664.5999756
1245.912022	662.2000122
1246.457566	662.4000244
1247.003053	661.2000122
1247.548483	662.2000122
1248.093857	660.7999878
1248.639174	660.4000244
1249.184435	660.0
1249.729639	660.5999756
1250.274787	661.2000122
1250.819878	661.5999756
1251.364912	661.5999756
1251.909891	660.4000244
1252.454812	661.7999878
1252.999677	660.5999756
1253.544486	661.0
1254.089238	660.5999756
1254.633934	662.0
1255.178573	660.4000244
1255.723156	660.7999878
1256.267682	661.2000122
1256.812152	661.7999878
1257.356565	661.5999756
1257.900922	662.4000244
1258.445223	662.7999878
1258.989467	662.7999878
1259.533654	662.7999878
1260.077785	670.0
1260.62186	660.5999756
1261.165878	662.2000122
1261.70984	662.4000244
1262.253745	661.5999756
1262.797594	661.0
1263.341386	662.5999756
1263.885123	663.0
1264.428802	665.4000244
1264.972425	664.5999756
1265.515992	663.0
1266.059503	664.7999878
1266.602957	663.2000122
1267.146354	660.5999756
1267.689696	663.7999878
1268.23298	664.2000122
1268.776209	661.4000244
1269.319381	662.5999756
1269.862497	664.5999756
1270.405556	661.0
1270.948559	662.7999878
1271.491506	659.7999878
1272.034396	659.0
1272.57723	661.0
1273.120007	663.4000244
1273.662728	662.0
1274.205393	664.0
1274.748002	662.5999756
1275.290554	663.0
1275.83305	662.5999756
1276.375489	663.0
1276.917872	662.7999878
1277.460199	659.7999878
1278.00247	661.5999756
1278.544684	664.0
1279.086842	660.5999756
1279.628943	661.0
1280.170989	662.4000244
1280.712978	662.0
1281.25491	664.0
1281.796787	662.4000244
1282.338607	663.2000122
1282.880371	664.0
1283.422078	667.0
1283.963729	673.7999878
1284.505324	681.5999756
1285.046863	705.0
1285.588345	725.5999756
1286.129772	702.7999878
1286.671142	673.7999878
1287.212455	664.5999756
1287.753713	663.4000244
1288.294914	663.4000244
1288.836059	664.0
1289.377147	664.2000122
1289.91818	663.4000244
1290.459156	664.0
1291.000076	660.0
1291.54094	661.2000122
1292.081747	660.7999878
1292.622499	660.5999756
1293.163194	661.4000244
1293.703833	660.4000244
1294.244415	660.4000244
1294.784942	658.2000122
1295.325412	662.4000244
1295.865826	660.5999756
1296.406184	661.5999756
1296.946486	661.2000122
1297.486731	662.2000122
1298.026921	662.4000244
1298.567054	663.2000122
1299.107131	661.4000244
1299.647152	661.4000244
1300.187116	662.0
1300.727025	660.4000244
1301.266877	663.5999756
1301.806673	661.2000122
1302.346413	661.0
1302.886097	663.0
1303.425725	660.4000244
1303.965297	660.5999756
1304.504812	658.5999756
1305.044272	659.7999878
1305.583675	661.4000244
1306.123022	661.7999878
1306.662313	661.5999756
1307.201548	661.7999878
1307.740727	660.4000244
1308.279849	661.4000244
1308.818916	661.4000244
1309.357926	661.4000244
1309.896881	660.2000122
1310.435779	660.2000122
1310.974621	663.2000122
1311.513407	662.2000122
1312.052137	659.5999756
1312.590811	660.2000122
1313.129429	659.7999878
1313.667991	662.0
1314.206497	660.4000244
1314.744946	661.5999756
1315.28334	662.0
1315.821678	657.4000244
1316.359959	664.0
1316.898184	659.5999756
1317.436354	662.7999878
1317.974467	661.0
1318.512525	664.4000244
1319.050526	662.2000122
1319.588471	659.5999756
1320.12636	661.0
1320.664194	661.5999756
1321.201971	659.2000122
1321.739692	658.5999756
1322.277357	661.7999878
1322.814967	661.4000244
1323.35252	660.7999878
1323.890017	665.2000122
1324.427458	663.0
1324.964843	659.5999756
1325.502173	662.0
1326.039446	659.4000244
1326.576663	661.7999878
1327.113824	663.0
1327.65093	661.2000122
1328.187979	659.7999878
1328.724972	661.2000122
1329.26191	661.2000122
1329.798791	661.5999756
1330.335617	660.0
1330.872386	663.0
1331.4091	662.7999878
1331.945758	665.5999756
1332.48236	661.5999756
1333.018905	659.5999756
1333.555395	660.7999878
1334.091829	659.4000244
1334.628207	659.7999878
1335.164529	659.5999756
1335.700796	660.2000122
1336.237006	659.0
1336.77316	662.5999756
1337.309259	663.5999756
1337.845301	662.0
1338.381288	660.2000122
1338.917219	660.0
1339.453094	661.4000244
1339.988913	661.0
1340.524676	660.0
1341.060383	660.7999878
1341.596034	661.7999878
1342.13163	660.7999878
1342.66717	663.5999756
1343.202653	658.7999878
1343.738081	661.7999878
1344.273453	662.7999878
1344.80877	661.7999878
1345.34403	663.0
1345.879235	658.0
1346.414383	660.0
1346.949476	660.5999756
1347.484513	661.0
1348.019494	661.2000122
1348.55442	662.0
1349.089289	663.4000244
1349.624103	659.2000122
1350.158861	660.5999756
1350.693563	660.5999756
1351.228209	660.7999878
1351.7628	661.2000122
1352.297334	660.5999756
1352.831813	658.7999878
1353.366236	659.4000244
1353.900604	660.7999878
1354.434915	660.7999878
1354.969171	661.0
1355.503371	662.4000244
1356.037515	662.5999756
1356.571604	661.2000122
1357.105636	660.7999878
1357.639613	661.2000122
1358.173535	661.5999756
1358.7074	660.7999878
1359.24121	661.4000244
1359.774964	662.7999878
1360.308662	661.4000244
1360.842304	660.5999756
1361.375891	662.2000122
1361.909422	665.0
1362.442897	660.7999878
1362.976317	662.2000122
1363.50968	660.5999756
1364.042989	660.0
1364.576241	662.0
1365.109438	660.5999756
1365.642579	661.5999756
1366.175664	661.0
1366.708693	659.4000244
1367.241667	663.2000122
1367.774585	660.7999878
1368.307448	663.5999756
1368.840255	659.0
1369.373006	661.5999756
1369.905701	660.5999756
1370.438341	664.0
1370.970925	661.7999878
1371.503454	661.0
1372.035926	660.0
1372.568344	660.4000244
1373.100705	661.5999756
1373.633011	661.0
1374.165261	661.7999878
1374.697456	659.5999756
1375.229595	659.7999878
1375.761678	660.0
1376.293705	662.0
1376.825677	660.5999756
1377.357594	662.5999756
1377.889455	662.5999756
1378.42126	662.4000244
1378.953009	660.4000244
1379.484703	661.4000244
1380.016342	663.0
1380.547924	660.2000122
1381.079452	660.7999878
1381.610923	661.2000122
1382.142339	662.5999756
1382.673699	661.5999756
1383.205004	661.0
1383.736253	664.5999756
1384.267447	662.5999756
1384.798585	663.4000244
1385.329668	663.7999878
1385.860695	664.2000122
1386.391666	662.7999878
1386.922582	664.5999756
1387.453442	673.0
1387.984247	685.2000122
1388.514996	736.2000122
1389.04569	789.5999756
1389.576328	724.4000244
1390.10691	679.0
1390.637437	663.7999878
1391.167909	666.0
1391.698325	662.7999878
1392.228685	663.2000122
1392.75899	662.2000122
1393.28924	662.0
1393.819434	663.2000122
1394.349572	661.7999878
1394.879655	661.5999756
1395.409683	664.5999756
1395.939655	662.5999756
1396.469571	660.4000244
1396.999432	661.0
1397.529237	662.2000122
1398.058987	662.0
1398.588682	660.0
1399.118321	663.5999756
1399.647905	661.2000122
1400.177433	660.7999878
1400.706906	662.2000122
1401.236323	660.5999756
1401.765685	662.0
1402.294991	658.4000244
1402.824242	660.7999878
1403.353437	661.0
1403.882577	664.2000122
1404.411662	662.0
1404.940691	662.5999756
1405.469665	658.7999878
1405.998583	661.2000122
1406.527446	662.2000122
1407.056253	663.0
1407.585005	661.4000244
1408.113702	663.4000244
1408.642343	660.7999878
1409.170929	663.5999756
1409.69946	668.4000244
1410.227935	668.0
1410.756354	667.5999756
1411.284719	666.0
1411.813028	664.5999756
1412.341281	662.0
1412.869479	661.7999878
1413.397622	660.2000122
1413.92571	660.4000244
1414.453742	662.2000122
1414.981718	660.2000122
1415.50964	671.4000244
1416.037506	661.5999756
1416.565316	661.2000122
1417.093072	661.7999878
1417.620772	660.7999878
1418.148416	660.4000244
1418.676005	664.0
1419.203539	661.2000122
1419.731018	657.0
1420.258441	661.0
1420.785809	660.7999878
1421.313122	661.4000244
1421.840379	659.5999756
1422.367582	659.4000244
1422.894728	659.0
1423.42182	662.0
1423.948856	662.0
1424.475837	660.7999878
1425.002762	660.7999878
1425.529633	664.0
1426.056448	664.7999878
1426.583207	661.2000122
1427.109912	662.2000122
1427.636561	663.0
1428.163155	660.0
1428.689694	661.0
1429.216177	660.0
1429.742605	662.2000122
1430.268978	660.0
1430.795296	661.5999756
1431.321558	660.0
1431.847765	663.0
1432.373917	659.4000244
1432.900014	663.0
1433.426056	662.2000122
1433.952042	663.4000244
1434.477973	662.4000244
1435.003849	661.0
1435.529669	659.7999878
1436.055435	661.5999756
1436.581145	660.7999878
1437.1068	660.4000244
1437.632399	661.4000244
1438.157944	661.2000122
1438.683433	661.7999878
1439.208868	660.5999756
1439.734247	660.5999756
1440.25957	661.4000244
1440.784839	661.4000244
1441.310053	660.0
1441.835211	661.4000244
1442.360314	661.7999878
1442.885362	661.0
1443.410355	662.0
1443.935292	659.4000244
1444.460175	661.5999756
1444.985002	659.5999756
1445.509774	662.0
1446.034491	659.7999878
1446.559153	661.7999878
1447.08376	661.0
1447.608312	659.5999756
1448.132808	663.2000122
1448.65725	661.2000122
1449.181636	660.4000244
1449.705967	661.0
1450.230243	660.2000122
1450.754464	663.2000122
1451.27863	658.7999878
1451.802741	661.0
1452.326797	663.2000122
1452.850797	658.7999878
1453.374743	661.2000122
1453.898633	657.4000244
1454.422468	659.4000244
1454.946249	662.4000244
1455.469974	661.7999878
1455.993644	660.5999756
1456.517259	661.0
1457.040819	659.2000122
1457.564324	661.0
1458.087773	662.7999878
1458.611168	661.5999756
1459.134508	659.7999878
1459.657793	661.4000244
1460.181022	660.5999756
1460.704197	661.2000122
1461.227316	660.5999756
1461.750381	661.0
1462.27339	662.7999878
1462.796345	658.4000244
1463.319244	659.5999756
1463.842089	659.5999756
1464.364878	660.7999878
1464.887613	659.4000244
1465.410292	661.2000122
1465.932916	660.5999756
1466.455486	660.4000244
1466.978	659.5999756
1467.50046	661.0
1468.022864	660.4000244
1468.545214	661.0
1469.067508	663.0
1469.589748	717.7999878
1471.156136	659.4000244
1471.678156	660.2000122
1472.20012	662.2000122
1472.72203	661.2000122
1473.243885	660.5999756
1473.765685	661.0
1474.28743	661.5999756
1474.80912	660.0
1475.330755	659.7999878
1475.852335	661.4000244
1476.37386	658.0
1476.89533	659.5999756
1477.416745	659.5999756
1477.938106	662.2000122
1478.459411	660.5999756
1478.980662	660.4000244
1479.501857	662.2000122
1480.022998	661.0
1480.544084	661.5999756
1481.065115	659.0
1481.586091	660.7999878
1482.107012	658.5999756
1482.627878	660.7999878
1483.14869	660.0
1483.669446	660.5999756
1484.190148	662.5999756
1484.710794	661.0
1485.231386	661.7999878
1485.751923	663.4000244
1486.272406	662.4000244
1486.792833	659.4000244
1487.313205	660.0
1487.833523	660.5999756
1488.353786	659.7999878
1488.873994	659.2000122
1489.394147	663.4000244
1489.914245	660.7999878
1490.434288	661.7999878
1490.954277	659.7999878
1491.474211	660.2000122
1491.99409	660.4000244
1492.513914	659.4000244
1493.033683	657.7999878
1493.553398	658.5999756
1494.073057	661.5999756
1494.592662	661.5999756
1495.112212	659.4000244
1495.631708	660.2000122
1496.151148	660.4000244
1496.670534	660.7999878
1497.189865	663.5999756
1497.709141	659.4000244
1498.228362	659.0
1498.747529	659.5999756
1499.266641	661.7999878
1499.785698	667.0
1500.3047	660.0
1500.823648	661.4000244
1501.34254	661.5999756
1501.861379	660.4000244
1502.380162	661.4000244
1502.89889	661.0
1503.417564	660.4000244
1503.936183	659.2000122
1504.454748	660.7999878
1504.973257	660.4000244
1505.491712	661.7999878
1506.010112	661.5999756
1506.528458	660.7999878
1507.046748	660.0
1507.564984	660.5999756
1508.083166	659.5999756
1508.601292	661.5999756
1509.119364	660.0
1509.637381	659.5999756
1510.155344	660.7999878
1510.673252	666.2000122
1511.191105	660.5999756
1511.708903	660.2000122
1512.226647	659.4000244
1512.744336	660.2000122
1513.261971	659.0
1513.77955	660.4000244
1514.297076	661.4000244
1514.814546	660.5999756
1515.331962	660.2000122
1515.849323	658.7999878
1516.366629	662.4000244
1516.883881	662.7999878
1517.401078	660.4000244
1517.918221	661.0
1518.435309	660.4000244
1518.952342	660.7999878
1519.469321	662.4000244
1519.986245	660.4000244
1520.503114	661.7999878
1521.019929	660.2000122
1521.536689	661.2000122
1522.053395	660.4000244
1522.570046	661.0
1523.086642	663.0
1523.603184	662.0
1524.119671	658.4000244
1524.636103	661.4000244
1525.152481	659.5999756
1525.668805	657.4000244
1526.185073	659.4000244
1526.701288	661.4000244
1527.217447	662.4000244
1527.733552	660.5999756
1528.249603	660.4000244
1528.765599	661.0
1529.28154	659.5999756
1529.797427	664.2000122
1530.313259	659.4000244
1530.829037	658.7999878
1531.34476	657.7999878
1531.860429	661.5999756
1532.376043	660.2000122
1532.891602	659.2000122
1533.407107	659.2000122
1533.922558	662.7999878
1534.437954	663.4000244
1534.953295	660.5999756
1535.468582	659.5999756
1535.983815	660.2000122
1536.498993	662.2000122
1537.014116	659.0
1537.529185	662.7999878
1538.044199	661.0
1538.559159	660.4000244
1539.074064	661.5999756
1539.588915	663.2000122
1540.103712	661.2000122
1540.618454	660.7999878
1541.133141	660.5999756
1541.647774	660.2000122
1542.162353	659.2000122
1542.676877	660.7999878
1543.191346	659.2000122
1543.705761	663.2000122
1544.220122	660.4000244
1544.734428	658.7999878
1545.24868	661.2000122
1545.762877	660.4000244
1546.27702	657.2000122
1546.791109	658.4000244
1547.305143	660.7999878
1547.819122	660.7999878
1548.333047	661.0
1548.846918	660.4000244
1549.360734	662.0
1549.874496	661.5999756
1550.388204	659.5999756
1550.901857	662.4000244
1551.415455	660.4000244
1551.929	661.0
1552.442489	661.7999878
1552.955925	662.5999756
1553.469306	658.7999878
1553.982632	660.7999878
1554.495905	660.2000122
1555.009123	662.2000122
1555.522286	661.7999878
1556.035395	659.4000244
1556.54845	658.2000122
1557.06145	657.7999878
1557.574396	661.4000244
1558.087288	659.2000122
1558.600125	660.2000122
1559.112908	661.5999756
1559.625637	661.0
1560.138311	660.2000122
1560.650931	659.7999878
1561.163497	660.2000122
1561.676008	660.5999756
1562.188465	662.2000122
1562.700867	662.0
1563.213216	660.4000244
1563.725509	659.7999878
1564.237749	659.4000244
1564.749934	660.7999878
1565.262065	661.7999878
1565.774142	658.0
1566.286164	660.7999878
1566.798132	658.7999878
1567.310046	662.0
1567.821906	661.5999756
1568.333711	662.7999878
1568.845462	662.4000244
1569.357158	661.2000122
1569.868801	659.5999756
1570.380389	661.0
1570.891922	661.2000122
1571.403402	660.2000122
1571.914827	661.2000122
1572.426198	662.7999878
1572.937515	659.0
1573.448777	659.5999756
1573.959985	659.7999878
1574.471139	660.5999756
1574.982239	659.0
1575.493285	659.5999756
1576.004276	662.5999756
1576.515213	661.0
1577.026096	660.5999756
1577.536924	660.5999756
1578.047698	660.2000122
1578.558419	660.0
1579.069084	661.4000244
1579.579696	660.4000244
1580.090254	658.7999878
1580.600757	660.5999756
1581.111206	659.0
1581.621601	660.0
1582.131941	660.4000244
1582.642228	657.5999756
1583.15246	659.2000122
1583.662638	661.0
1584.172762	658.2000122
1584.682832	661.2000122
1585.192847	660.5999756
1585.702809	659.4000244
1586.212716	660.4000244
1586.722569	660.7999878
1587.232368	658.7999878
1587.742113	660.4000244
1588.251803	663.2000122
1588.76144	658.0
1589.271022	660.4000244
1589.78055	658.4000244
1590.290024	660.4000244
1590.799444	659.2000122
1591.30881	658.4000244
1591.818121	662.7999878
1592.327379	659.4000244
