1042.414189	687.4000244
1042.980685	686.2000122
1043.547124	685.5999756
1044.113505	687.5999756
1044.679828	683.5999756
1045.246093	685.4000244
1045.8123	683.5999756
1046.378449	684.5999756
1046.94454	678.5999756
1047.510573	681.5999756
1048.076548	680.4000244
1048.642465	678.5999756
1049.208325	680.7999878
1049.774126	684.0
1050.339869	678.7999878
1050.905555	679.4000244
1051.471183	676.2000122
1052.036752	678.4000244
1052.602264	675.7999878
1053.167718	679.5999756
1053.733114	674.4000244
1054.298452	678.2000122
1054.863733	675.0
1055.428955	671.5999756
1055.994119	675.5999756
1056.559226	675.5999756
1057.124275	676.7999878
1057.689266	675.4000244
1058.254199	673.0
1058.819074	674.4000244
1059.383891	675.4000244
1059.94865	673.0
1060.513352	671.4000244
1061.077996	673.7999878
1061.642582	670.7999878
1062.20711	676.2000122
1062.77158	676.0
1063.335992	674.5999756
1063.900347	674.0
1064.464643	669.4000244
1065.028882	674.2000122
1065.593063	672.4000244
1066.157187	673.7999878
1066.721252	672.4000244
1067.28526	670.4000244
1067.84921	671.4000244
1068.413102	671.7999878
1068.976936	674.0
1069.540713	667.0
1070.104431	677.0
1070.668092	670.4000244
1071.231696	671.2000122
1071.795241	673.2000122
1072.358729	673.2000122
1072.922159	670.4000244
1073.485531	671.7999878
1074.048845	673.7999878
1074.612102	672.4000244
1075.175301	673.4000244
1075.738442	674.7999878
1076.301525	674.0
1076.864551	674.0
1077.427519	674.7999878
1077.990429	672.7999878
1078.553281	675.4000244
1079.116076	672.0
1079.678813	673.2000122
1080.241492	671.7999878
1080.804114	669.7999878
1081.366678	669.4000244
1081.929184	671.7999878
1082.491633	674.2000122
1083.054024	672.0
1084.178632	675.0
1084.74085	672.7999878
1085.30301	673.0
1085.865113	673.7999878
1086.427158	670.2000122
1086.989145	672.5999756
1087.551074	674.5999756
1088.112946	673.5999756
1088.67476	671.7999878
1089.236517	672.2000122
1089.798216	672.5999756
1090.359857	673.7999878
1090.92144	675.2000122
1091.482966	672.5999756
1092.044435	674.0
1092.605845	668.5999756
1093.167199	670.4000244
1093.728494	670.5999756
1094.289732	672.4000244
1094.850912	670.5999756
1095.412035	680.7999878
1095.9731	671.5999756
1096.534107	671.5999756
1097.095057	678.5999756
1097.65595	672.0
1098.216784	671.0
1098.777561	673.0
1099.338281	674.7999878
1099.898943	674.7999878
1100.459547	670.7999878
1101.020094	669.7999878
1101.580584	672.0
1102.141015	670.5999756
1102.701389	670.0
1103.261706	671.4000244
1103.821965	671.2000122
1104.382167	672.7999878
1104.942311	669.0
1105.502397	670.2000122
1106.062426	673.7999878
1106.622398	671.7999878
1107.182312	671.5999756
1107.742168	670.0
1108.301967	670.2000122
1108.861708	670.0
1109.421392	671.4000244
1109.981019	671.5999756
1110.540587	675.4000244
1111.100099	671.0
1111.659553	671.2000122
1112.218949	672.4000244
1112.778288	672.5999756
1113.33757	672.0
1113.896794	673.4000244
1114.45596	672.0
1115.015069	672.2000122
1115.574121	670.4000244
1116.133115	672.2000122
1116.692052	673.5999756
1117.250931	674.0
1117.809753	672.2000122
1118.368517	669.7999878
1118.927224	674.2000122
1119.485873	671.2000122
1120.044465	669.7999878
1120.603	670.4000244
1121.161477	670.2000122
1121.719897	671.5999756
1122.278259	671.2000122
1122.836564	671.2000122
1123.394812	673.7999878
1123.953002	671.2000122
1124.511135	671.5999756
1125.06921	668.2000122
1125.627228	671.2000122
1126.185189	673.0
1126.743092	672.4000244
1127.300938	669.7999878
1127.858726	670.2000122
1128.416457	669.7999878
1128.974131	671.0
1129.531748	673.2000122
1130.089307	671.7999878
1130.646808	669.4000244
1131.204252	668.7999878
1131.761639	670.7999878
1132.318969	672.0
1132.876241	668.2000122
1133.433456	668.5999756
1133.990614	670.5999756
1134.547714	671.5999756
1135.104757	671.2000122
1135.661743	672.2000122
1136.218671	674.0
1136.775542	673.0
1137.332356	673.4000244
1137.889112	674.0
1138.445811	670.0
1139.002453	671.5999756
1139.559037	667.2000122
1140.115565	670.7999878
1140.672035	671.7999878
1141.228447	671.7999878
1141.784803	673.4000244
1142.341101	672.5999756
1142.897342	675.4000244
1143.453525	674.4000244
1144.009651	673.7999878
1144.565721	671.5999756
1145.121732	670.7999878
1145.677687	672.5999756
1146.233584	672.4000244
1146.789424	675.2000122
1147.345207	668.7999878
1147.900933	673.7999878
1148.456601	674.2000122
1149.012212	674.0
1149.567766	672.2000122
1150.123263	670.4000244
1150.678702	672.7999878
1151.234085	672.0
1151.78941	669.4000244
1152.344678	672.7999878
1152.899888	668.5999756
1153.455042	673.5999756
1154.010138	669.0
1154.565177	670.4000244
1155.120159	672.7999878
1155.675084	668.5999756
1156.229951	672.5999756
1156.784762	672.5999756
1157.339515	670.5999756
1157.894211	670.7999878
1158.44885	670.7999878
1159.003432	672.7999878
1159.557956	672.5999756
1160.112424	674.0
1160.666834	672.5999756
1161.221187	677.2000122
1161.775483	669.2000122
1162.329722	673.5999756
1162.883904	673.4000244
1163.438029	669.5999756
1163.992096	669.2000122
1164.546107	670.5999756
1165.10006	672.4000244
1165.653956	670.0
1166.207795	669.0
1166.761577	671.0
1167.315302	672.4000244
1167.86897	672.7999878
1168.422581	671.4000244
1168.976134	671.5999756
1169.529631	671.7999878
1170.08307	670.5999756
1170.636453	671.7999878
1171.189778	671.0
1171.743046	673.0
1172.296257	671.2000122
1172.849412	670.0
1173.402509	669.7999878
1173.955549	673.0
1174.508532	672.7999878
1175.061458	671.7999878
1175.614327	669.2000122
1176.167138	672.4000244
1176.719893	674.4000244
1177.272591	671.2000122
1177.825232	671.5999756
1178.377816	673.7999878
1178.930342	668.2000122
1179.482812	671.4000244
1180.035225	669.7999878
1180.587581	671.7999878
1181.139879	672.2000122
1181.692121	671.7999878
1182.244306	672.0
1182.796434	670.2000122
1183.348504	674.4000244
1183.900518	674.4000244
1184.452475	673.2000122
1185.004375	672.0
1185.556218	670.7999878
1186.108004	672.2000122
1186.659733	671.2000122
1187.211405	672.0
1187.76302	670.5999756
1188.314578	671.5999756
1188.866079	672.2000122
1189.417523	671.4000244
1189.96891	671.5999756
1190.520241	672.2000122
1191.071514	670.4000244
1191.622731	676.5999756
1192.17389	669.7999878
1192.724993	671.7999878
1193.276039	691.7999878
1193.827027	669.5999756
1194.377959	671.5999756
1194.928834	673.2000122
1195.479653	674.5999756
1196.030414	671.7999878
1196.581118	676.2000122
1197.131766	671.4000244
1197.682356	672.5999756
1198.23289	671.0
1198.783367	671.4000244
1199.333786	670.4000244
1199.88415	670.2000122
1200.434456	670.5999756
1200.984705	672.7999878
1201.534898	669.7999878
1202.085033	670.4000244
1202.635112	671.2000122
1203.185134	670.2000122
1203.735099	672.5999756
1204.285007	672.4000244
1204.834859	670.5999756
1205.384653	670.5999756
1205.934391	673.7999878
1206.484072	673.4000244
1207.033696	673.5999756
1207.583263	672.7999878
1208.132774	671.5999756
1208.682228	672.7999878
1209.231624	667.4000244
1209.780965	672.5999756
1210.330248	671.0
1210.879474	672.0
1211.428644	672.2000122
1211.977757	669.2000122
1212.526813	670.5999756
1213.075813	672.4000244
1213.624755	672.2000122
1214.173641	671.5999756
1214.72247	672.4000244
1215.271242	670.4000244
1215.819958	673.5999756
1216.368617	672.0
1216.917219	671.0
1217.465764	671.4000244
1218.014253	671.7999878
1218.562685	672.4000244
1219.11106	674.4000244
1219.659378	673.4000244
1220.20764	673.2000122
1220.755845	672.0
1221.303993	673.7999878
1221.852085	673.5999756
1222.400119	672.0
1222.948097	672.2000122
1223.496019	672.5999756
1224.043883	673.2000122
1224.591691	671.7999878
1225.139443	675.5999756
1225.687137	672.5999756
1226.234775	671.4000244
1226.782357	674.5999756
1227.329881	670.4000244
1227.877349	674.4000244
1228.42476	672.5999756
1228.972115	668.4000244
1229.519413	670.5999756
1230.066654	666.5999756
1230.613839	671.4000244
1231.160967	672.5999756
1231.708038	674.5999756
1232.255053	673.0
1232.802011	671.5999756
1233.348912	672.0
1233.895757	671.2000122
1234.442545	671.0
1234.989277	674.2000122
1235.535951	670.4000244
1236.08257	670.7999878
1236.629131	670.2000122
1237.175636	670.7999878
1237.722085	671.2000122
1238.268477	673.2000122
1238.814812	673.0
1239.361091	670.5999756
1239.907313	669.7999878
1240.453478	672.7999878
1240.999587	668.5999756
1241.54564	671.0
1242.091636	672.4000244
1242.637575	671.7999878
1243.183457	668.2000122
1243.729284	670.4000244
1244.275053	670.0
1244.820766	675.2000122
1245.366423	673.7999878
1245.912022	671.5999756
1246.457566	671.5999756
1247.003053	672.7999878
1247.548483	670.5999756
1248.093857	669.7999878
1248.639174	672.0
1249.184435	669.0
1249.729639	670.7999878
1250.274787	671.7999878
1250.819878	673.0
1251.364912	672.0
1251.909891	670.7999878
1252.454812	672.0
1252.999677	671.2000122
1253.544486	669.4000244
1254.089238	671.2000122
1254.633934	671.7999878
1255.178573	670.0
1255.723156	667.5999756
1256.267682	671.0
1256.812152	668.7999878
1257.356565	671.0
1257.900922	671.5999756
1258.445223	671.5999756
1258.989467	670.4000244
1259.533654	670.4000244
1260.077785	679.0
1260.62186	671.7999878
1261.165878	668.4000244
1261.70984	671.4000244
1262.253745	672.2000122
1262.797594	671.7999878
1263.341386	668.0
1263.885123	671.7999878
1264.428802	673.0
1264.972425	677.4000244
1265.515992	678.4000244
1266.059503	678.2000122
1266.602957	677.4000244
1267.146354	674.7999878
1267.689696	672.7999878
1268.23298	671.2000122
1268.776209	669.7999878
1269.319381	672.4000244
1269.862497	673.4000244
1270.405556	671.0
1270.948559	669.2000122
1271.491506	673.2000122
1272.034396	671.2000122
1272.57723	669.7999878
1273.120007	669.2000122
1273.662728	670.4000244
1274.205393	668.2000122
1274.748002	670.2000122
1275.290554	671.4000244
1275.83305	671.7999878
1276.375489	672.0
1276.917872	670.5999756
1277.460199	670.2000122
1278.00247	671.5999756
1278.544684	669.5999756
1279.086842	670.0
1279.628943	671.2000122
1280.170989	671.2000122
1280.712978	670.4000244
1281.25491	671.0
1281.796787	672.0
1282.338607	667.5999756
1282.880371	671.7999878
1283.422078	673.7999878
1283.963729	676.2000122
1284.505324	678.5999756
1285.046863	692.7999878
1285.588345	747.5999756
1286.129772	807.4000244
1286.671142	745.7999878
1287.212455	691.5999756
1287.753713	674.0
1288.294914	670.2000122
1288.836059	670.5999756
1289.377147	673.4000244
1289.91818	672.7999878
1290.459156	668.4000244
1291.000076	669.5999756
1291.54094	668.2000122
1292.081747	670.2000122
1292.622499	673.4000244
1293.163194	670.2000122
1293.703833	668.2000122
1294.244415	668.0
1294.784942	668.0
1295.325412	668.2000122
1295.865826	672.4000244
1296.406184	670.0
1296.946486	671.2000122
1297.486731	667.2000122
1298.026921	668.7999878
1298.567054	670.7999878
1299.107131	670.7999878
1299.647152	670.7999878
1300.187116	670.4000244
1300.727025	670.4000244
1301.266877	670.7999878
1301.806673	671.0
1302.346413	669.2000122
1302.886097	670.7999878
1303.425725	669.7999878
1303.965297	669.4000244
1304.504812	673.0
1305.044272	669.7999878
1305.583675	672.0
1306.123022	666.7999878
1306.662313	669.7999878
1307.201548	672.2000122
1307.740727	666.7999878
1308.279849	671.0
1308.818916	669.2000122
1309.357926	670.7999878
1309.896881	670.5999756
1310.435779	669.5999756
1310.974621	669.7999878
1311.513407	669.4000244
1312.052137	672.0
1312.590811	669.0
1313.129429	670.0
1313.667991	670.4000244
1314.206497	670.7999878
1314.744946	670.2000122
1315.28334	672.2000122
1315.821678	670.7999878
1316.359959	672.4000244
1316.898184	671.7999878
1317.436354	669.4000244
1317.974467	670.0
1318.512525	671.4000244
1319.050526	671.5999756
1319.588471	670.5999756
1320.12636	670.2000122
1320.664194	670.0
1321.201971	669.7999878
1321.739692	670.4000244
1322.277357	669.7999878
1322.814967	668.2000122
1323.35252	671.5999756
1323.890017	671.4000244
1324.427458	672.0
1324.964843	670.5999756
1325.502173	672.4000244
1326.039446	666.2000122
1326.576663	670.0
1327.113824	669.2000122
1327.65093	669.2000122
1328.187979	672.5999756
1328.724972	666.2000122
1329.26191	672.2000122
1329.798791	669.7999878
1330.335617	668.7999878
1330.872386	670.5999756
1331.4091	671.4000244
1331.945758	668.5999756
1332.48236	670.2000122
1333.018905	672.0
1333.555395	669.0
1334.091829	669.2000122
1334.628207	670.0
1335.164529	666.2000122
1335.700796	669.0
1336.237006	670.2000122
1336.77316	672.7999878
1337.309259	668.7999878
1337.845301	671.4000244
1338.381288	670.0
1338.917219	668.5999756
1339.453094	672.0
1339.988913	670.0
1340.524676	671.7999878
1341.060383	667.7999878
1341.596034	673.2000122
1342.13163	672.0
1342.66717	669.7999878
1343.202653	670.5999756
1343.738081	671.0
1344.273453	670.4000244
1344.80877	669.5999756
1345.34403	671.4000244
1345.879235	668.4000244
1346.414383	670.5999756
1346.949476	669.5999756
1347.484513	667.4000244
1348.019494	666.4000244
1348.55442	667.0
1349.089289	669.4000244
1349.624103	671.0
1350.158861	669.4000244
1350.693563	671.7999878
1351.228209	669.5999756
1351.7628	669.0
1352.297334	671.4000244
1352.831813	671.2000122
1353.366236	668.2000122
1353.900604	671.4000244
1354.434915	669.4000244
1354.969171	671.7999878
1355.503371	667.7999878
1356.037515	671.2000122
1356.571604	667.7999878
1357.105636	669.2000122
1357.639613	671.2000122
1358.173535	672.7999878
1358.7074	668.5999756
1359.24121	669.2000122
1359.774964	668.5999756
1360.308662	672.4000244
1360.842304	670.7999878
1361.375891	670.4000244
1361.909422	670.4000244
1362.442897	669.2000122
1362.976317	669.4000244
1363.50968	670.2000122
1364.042989	670.0
1364.576241	669.0
1365.109438	667.4000244
1365.642579	667.5999756
1366.175664	672.0
1366.708693	668.4000244
1367.241667	670.0
1367.774585	669.2000122
1368.307448	669.4000244
1368.840255	670.7999878
1369.373006	670.4000244
1369.905701	669.7999878
1370.438341	671.7999878
1370.970925	674.4000244
1371.503454	671.4000244
1372.035926	671.2000122
1372.568344	671.2000122
1373.100705	670.7999878
1373.633011	668.0
1374.165261	669.2000122
1374.697456	671.7999878
1375.229595	669.5999756
1375.761678	671.5999756
1376.293705	669.4000244
1376.825677	670.2000122
1377.357594	667.0
1377.889455	670.4000244
1378.42126	668.0
1378.953009	669.4000244
1379.484703	668.4000244
1380.016342	673.0
1380.547924	668.7999878
1381.079452	671.4000244
1381.610923	671.4000244
1382.142339	671.4000244
1382.673699	671.0
1383.205004	669.2000122
1383.736253	671.7999878
1384.267447	671.4000244
1384.798585	673.4000244
1385.329668	672.5999756
1385.860695	671.0
1386.391666	673.0
1386.922582	673.5999756
1387.453442	673.4000244
1387.984247	685.0
1388.514996	716.7999878
1389.04569	860.0
1389.576328	889.2000122
1390.10691	725.2000122
1390.637437	681.4000244
1391.167909	678.7999878
1391.698325	675.2000122
1392.228685	674.4000244
1392.75899	667.4000244
1393.28924	672.0
1393.819434	673.2000122
1394.349572	670.2000122
1394.879655	671.5999756
1395.409683	672.2000122
1395.939655	669.5999756
1396.469571	667.2000122
1396.999432	670.2000122
1397.529237	671.2000122
1398.058987	670.0
1398.588682	671.0
1399.118321	673.7999878
1399.647905	669.7999878
1400.177433	668.2000122
1400.706906	668.7999878
1401.236323	669.4000244
1401.765685	666.7999878
1402.294991	668.5999756
1402.824242	670.7999878
1403.353437	670.2000122
1403.882577	669.2000122
1404.411662	668.7999878
1404.940691	672.0
1405.469665	669.4000244
1405.998583	668.7999878
1406.527446	673.4000244
1407.056253	672.7999878
1407.585005	668.5999756
1408.113702	671.5999756
1408.642343	672.7999878
1409.170929	671.4000244
1409.69946	676.2000122
1410.227935	686.2000122
1410.756354	688.2000122
1411.284719	679.5999756
1411.813028	674.2000122
1412.341281	673.4000244
1412.869479	671.2000122
1413.397622	671.0
1413.92571	671.2000122
1414.453742	671.2000122
1414.981718	668.0
1415.50964	679.0
1416.037506	665.7999878
1416.565316	669.2000122
1417.093072	667.0
1417.620772	670.4000244
1418.148416	667.7999878
1418.676005	671.2000122
1419.203539	669.4000244
1419.731018	668.2000122
1420.258441	670.5999756
1420.785809	670.5999756
1421.313122	672.0
1421.840379	672.4000244
1422.367582	669.2000122
1422.894728	668.2000122
1423.42182	670.4000244
1423.948856	668.7999878
1424.475837	668.4000244
1425.002762	669.2000122
1425.529633	669.5999756
1426.056448	668.7999878
1426.583207	668.2000122
1427.109912	671.5999756
1427.636561	670.2000122
1428.163155	669.0
1428.689694	668.5999756
1429.216177	670.5999756
1429.742605	670.7999878
1430.268978	671.4000244
1430.795296	671.7999878
1431.321558	668.5999756
1431.847765	668.0
1432.373917	673.0
1432.900014	671.5999756
1433.426056	668.0
1433.952042	670.5999756
1434.477973	669.2000122
1435.003849	669.4000244
1435.529669	670.5999756
1436.055435	665.7999878
1436.581145	670.0
1437.1068	668.2000122
1437.632399	667.7999878
1438.157944	670.0
1438.683433	668.4000244
1439.208868	667.7999878
1439.734247	669.5999756
1440.25957	669.0
1440.784839	669.7999878
1441.310053	670.5999756
1441.835211	669.7999878
1442.360314	666.7999878
1442.885362	667.0
1443.410355	673.0
1443.935292	667.0
1444.460175	669.0
1444.985002	668.7999878
1445.509774	669.5999756
1446.034491	668.2000122
1446.559153	670.2000122
1447.08376	667.7999878
1447.608312	669.5999756
1448.132808	669.4000244
1448.65725	668.4000244
1449.181636	669.4000244
1449.705967	668.7999878
1450.230243	669.2000122
1450.754464	670.5999756
1451.27863	669.0
1451.802741	669.2000122
1452.326797	666.7999878
1452.850797	669.0
1453.374743	667.4000244
1453.898633	670.4000244
1454.422468	668.7999878
1454.946249	667.7999878
1455.469974	671.2000122
1455.993644	667.4000244
1456.517259	668.5999756
1457.040819	668.5999756
1457.564324	670.4000244
1458.087773	668.2000122
1458.611168	672.0
1459.134508	669.0
1459.657793	668.4000244
1460.181022	669.2000122
1460.704197	668.5999756
1461.227316	669.4000244
1461.750381	670.2000122
1462.27339	668.5999756
1462.796345	670.2000122
1463.319244	671.5999756
1463.842089	670.2000122
1464.364878	670.0
1464.887613	670.4000244
1465.410292	669.2000122
1465.932916	668.0
1466.455486	667.4000244
1466.978	669.4000244
1467.50046	670.0
1468.022864	670.2000122
1468.545214	667.5999756
1469.067508	669.0
1469.589748	673.0
1470.111932	670.7999878
1470.634062	666.7999878
1471.156136	667.7999878
1471.678156	669.5999756
1472.20012	667.4000244
1472.72203	668.2000122
1473.243885	670.2000122
1473.765685	669.2000122
1474.28743	669.0
1474.80912	668.5999756
1475.330755	668.5999756
1475.852335	669.0
1476.37386	669.0
1476.89533	669.4000244
1477.416745	668.4000244
1477.938106	669.2000122
1478.459411	668.2000122
1478.980662	665.7999878
1479.501857	669.4000244
1480.022998	667.5999756
1480.544084	669.4000244
1481.065115	670.2000122
1481.586091	666.7999878
1482.107012	669.4000244
1482.627878	670.4000244
1483.14869	666.7999878
1483.669446	668.7999878
1484.190148	668.2000122
1484.710794	669.2000122
1485.231386	667.0
1485.751923	667.7999878
1486.272406	670.4000244
1486.792833	668.2000122
1487.313205	667.4000244
1487.833523	671.2000122
1488.353786	669.4000244
1488.873994	670.0
1489.394147	668.5999756
1489.914245	668.4000244
1490.434288	665.4000244
1490.954277	669.5999756
1491.474211	670.5999756
1491.99409	668.4000244
1492.513914	667.4000244
1493.033683	669.2000122
1493.553398	670.0
1494.073057	669.4000244
1494.592662	667.7999878
1495.112212	667.5999756
1495.631708	670.4000244
1496.151148	667.4000244
1496.670534	672.0
1497.189865	665.0
1497.709141	667.0
1498.228362	671.5999756
1498.747529	669.0
1499.266641	667.0
1499.785698	675.0
1500.3047	668.0
1500.823648	667.0
1501.34254	671.0
1501.861379	670.7999878
1502.380162	671.5999756
1502.89889	670.2000122
1503.417564	667.7999878
1503.936183	668.2000122
1504.454748	668.5999756
1504.973257	666.2000122
1505.491712	666.5999756
1506.010112	666.0
1506.528458	669.2000122
1507.046748	667.7999878
1507.564984	669.4000244
1508.083166	669.4000244
1508.601292	666.0
1509.119364	666.4000244
1509.637381	666.2000122
1510.155344	669.0
1510.673252	675.7999878
1511.191105	668.7999878
1511.708903	666.4000244
1512.226647	667.7999878
1512.744336	669.4000244
1513.261971	668.4000244
1513.77955	669.7999878
1514.297076	669.5999756
1514.814546	666.2000122
1515.331962	668.2000122
1515.849323	665.4000244
1516.366629	667.0
1516.883881	666.4000244
1517.401078	668.7999878
1517.918221	665.7999878
1518.435309	669.4000244
1518.952342	672.2000122
1519.469321	667.7999878
1519.986245	664.5999756
1520.503114	667.7999878
1521.019929	668.4000244
1521.536689	670.5999756
1522.053395	666.0
1522.570046	670.4000244
1523.086642	671.5999756
1523.603184	666.2000122
1524.119671	666.4000244
1524.636103	668.2000122
1525.152481	667.4000244
1525.668805	668.0
1526.185073	670.0
1526.701288	669.7999878
1527.217447	667.7999878
1527.733552	665.4000244
1528.249603	667.2000122
1528.765599	669.0
1529.28154	667.0
1529.797427	667.5999756
1530.313259	670.4000244
1530.829037	668.4000244
1531.34476	668.0
1531.860429	666.5999756
1532.376043	668.7999878
1532.891602	669.0
1533.407107	666.7999878
1533.922558	669.7999878
1534.437954	668.5999756
1534.953295	665.4000244
1535.468582	667.2000122
1535.983815	667.5999756
1536.498993	667.5999756
1537.014116	667.5999756
1537.529185	667.5999756
1538.044199	663.7999878
1538.559159	666.5999756
1539.074064	667.0
1539.588915	665.5999756
1540.103712	667.0
1540.618454	670.4000244
1541.133141	667.2000122
1541.647774	667.4000244
1542.162353	668.0
1542.676877	666.4000244
1543.191346	666.2000122
1543.705761	668.2000122
1544.220122	669.7999878
1544.734428	667.2000122
1545.24868	667.0
1545.762877	666.0
1546.27702	666.7999878
1546.791109	668.2000122
1547.305143	666.4000244
1547.819122	665.4000244
1548.333047	669.4000244
1548.846918	666.5999756
1549.360734	667.7999878
1549.874496	664.5999756
1550.388204	666.7999878
1550.901857	669.2000122
1551.415455	669.5999756
1551.929	666.0
1552.442489	667.4000244
1552.955925	665.4000244
1553.469306	667.0
1553.982632	667.5999756
1554.495905	668.4000244
1555.009123	667.5999756
1555.522286	668.4000244
1556.035395	667.7999878
1556.54845	667.7999878
1557.06145	667.0
1557.574396	668.2000122
1558.087288	668.4000244
1558.600125	669.0
1559.112908	667.0
1559.625637	665.2000122
1560.138311	667.7999878
1560.650931	667.0
1561.163497	667.0
1561.676008	670.0
1562.188465	669.5999756
1562.700867	666.0
1563.213216	668.7999878
1563.725509	665.7999878
1564.237749	668.4000244
1564.749934	667.5999756
1565.262065	667.5999756
1565.774142	667.4000244
1566.286164	668.4000244
1566.798132	666.0
1567.310046	668.4000244
1567.821906	668.2000122
1568.333711	668.4000244
1568.845462	667.2000122
1569.357158	666.7999878
1569.868801	667.2000122
1570.380389	665.2000122
1570.891922	664.4000244
1571.403402	668.5999756
1571.914827	665.4000244
1572.426198	666.7999878
1572.937515	666.4000244
1573.448777	668.7999878
1573.959985	666.5999756
1574.471139	665.7999878
1574.982239	665.4000244
1575.493285	665.5999756
1576.004276	666.0
1576.515213	667.4000244
1577.026096	666.5999756
1577.536924	667.2000122
1578.047698	665.4000244
1578.558419	667.0
1579.069084	667.7999878
1579.579696	666.5999756
1580.090254	670.7999878
1580.600757	667.2000122
1581.111206	666.2000122
1581.621601	668.2000122
1582.131941	665.2000122
1582.642228	665.4000244
1583.15246	667.2000122
1583.662638	666.4000244
1584.172762	668.5999756
1584.682832	668.0
1585.192847	667.2000122
1585.702809	668.5999756
1586.212716	669.7999878
1586.722569	667.2000122
1587.232368	666.0
1587.742113	665.4000244
1588.251803	667.2000122
1588.76144	668.2000122
1589.271022	668.4000244
1589.78055	668.2000122
1590.290024	665.2000122
1590.799444	669.5999756
1591.30881	663.0
1591.818121	668.2000122
1592.327379	666.7999878
