1042.414189	704.7999878
1042.980685	707.5999756
1043.547124	709.5999756
1044.113505	704.7999878
1044.679828	705.4000244
1046.378449	709.5999756
1046.94454	702.4000244
1047.510573	708.4000244
1048.076548	700.2000122
1048.642465	705.0
1049.208325	705.0
1049.774126	706.4000244
1050.339869	701.2000122
1050.905555	702.2000122
1051.471183	700.0
1052.036752	698.5999756
1052.602264	703.4000244
1053.167718	703.5999756
1053.733114	702.5999756
1054.298452	698.2000122
1054.863733	699.5999756
1055.428955	699.4000244
1055.994119	699.5999756
1056.559226	697.4000244
1057.124275	698.5999756
1057.689266	697.7999878
1058.254199	698.5999756
1058.819074	697.5999756
1059.383891	701.2000122
1059.94865	699.5999756
1060.513352	693.4000244
1061.077996	696.4000244
1061.642582	701.4000244
1062.20711	696.2000122
1062.77158	701.4000244
1063.335992	699.2000122
1063.900347	698.2000122
1064.464643	699.2000122
1065.028882	698.4000244
1065.593063	695.0
1066.157187	702.2000122
1066.721252	697.5999756
1067.28526	700.2000122
1067.84921	700.0
1068.413102	698.0
1068.976936	696.4000244
1069.540713	697.0
1070.104431	704.0
1070.668092	697.4000244
1071.231696	699.2000122
1071.795241	698.2000122
1072.358729	699.0
1072.922159	696.0
1073.485531	698.0
1074.048845	697.4000244
1074.612102	701.4000244
1075.175301	695.2000122
1075.738442	699.2000122
1076.301525	698.0
1076.864551	696.7999878
1077.427519	703.0
1077.990429	701.4000244
1078.553281	698.4000244
1079.116076	698.4000244
1079.678813	700.0
1080.241492	699.2000122
1080.804114	699.0
1081.366678	699.2000122
1081.929184	703.4000244
1082.491633	697.2000122
1083.054024	698.5999756
1083.616357	701.2000122
1084.178632	700.5999756
1084.74085	703.5999756
1085.30301	703.4000244
1085.865113	704.5999756
1086.427158	706.2000122
1086.989145	705.2000122
1087.551074	707.4000244
1088.112946	701.4000244
1088.67476	705.5999756
1089.236517	707.7999878
1089.798216	703.0
1090.359857	704.2000122
1090.92144	706.4000244
1091.482966	708.7999878
1092.044435	706.4000244
1092.605845	705.5999756
1093.167199	701.4000244
1093.728494	703.5999756
1094.289732	708.5999756
1094.850912	703.0
1095.412035	719.4000244
1095.9731	706.5999756
1096.534107	705.2000122
1097.095057	706.2000122
1097.65595	702.5999756
1098.216784	701.7999878
1098.777561	702.7999878
1099.338281	702.0
1099.898943	701.0
1100.459547	701.0
1101.020094	703.2000122
1101.580584	699.7999878
1102.141015	701.0
1102.701389	701.0
1103.261706	697.2000122
1103.821965	696.7999878
1104.382167	698.2000122
1104.942311	701.2000122
1105.502397	699.0
1106.062426	701.5999756
1106.622398	698.5999756
1107.182312	694.5999756
1107.742168	697.7999878
1108.301967	693.0
1108.861708	698.7999878
1109.421392	699.2000122
1109.981019	702.5999756
1110.540587	699.7999878
1111.100099	696.7999878
1111.659553	703.2000122
1112.218949	696.2000122
1112.778288	699.7999878
1113.33757	699.0
1113.896794	697.5999756
1114.45596	697.4000244
1115.015069	696.0
1115.574121	697.5999756
1116.133115	699.5999756
1116.692052	697.0
1117.250931	699.0
1117.809753	697.4000244
1118.368517	697.0
1118.927224	699.0
1119.485873	697.0
1120.044465	700.0
1120.603	696.7999878
1121.161477	701.5999756
1121.719897	701.2000122
1122.278259	694.5999756
1122.836564	698.0
1123.394812	701.4000244
1123.953002	699.2000122
1124.511135	698.2000122
1125.06921	696.0
1125.627228	694.7999878
1126.185189	696.5999756
1126.743092	700.2000122
1127.300938	697.0
1127.858726	695.7999878
1128.416457	697.7999878
1128.974131	697.7999878
1129.531748	696.4000244
1130.089307	695.7999878
1130.646808	697.7999878
1131.204252	694.2000122
1131.761639	697.5999756
1132.318969	699.7999878
1132.876241	698.2000122
1133.433456	697.4000244
1133.990614	697.2000122
1134.547714	697.0
1135.104757	698.4000244
1135.661743	698.5999756
1136.218671	701.2000122
1136.775542	699.7999878
1137.332356	698.4000244
1137.889112	698.0
1138.445811	702.7999878
1139.002453	696.4000244
1139.559037	694.2000122
1140.115565	701.4000244
1140.672035	696.7999878
1141.228447	698.2000122
1141.784803	697.2000122
1142.341101	696.5999756
1142.897342	700.4000244
1143.453525	695.5999756
1144.009651	697.7999878
1144.565721	697.2000122
1145.121732	697.5999756
1145.677687	697.4000244
1146.233584	699.5999756
1146.789424	697.2000122
1147.345207	698.2000122
1147.900933	698.5999756
1148.456601	700.4000244
1149.012212	696.5999756
1149.567766	694.0
1150.123263	698.2000122
1150.678702	698.5999756
1151.234085	699.4000244
1151.78941	696.7999878
1152.344678	699.5999756
1152.899888	694.7999878
1153.455042	696.5999756
1154.010138	695.0
1154.565177	699.7999878
1155.120159	698.0
1155.675084	697.7999878
1156.229951	699.4000244
1156.784762	696.5999756
1157.339515	697.7999878
1157.894211	702.2000122
1158.44885	698.7999878
1159.003432	695.7999878
1159.557956	702.7999878
1160.112424	699.2000122
1160.666834	697.7999878
1161.221187	697.7999878
1161.775483	699.5999756
1162.329722	697.5999756
1162.883904	698.5999756
1163.438029	696.2000122
1163.992096	700.7999878
1164.546107	698.2000122
1165.10006	699.2000122
1165.653956	701.2000122
1166.207795	698.0
1166.761577	700.7999878
1167.315302	699.5999756
1167.86897	694.5999756
1168.422581	698.5999756
1168.976134	697.7999878
1169.529631	702.2000122
1170.08307	697.5999756
1170.636453	697.7999878
1171.189778	699.2000122
1171.743046	697.0
1172.296257	697.5999756
1172.849412	700.0
1173.402509	693.4000244
1173.955549	697.0
1174.508532	700.2000122
1175.061458	699.7999878
1175.614327	699.7999878
1176.167138	698.7999878
1176.719893	701.0
1177.272591	700.7999878
1177.825232	696.4000244
1178.377816	698.5999756
1178.930342	699.2000122
1179.482812	698.0
1180.035225	696.0
1180.587581	697.4000244
1181.139879	696.7999878
1181.692121	701.7999878
1182.244306	697.2000122
1182.796434	697.7999878
1183.348504	698.7999878
1183.900518	696.0
1184.452475	698.5999756
1185.004375	699.5999756
1185.556218	699.0
1186.108004	698.5999756
1186.659733	700.4000244
1187.211405	700.0
1187.76302	700.0
1188.314578	700.7999878
1188.866079	701.5999756
1189.417523	698.2000122
1189.96891	699.5999756
1190.520241	703.0
1191.071514	697.0
1191.622731	699.5999756
1192.17389	698.5999756
1192.724993	700.2000122
1193.276039	713.0
1193.827027	700.2000122
1194.377959	699.5999756
1194.928834	698.5999756
1195.479653	697.0
1196.030414	697.7999878
1196.581118	701.2000122
1197.131766	698.7999878
1197.682356	702.0
1198.23289	700.5999756
1198.783367	699.5999756
1199.333786	697.0
1199.88415	701.7999878
1200.434456	702.4000244
1200.984705	699.4000244
1201.534898	698.4000244
1202.085033	699.4000244
1202.635112	697.5999756
1203.185134	699.0
1203.735099	699.7999878
1204.285007	697.4000244
1204.834859	698.4000244
1205.384653	700.7999878
1205.934391	697.7999878
1206.484072	699.0
1207.033696	702.2000122
1207.583263	694.7999878
1208.132774	698.0
1208.682228	698.7999878
1209.231624	701.5999756
1209.780965	699.7999878
1210.330248	699.2000122
1210.879474	703.5999756
1211.428644	700.4000244
1211.977757	700.0
1212.526813	702.5999756
1213.075813	701.0
1213.624755	697.4000244
1214.173641	698.0
1214.72247	699.7999878
1215.271242	699.7999878
1215.819958	700.5999756
1216.368617	700.5999756
1216.917219	700.0
1217.465764	701.2000122
1218.014253	697.5999756
1218.562685	697.7999878
1219.11106	697.4000244
1219.659378	701.7999878
1220.20764	698.5999756
1220.755845	696.5999756
1221.303993	696.5999756
1221.852085	699.4000244
1222.400119	697.5999756
1222.948097	697.7999878
1223.496019	699.5999756
1224.043883	701.0
1224.591691	698.0
1225.139443	702.5999756
1225.687137	698.5999756
1226.234775	698.0
1226.782357	696.0
1227.329881	700.4000244
1227.877349	700.2000122
1228.42476	700.5999756
1228.972115	699.5999756
1229.519413	703.0
1230.066654	702.4000244
1230.613839	697.0
1231.160967	700.4000244
1231.708038	703.4000244
1232.255053	699.4000244
1232.802011	702.4000244
1233.348912	699.7999878
1233.895757	699.7999878
1234.442545	699.7999878
1234.989277	701.2000122
1235.535951	700.2000122
1236.08257	703.5999756
1236.629131	699.4000244
1237.175636	700.2000122
1237.722085	704.0
1238.268477	704.7999878
1238.814812	700.5999756
1239.361091	702.5999756
1239.907313	698.2000122
1240.453478	698.0
1240.999587	702.7999878
1241.54564	703.0
1242.091636	702.5999756
1242.637575	703.0
1243.183457	704.0
1243.729284	703.4000244
1244.275053	702.4000244
1244.820766	705.0
1245.366423	700.0
1245.912022	700.0
1246.457566	700.7999878
1247.003053	704.0
1247.548483	703.4000244
1248.093857	704.4000244
1248.639174	705.4000244
1249.184435	701.5999756
1249.729639	706.2000122
1250.274787	704.0
1250.819878	700.5999756
1251.364912	699.7999878
1251.909891	700.7999878
1252.454812	704.0
1252.999677	704.4000244
1253.544486	699.0
1254.089238	705.4000244
1254.633934	700.0
1255.178573	703.2000122
1255.723156	702.7999878
1256.267682	703.7999878
1256.812152	705.4000244
1257.356565	705.5999756
1257.900922	708.2000122
1258.445223	711.0
1258.989467	710.0
1259.533654	710.0
1260.077785	720.0
1260.62186	714.7999878
1261.165878	718.7999878
1261.70984	720.7999878
1262.253745	722.2000122
1262.797594	720.4000244
1263.341386	723.5999756
1263.885123	723.5999756
1264.428802	719.4000244
1264.972425	720.5999756
1265.515992	712.0
1266.059503	708.5999756
1266.602957	711.7999878
1267.146354	710.2000122
1267.689696	711.2000122
1268.23298	711.0
1268.776209	711.7999878
1269.319381	708.0
1269.862497	708.5999756
1270.405556	707.4000244
1270.948559	712.7999878
1271.491506	705.0
1272.034396	707.4000244
1272.57723	706.0
1273.120007	709.4000244
1273.662728	708.7999878
1274.205393	709.4000244
1274.748002	710.0
1275.290554	708.7999878
1275.83305	714.0
1276.375489	714.5999756
1276.917872	710.0
1277.460199	715.2000122
1278.00247	715.7999878
1278.544684	724.0
1279.086842	723.0
1279.628943	728.7999878
1280.170989	738.4000244
1280.712978	760.0
1281.25491	802.7999878
1281.796787	896.2000122
1282.338607	1055.400024
1282.880371	1171.599976
1283.422078	1097.199951
1283.963729	925.7999878
1284.505324	820.7999878
1285.046863	772.0
1285.588345	750.0
1286.129772	734.5999756
1286.671142	722.4000244
1287.212455	720.7999878
1287.753713	720.0
1288.294914	716.5999756
1288.836059	714.4000244
1289.377147	712.7999878
1289.91818	710.7999878
1290.459156	708.7999878
1291.000076	714.7999878
1291.54094	708.7999878
1292.081747	708.7999878
1292.622499	716.0
1293.163194	702.7999878
1293.703833	707.7999878
1294.244415	707.0
1294.784942	706.4000244
1295.325412	706.2000122
1295.865826	708.2000122
1296.406184	708.4000244
1296.946486	709.4000244
1297.486731	709.0
1298.026921	711.4000244
1298.567054	706.5999756
1299.107131	705.7999878
1299.647152	708.2000122
1300.187116	705.0
1300.727025	705.2000122
1301.266877	707.2000122
1301.806673	708.2000122
1302.346413	702.5999756
1302.886097	709.2000122
1303.425725	706.4000244
1303.965297	704.4000244
1304.504812	702.7999878
1305.044272	707.2000122
1305.583675	704.7999878
1306.123022	709.4000244
1306.662313	706.2000122
1307.201548	707.2000122
1307.740727	707.7999878
1308.279849	706.0
1308.818916	701.4000244
1309.357926	703.0
1309.896881	702.4000244
1310.435779	705.0
1310.974621	701.4000244
1311.513407	705.5999756
1312.052137	703.7999878
1312.590811	703.5999756
1313.129429	703.7999878
1313.667991	703.4000244
1314.206497	706.0
1314.744946	702.5999756
1315.28334	701.0
1315.821678	704.4000244
1316.359959	701.4000244
1316.898184	706.2000122
1317.436354	702.5999756
1317.974467	702.0
1318.512525	703.7999878
1319.050526	700.0
1319.588471	702.7999878
1320.12636	703.0
1320.664194	703.0
1321.201971	703.4000244
1321.739692	702.0
1322.277357	707.7999878
1322.814967	704.5999756
1323.35252	702.7999878
1323.890017	705.2000122
1324.427458	702.4000244
1324.964843	704.7999878
1325.502173	704.2000122
1326.039446	702.2000122
1326.576663	703.4000244
1327.113824	704.7999878
1327.65093	704.4000244
1328.187979	703.5999756
1328.724972	701.4000244
1329.26191	703.5999756
1329.798791	703.0
1330.335617	704.5999756
1330.872386	704.0
1331.4091	700.7999878
1331.945758	701.4000244
1332.48236	704.5999756
1333.018905	706.7999878
1333.555395	708.0
1334.091829	703.0
1334.628207	698.4000244
1335.164529	704.7999878
1335.700796	706.0
1336.237006	702.0
1336.77316	701.7999878
1337.309259	703.0
1337.845301	705.5999756
1338.381288	699.4000244
1338.917219	699.4000244
1339.453094	703.2000122
1339.988913	701.7999878
1340.524676	702.7999878
1341.060383	702.5999756
1341.596034	707.2000122
1342.13163	700.2000122
1342.66717	704.4000244
1343.202653	705.5999756
1343.738081	698.0
1344.273453	700.7999878
1344.80877	706.4000244
1345.34403	705.5999756
1345.879235	700.0
1346.414383	706.7999878
1346.949476	700.7999878
1347.484513	705.0
1348.019494	702.7999878
1348.55442	701.4000244
1349.089289	706.0
1349.624103	708.0
1350.158861	701.7999878
1350.693563	703.4000244
1351.228209	702.4000244
1351.7628	707.7999878
1352.297334	707.0
1352.831813	703.5999756
1353.366236	705.5999756
1353.900604	702.5999756
1354.434915	706.2000122
1354.969171	704.4000244
1355.503371	707.2000122
1356.037515	703.4000244
1356.571604	705.4000244
1357.105636	703.0
1357.639613	706.0
1358.173535	703.2000122
1358.7074	702.4000244
1359.24121	702.5999756
1359.774964	706.4000244
1360.308662	703.4000244
1360.842304	702.7999878
1361.375891	702.5999756
1361.909422	707.5999756
1362.442897	704.0
1362.976317	706.4000244
1363.50968	709.5999756
1364.042989	707.4000244
1364.576241	704.5999756
1365.109438	712.0
1365.642579	709.0
1366.175664	708.2000122
1366.708693	704.2000122
1367.241667	708.5999756
1367.774585	707.7999878
1368.307448	713.4000244
1368.840255	712.5999756
1369.373006	716.0
1369.905701	724.0
1370.438341	717.4000244
1370.970925	712.0
1371.503454	705.0
1372.035926	704.0
1372.568344	704.2000122
1373.100705	703.5999756
1373.633011	706.5999756
1374.165261	707.0
1374.697456	709.5999756
1375.229595	711.0
1375.761678	710.5999756
1376.293705	712.0
1376.825677	715.0
1377.357594	707.0
1377.889455	712.5999756
1378.42126	708.7999878
1378.953009	715.7999878
1379.484703	714.0
1380.016342	714.2000122
1380.547924	718.2000122
1381.079452	716.5999756
1381.610923	717.7999878
1382.142339	722.2000122
1382.673699	726.2000122
1383.205004	734.0
1383.736253	739.5999756
1384.267447	751.2000122
1384.798585	765.2000122
1385.329668	804.4000244
1385.860695	869.0
1386.391666	1037.599976
1386.922582	1382.199951
1387.453442	1641.0
1387.984247	1410.0
1388.514996	1043.599976
1389.04569	870.4000244
1389.576328	796.0
1390.10691	762.7999878
1390.637437	748.4000244
1391.167909	734.4000244
1391.698325	733.7999878
1392.228685	726.4000244
1392.75899	721.7999878
1393.28924	721.5999756
1393.819434	716.2000122
1394.349572	715.5999756
1394.879655	716.0
1395.409683	714.2000122
1395.939655	713.2000122
1396.469571	715.0
1396.999432	711.2000122
1397.529237	711.0
1398.058987	710.4000244
1398.588682	712.0
1399.118321	715.0
1399.647905	710.4000244
1400.177433	712.7999878
1400.706906	714.4000244
1401.236323	712.2000122
1401.765685	709.5999756
1402.294991	709.7999878
1402.824242	714.7999878
1403.353437	715.0
1403.882577	711.5999756
1404.411662	713.2000122
1404.940691	715.5999756
1405.469665	715.7999878
1405.998583	718.0
1406.527446	721.2000122
1407.056253	728.4000244
1407.585005	734.5999756
1408.113702	734.7999878
1408.642343	742.2000122
1409.170929	743.4000244
1409.69946	741.4000244
1410.227935	732.2000122
1410.756354	721.0
1411.284719	718.7999878
1411.813028	709.5999756
1412.341281	712.0
1412.869479	707.2000122
1413.397622	710.2000122
1413.92571	707.7999878
1414.453742	707.0
1414.981718	707.5999756
1415.50964	716.4000244
1416.037506	703.2000122
1416.565316	705.5999756
1417.093072	702.2000122
1417.620772	703.2000122
1418.148416	702.7999878
1418.676005	705.2000122
1419.203539	703.0
1419.731018	704.0
1420.258441	703.4000244
1420.785809	705.7999878
1421.313122	701.4000244
1421.840379	700.7999878
1422.367582	700.4000244
1422.894728	704.2000122
1423.42182	702.4000244
1423.948856	700.7999878
1424.475837	706.4000244
1425.002762	704.2000122
1425.529633	701.0
1426.056448	701.5999756
1426.583207	703.5999756
1427.109912	701.4000244
1427.636561	699.5999756
1428.163155	701.2000122
1428.689694	703.4000244
1429.216177	705.5999756
1429.742605	702.4000244
1430.268978	703.0
1430.795296	702.2000122
1431.321558	701.0
1431.847765	703.0
1432.373917	703.0
1432.900014	699.4000244
1433.426056	699.4000244
1433.952042	702.7999878
1434.477973	700.4000244
1435.003849	701.4000244
1435.529669	701.7999878
1436.055435	704.5999756
1436.581145	702.5999756
1437.1068	702.4000244
1437.632399	698.7999878
1438.157944	699.4000244
1438.683433	701.4000244
1439.208868	703.7999878
1439.734247	701.5999756
1440.25957	698.4000244
1440.784839	696.5999756
1441.310053	699.7999878
1441.835211	700.2000122
1442.360314	704.5999756
1442.885362	706.2000122
1443.410355	703.2000122
1443.935292	701.4000244
1444.460175	703.2000122
1444.985002	699.5999756
1445.509774	700.0
1446.034491	701.2000122
1446.559153	696.5999756
1447.08376	699.2000122
1447.608312	699.2000122
1448.132808	700.2000122
1448.65725	695.5999756
1449.181636	699.2000122
1449.705967	697.5999756
1450.230243	699.7999878
1450.754464	700.7999878
1451.27863	701.0
1451.802741	704.7999878
1452.326797	705.2000122
1452.850797	704.4000244
1453.374743	699.7999878
1453.898633	696.2000122
1454.422468	698.5999756
1454.946249	698.0
1455.469974	705.2000122
1455.993644	697.7999878
1456.517259	701.5999756
1457.040819	699.7999878
1457.564324	699.4000244
1458.087773	702.4000244
1458.611168	703.0
1459.134508	695.7999878
1459.657793	701.0
1460.181022	699.7999878
1460.704197	698.2000122
1461.227316	701.5999756
1461.750381	697.5999756
1462.27339	702.5999756
1462.796345	722.0
1463.319244	714.7999878
1463.842089	700.2000122
1464.364878	699.2000122
1464.887613	698.0
1465.410292	697.2000122
1465.932916	702.4000244
1466.455486	696.7999878
1466.978	698.4000244
1467.50046	701.7999878
1468.022864	696.5999756
1468.545214	696.4000244
1469.067508	702.7999878
1469.589748	699.2000122
1470.111932	700.7999878
1470.634062	696.4000244
1471.156136	699.2000122
1471.678156	695.5999756
1472.20012	696.7999878
1472.72203	695.0
1473.243885	699.4000244
1473.765685	699.7999878
1474.28743	699.7999878
1474.80912	697.2000122
1475.330755	699.5999756
1475.852335	698.4000244
1476.37386	697.5999756
1476.89533	694.4000244
1477.416745	697.4000244
1477.938106	698.7999878
1478.459411	696.7999878
1478.980662	704.7999878
1479.501857	702.4000244
1480.022998	698.5999756
1480.544084	698.7999878
1481.065115	701.7999878
1481.586091	699.5999756
1482.107012	699.5999756
1482.627878	697.5999756
1483.14869	697.0
1483.669446	697.5999756
1484.190148	702.7999878
1484.710794	698.2000122
1485.231386	700.0
1485.751923	702.4000244
1486.272406	700.5999756
1486.792833	698.0
1487.313205	698.2000122
1487.833523	699.2000122
1488.353786	696.0
1488.873994	701.7999878
1489.394147	697.2000122
1489.914245	694.5999756
1490.434288	698.7999878
1490.954277	698.7999878
1491.474211	694.4000244
1491.99409	695.7999878
1492.513914	698.7999878
1493.033683	693.7999878
1493.553398	699.5999756
1494.073057	698.2000122
1494.592662	702.2000122
1495.112212	700.4000244
1495.631708	696.2000122
1496.151148	698.0
1496.670534	694.0
1497.189865	698.7999878
1497.709141	696.7999878
1498.228362	697.0
1498.747529	697.4000244
1499.266641	698.2000122
1499.785698	706.0
1500.3047	697.5999756
1500.823648	697.5999756
1501.34254	697.0
1501.861379	699.5999756
1502.380162	700.4000244
1502.89889	695.2000122
1503.417564	697.4000244
1503.936183	700.0
1504.454748	698.2000122
1504.973257	696.0
1505.491712	697.5999756
1506.010112	699.4000244
1506.528458	699.0
1507.046748	698.2000122
1507.564984	698.0
1508.083166	696.5999756
1508.601292	696.7999878
1509.119364	698.5999756
1509.637381	696.0
1510.155344	697.0
1510.673252	700.7999878
1511.191105	697.0
1511.708903	696.2000122
1512.226647	699.2000122
1512.744336	700.4000244
1513.261971	697.4000244
1513.77955	699.2000122
1514.297076	696.0
1514.814546	698.0
1515.331962	701.0
1515.849323	700.4000244
1516.366629	701.2000122
1516.883881	697.5999756
1517.401078	694.0
1517.918221	696.2000122
1518.435309	697.0
1518.952342	699.4000244
1519.469321	701.4000244
1519.986245	695.5999756
1520.503114	696.2000122
1521.019929	700.4000244
1521.536689	697.7999878
1522.053395	696.5999756
1522.570046	701.5999756
1523.086642	699.2000122
1523.603184	696.4000244
1524.119671	697.5999756
1524.636103	695.0
1525.152481	703.4000244
1525.668805	711.2000122
1526.185073	707.2000122
1526.701288	705.0
1527.217447	696.2000122
1527.733552	697.4000244
1528.249603	698.4000244
1528.765599	696.7999878
1529.28154	697.0
1529.797427	696.0
1530.313259	693.4000244
1530.829037	697.4000244
1531.34476	693.7999878
1531.860429	699.2000122
1532.376043	699.7999878
1532.891602	701.0
1533.407107	694.5999756
1533.922558	699.5999756
1534.437954	700.0
1534.953295	699.7999878
1535.468582	698.7999878
1535.983815	699.2000122
1536.498993	691.5999756
1537.014116	696.2000122
1537.529185	700.0
1538.044199	698.2000122
1538.559159	696.5999756
1539.074064	699.2000122
1539.588915	696.0
1540.103712	700.2000122
1540.618454	698.0
1541.133141	699.4000244
1541.647774	696.2000122
1542.162353	696.5999756
1542.676877	697.2000122
1543.191346	700.5999756
1543.705761	696.5999756
1544.220122	696.2000122
1544.734428	699.4000244
1545.24868	698.2000122
1545.762877	695.2000122
1546.27702	696.4000244
1546.791109	695.4000244
1547.305143	697.0
1547.819122	696.7999878
1548.333047	696.2000122
1548.846918	699.5999756
1549.360734	698.7999878
1549.874496	701.5999756
1550.388204	696.0
1550.901857	700.5999756
1551.415455	695.5999756
1551.929	697.2000122
1552.442489	698.4000244
1552.955925	699.0
1553.469306	700.2000122
1553.982632	701.2000122
1554.495905	696.4000244
1555.009123	694.4000244
1555.522286	699.2000122
1556.035395	697.0
1556.54845	696.2000122
1557.06145	695.7999878
1557.574396	695.2000122
1558.087288	697.0
1558.600125	702.5999756
1559.112908	697.4000244
1559.625637	698.0
1560.138311	698.5999756
1560.650931	695.7999878
1561.163497	695.5999756
1561.676008	700.5999756
1562.188465	698.2000122
1562.700867	701.0
1563.213216	696.7999878
1563.725509	695.7999878
1564.237749	699.7999878
1564.749934	698.0
1565.262065	699.7999878
1565.774142	699.2000122
1566.286164	698.5999756
1566.798132	697.5999756
1567.310046	699.2000122
1567.821906	698.2000122
1568.333711	698.5999756
1568.845462	697.0
1569.357158	702.4000244
1569.868801	696.7999878
1570.380389	700.2000122
1570.891922	696.4000244
1571.403402	693.2000122
1571.914827	703.2000122
1572.426198	692.2000122
1572.937515	697.5999756
1573.448777	698.0
1573.959985	695.4000244
1574.471139	701.7999878
1574.982239	697.0
1575.493285	698.4000244
1576.004276	702.2000122
1576.515213	701.4000244
1577.026096	697.7999878
1577.536924	698.5999756
1578.047698	700.4000244
1578.558419	697.0
1579.069084	698.5999756
1579.579696	698.2000122
1580.090254	698.4000244
1580.600757	699.0
1581.111206	694.5999756
1581.621601	699.7999878
1582.131941	702.7999878
1582.642228	699.7999878
1583.15246	700.0
1583.662638	700.5999756
1584.172762	698.5999756
1584.682832	700.4000244
1585.192847	699.7999878
1585.702809	699.5999756
1586.212716	699.5999756
1586.722569	697.2000122
1587.232368	696.5999756
1587.742113	695.5999756
1588.251803	699.4000244
1588.76144	699.2000122
1589.271022	699.5999756
1589.78055	696.4000244
1590.290024	697.2000122
1590.799444	696.0
1591.30881	698.2000122
1591.818121	696.2000122
1592.327379	697.2000122
