1042.414189	691.0
1042.980685	689.25
1043.547124	688.25
1044.113505	691.5
1044.679828	692.5
1045.246093	688.5
1045.8123	688.25
1046.378449	688.75
1046.94454	688.75
1047.510573	689.25
1048.076548	689.25
1048.642465	687.75
1049.208325	686.25
1049.774126	684.5
1050.339869	687.25
1050.905555	687.0
1051.471183	686.0
1052.036752	685.25
1052.602264	682.5
1053.167718	685.0
1053.733114	683.0
1054.298452	682.5
1054.863733	682.5
1055.428955	685.25
1055.994119	682.5
1056.559226	687.25
1057.124275	686.0
1057.689266	680.75
1058.254199	682.0
1058.819074	683.0
1059.383891	680.5
1059.94865	679.75
1060.513352	684.5
1061.077996	683.75
1061.642582	679.0
1062.20711	683.75
1062.77158	681.5
1063.335992	681.25
1063.900347	683.0
1064.464643	680.5
1065.028882	682.0
1065.593063	681.75
1066.157187	679.25
1066.721252	683.5
1067.28526	682.0
1067.84921	678.25
1068.413102	680.0
1068.976936	683.0
1069.540713	680.0
1070.104431	688.5
1070.668092	681.25
1071.231696	683.0
1071.795241	682.5
1072.358729	679.75
1072.922159	682.5
1073.485531	678.0
1074.048845	679.75
1074.612102	679.0
1075.175301	679.0
1075.738442	679.5
1076.301525	682.5
1076.864551	677.25
1077.427519	679.25
1077.990429	679.25
1078.553281	678.25
1079.116076	683.0
1079.678813	674.75
1080.241492	676.25
1080.804114	678.75
1081.366678	678.5
1081.929184	677.5
1082.491633	682.75
1083.054024	679.0
1083.616357	680.5
1084.178632	678.75
1084.74085	678.0
1085.30301	679.25
1085.865113	681.75
1086.427158	681.25
1086.989145	682.25
1087.551074	679.75
1088.112946	677.0
1088.67476	680.0
1089.236517	678.75
1089.798216	678.25
1090.359857	677.5
1090.92144	678.25
1091.482966	680.0
1092.044435	682.5
1092.605845	679.25
1093.167199	679.25
1093.728494	683.0
1094.289732	677.25
1094.850912	678.5
1095.412035	694.0
1095.9731	682.75
1096.534107	678.5
1097.095057	686.5
1097.65595	680.0
1098.216784	678.5
1098.777561	681.5
1099.338281	678.0
1099.898943	680.0
1100.459547	682.75
1101.020094	682.25
1101.580584	677.0
1102.141015	677.75
1102.701389	678.0
1103.261706	676.75
1103.821965	679.25
1104.382167	674.75
1104.942311	679.25
1105.502397	678.75
1106.062426	680.75
1106.622398	677.75
1107.182312	675.5
1107.742168	678.25
1108.301967	677.75
1108.861708	679.0
1109.421392	682.75
1109.981019	679.25
1110.540587	678.0
1111.100099	678.75
1111.659553	680.25
1112.218949	677.25
1112.778288	678.75
1113.33757	677.5
1113.896794	682.5
1114.45596	680.5
1115.015069	679.0
1115.574121	678.75
1116.133115	677.0
1116.692052	678.5
1117.250931	678.25
1117.809753	681.5
1118.368517	679.75
1118.927224	674.25
1119.485873	680.25
1120.044465	679.25
1120.603	680.75
1121.161477	677.0
1121.719897	680.0
1122.278259	680.5
1122.836564	677.5
1123.394812	678.25
1123.953002	678.5
1124.511135	678.75
1125.06921	679.5
1125.627228	678.25
1126.185189	679.0
1126.743092	680.0
1127.300938	677.25
1127.858726	676.0
1128.416457	678.25
1128.974131	680.75
1129.531748	676.25
1130.089307	677.25
1130.646808	683.5
1131.204252	675.25
1131.761639	680.5
1132.318969	680.25
1132.876241	678.25
1133.433456	679.75
1133.990614	677.75
1134.547714	679.25
1135.104757	675.5
1135.661743	680.25
1136.218671	677.75
1136.775542	682.25
1137.332356	678.5
1137.889112	678.25
1138.445811	681.25
1139.002453	683.0
1139.559037	679.5
1140.115565	675.5
1140.672035	681.5
1141.228447	676.5
1141.784803	677.0
1142.341101	681.0
1142.897342	679.0
1143.453525	680.75
1144.009651	680.75
1144.565721	682.5
1145.121732	679.25
1145.677687	679.75
1146.233584	680.0
1146.789424	680.25
1147.345207	681.25
1147.900933	679.5
1148.456601	682.5
1149.012212	682.75
1149.567766	681.5
1150.123263	687.75
1150.678702	700.75
1151.234085	707.5
1151.78941	688.25
1152.344678	681.5
1152.899888	678.75
1153.455042	679.75
1154.010138	680.25
1154.565177	683.0
1155.120159	680.75
1155.675084	680.25
1156.229951	682.25
1156.784762	680.25
1157.339515	682.25
1157.894211	679.75
1158.44885	677.5
1159.003432	678.5
1159.557956	680.25
1160.112424	678.75
1160.666834	678.75
1161.221187	676.75
1161.775483	679.25
1162.329722	681.0
1162.883904	679.5
1163.438029	682.0
1163.992096	677.25
1164.546107	679.25
1165.10006	679.5
1165.653956	676.75
1166.207795	679.25
1166.761577	678.75
1167.315302	679.5
1167.86897	676.75
1168.422581	678.0
1168.976134	679.25
1169.529631	679.75
1170.08307	675.0
1170.636453	676.5
1171.189778	674.75
1171.743046	679.5
1172.296257	676.75
1172.849412	680.75
1173.402509	678.0
1173.955549	676.5
1174.508532	680.75
1175.061458	678.0
1175.614327	676.75
1176.167138	679.0
1176.719893	674.5
1177.272591	678.75
1177.825232	677.5
1178.377816	677.0
1178.930342	677.0
1179.482812	678.75
1180.035225	680.25
1180.587581	678.0
1181.139879	675.25
1181.692121	674.75
1182.244306	680.0
1182.796434	678.0
1183.348504	678.25
1183.900518	677.0
1184.452475	679.25
1185.004375	676.0
1185.556218	680.0
1186.108004	676.0
1186.659733	674.0
1187.211405	677.0
1187.76302	675.75
1188.314578	674.0
1188.866079	679.0
1189.417523	675.25
1189.96891	678.25
1190.520241	675.25
1191.071514	677.75
1191.622731	682.0
1192.17389	678.0
1192.724993	679.75
1193.276039	700.5
1193.827027	679.0
1194.377959	680.5
1194.928834	677.25
1195.479653	678.25
1196.030414	677.75
1196.581118	678.75
1197.131766	676.25
1197.682356	675.0
1198.23289	677.5
1198.783367	677.0
1199.333786	676.0
1199.88415	679.75
1200.434456	679.25
1200.984705	678.5
1201.534898	675.0
1202.085033	677.5
1202.635112	675.5
1203.185134	678.75
1203.735099	676.25
1204.285007	676.5
1204.834859	676.25
1205.384653	676.25
1205.934391	675.25
1206.484072	679.25
1207.033696	677.75
1207.583263	678.25
1208.132774	679.25
1208.682228	678.0
1209.231624	676.75
1209.780965	674.0
1210.330248	679.25
1210.879474	679.75
1211.428644	677.5
1211.977757	677.0
1212.526813	679.75
1213.075813	679.25
1213.624755	675.5
1214.173641	679.0
1214.72247	682.0
1215.271242	676.75
1215.819958	678.5
1216.368617	676.5
1216.917219	679.75
1217.465764	678.0
1218.014253	678.5
1218.562685	677.0
1219.11106	677.5
1219.659378	675.25
1220.20764	679.0
1220.755845	678.0
1221.303993	677.5
1221.852085	679.25
1222.400119	676.0
1222.948097	679.0
1223.496019	678.0
1224.043883	680.0
1224.591691	677.25
1225.139443	676.25
1225.687137	679.75
1226.234775	680.75
1226.782357	680.75
1227.329881	677.25
1227.877349	678.25
1228.42476	676.75
1228.972115	678.25
1229.519413	676.5
1230.066654	678.25
1230.613839	675.75
1231.160967	676.5
1231.708038	682.25
1232.255053	678.75
1232.802011	678.5
1233.348912	678.75
1233.895757	677.25
1234.442545	680.5
1234.989277	674.0
1235.535951	676.75
1236.08257	679.25
1236.629131	682.5
1237.175636	676.0
1237.722085	679.25
1238.268477	679.75
1238.814812	681.5
1239.361091	678.5
1239.907313	676.5
1240.453478	680.0
1240.999587	678.5
1241.54564	676.0
1242.091636	680.75
1242.637575	678.25
1243.183457	677.5
1243.729284	678.0
1244.275053	680.25
1244.820766	680.5
1245.366423	678.75
1245.912022	682.0
1246.457566	683.5
1247.003053	679.75
1247.548483	676.75
1248.093857	677.0
1248.639174	683.75
1249.184435	684.25
1249.729639	678.5
1250.274787	677.75
1250.819878	680.25
1251.364912	680.25
1251.909891	678.75
1252.454812	677.75
1252.999677	678.25
1253.544486	681.25
1254.089238	678.0
1254.633934	678.0
1255.178573	681.75
1255.723156	679.0
1256.267682	681.75
1256.812152	681.5
1257.356565	681.5
1257.900922	679.75
1258.445223	678.75
1258.989467	679.0
1259.533654	681.5
1260.077785	694.75
1260.62186	682.75
1261.165878	683.75
1261.70984	683.75
1262.253745	682.75
1262.797594	687.75
1263.341386	690.25
1263.885123	692.75
1264.428802	698.75
1264.972425	718.75
1265.515992	728.25
1266.059503	715.75
1266.602957	700.25
1267.146354	688.25
1267.689696	687.0
1268.23298	682.25
1268.776209	678.75
1269.319381	679.75
1269.862497	679.25
1270.405556	678.5
1270.948559	680.0
1271.491506	680.75
1272.034396	683.25
1272.57723	682.0
1273.120007	679.75
1273.662728	681.0
1274.205393	678.5
1274.748002	679.75
1275.290554	680.5
1275.83305	682.25
1276.375489	678.25
1276.917872	681.0
1277.460199	680.5
1278.00247	677.75
1278.544684	681.75
1279.086842	680.0
1279.628943	684.0
1280.170989	689.0
1280.712978	683.5
1281.25491	683.5
1281.796787	687.5
1282.338607	689.25
1282.880371	697.5
1283.422078	709.75
1283.963729	739.0
1284.505324	817.5
1285.046863	1061.0
1285.588345	1389.5
1286.129772	1206.0
1286.671142	847.5
1287.212455	739.25
1287.753713	707.5
1288.294914	694.25
1288.836059	692.0
1289.377147	686.75
1289.91818	683.75
1290.459156	685.5
1291.000076	682.25
1291.54094	680.75
1292.081747	682.25
1292.622499	684.5
1293.163194	686.5
1293.703833	684.0
1294.244415	679.25
1294.784942	680.75
1295.325412	682.0
1295.865826	681.5
1296.406184	680.5
1296.946486	678.25
1297.486731	678.75
1298.026921	677.0
1298.567054	682.75
1299.107131	677.25
1299.647152	678.25
1300.187116	679.0
1300.727025	679.75
1301.266877	679.5
1301.806673	679.75
1302.346413	677.0
1302.886097	679.25
1303.425725	679.5
1303.965297	679.25
1304.504812	683.0
1305.044272	677.25
1305.583675	682.5
1306.123022	678.0
1306.662313	677.5
1307.201548	680.75
1307.740727	680.75
1308.279849	676.25
1308.818916	680.75
1309.357926	677.75
1309.896881	679.0
1310.435779	681.0
1310.974621	674.25
1311.513407	675.0
1312.052137	677.75
1312.590811	678.25
1313.129429	678.0
1313.667991	675.5
1314.206497	678.0
1314.744946	679.25
1315.28334	676.0
1315.821678	681.25
1316.359959	677.0
1316.898184	680.5
1317.436354	675.5
1317.974467	678.0
1318.512525	677.0
1319.050526	677.25
1319.588471	677.75
1320.12636	676.5
1320.664194	677.75
1321.201971	679.0
1321.739692	673.75
1322.277357	677.25
1322.814967	680.0
1323.35252	678.5
1323.890017	684.75
1324.427458	677.75
1324.964843	679.0
1325.502173	680.0
1326.039446	680.0
1326.576663	681.0
1327.113824	678.25
1327.65093	678.75
1328.187979	677.75
1328.724972	680.25
1329.26191	679.0
1329.798791	677.5
1330.335617	676.5
1330.872386	674.0
1331.4091	680.5
1331.945758	676.25
1332.48236	676.75
1333.018905	676.5
1333.555395	675.25
1334.091829	679.0
1334.628207	677.25
1335.164529	675.75
1335.700796	676.5
1336.237006	677.75
1336.77316	678.75
1337.309259	681.25
1337.845301	677.0
1338.381288	679.0
1338.917219	679.5
1339.453094	677.0
1339.988913	677.5
1340.524676	679.0
1341.060383	676.75
1341.596034	679.25
1342.13163	677.0
1342.66717	676.5
1343.202653	676.0
1343.738081	678.5
1344.273453	682.25
1344.80877	681.0
1345.34403	676.0
1345.879235	675.5
1346.414383	680.0
1346.949476	677.25
1347.484513	678.5
1348.019494	678.25
1348.55442	677.0
1349.089289	680.25
1349.624103	679.0
1350.158861	679.5
1350.693563	680.5
1351.228209	679.0
1351.7628	680.75
1352.297334	676.0
1352.831813	679.0
1353.366236	678.25
1353.900604	678.0
1354.434915	676.75
1354.969171	676.25
1355.503371	678.75
1356.037515	676.0
1356.571604	678.25
1357.105636	681.0
1357.639613	681.25
1358.173535	674.75
1358.7074	681.75
1359.24121	680.75
1359.774964	678.25
1360.308662	680.0
1360.842304	680.5
1361.375891	676.75
1361.909422	679.25
1362.442897	680.25
1362.976317	679.75
1363.50968	679.5
1364.042989	681.25
1364.576241	680.75
1365.109438	681.5
1365.642579	683.0
1366.175664	681.25
1366.708693	684.75
1367.241667	682.0
1367.774585	682.5
1368.307448	682.75
1368.840255	678.75
1369.373006	682.0
1369.905701	682.5
1370.438341	694.5
1370.970925	703.0
1371.503454	683.5
1372.035926	682.5
1372.568344	680.5
1373.100705	681.25
1373.633011	680.5
1374.165261	681.25
1374.697456	681.75
1375.229595	679.25
1375.761678	681.75
1376.293705	680.5
1376.825677	682.5
1377.357594	682.5
1377.889455	684.25
1378.42126	678.25
1378.953009	679.0
1379.484703	682.5
1380.016342	679.75
1380.547924	681.5
1381.079452	685.25
1381.610923	686.25
1382.142339	683.5
1382.673699	686.25
1383.205004	685.0
1383.736253	685.5
1384.267447	689.25
1384.798585	684.25
1385.329668	691.0
1385.860695	700.5
1386.391666	704.25
1386.922582	721.5
1387.453442	754.75
1387.984247	882.5
1388.514996	1398.75
1389.04569	1946.75
1389.576328	1301.25
1390.10691	841.75
1390.637437	740.75
1391.167909	709.0
1391.698325	699.75
1392.228685	695.25
1392.75899	689.5
1393.28924	686.0
1393.819434	687.75
1394.349572	686.5
1394.879655	685.5
1395.409683	683.25
1395.939655	681.25
1396.469571	684.0
1396.999432	683.75
1397.529237	680.0
1398.058987	680.5
1398.588682	683.25
1399.118321	678.75
1399.647905	681.0
1400.177433	679.25
1400.706906	675.0
1401.236323	680.25
1401.765685	678.75
1402.294991	682.5
1402.824242	679.75
1403.353437	680.5
1403.882577	678.25
1404.411662	680.0
1404.940691	682.5
1405.469665	685.75
1405.998583	680.25
1406.527446	678.75
1407.056253	684.25
1407.585005	684.75
1408.113702	687.75
1408.642343	691.75
1409.170929	705.25
1409.69946	735.75
1410.227935	776.5
1410.756354	757.25
1411.284719	711.5
1411.813028	692.25
1412.341281	681.25
1412.869479	680.75
1413.397622	682.25
1413.92571	679.25
1414.453742	684.5
1414.981718	681.0
1415.50964	691.75
1416.037506	681.5
1416.565316	681.5
1417.093072	679.75
1417.620772	677.25
1418.148416	677.25
1418.676005	680.5
1419.203539	678.0
1419.731018	678.25
1420.258441	680.5
1420.785809	679.25
1421.313122	675.5
1421.840379	678.75
1422.367582	676.75
1422.894728	679.5
1423.42182	677.75
1423.948856	678.75
1424.475837	678.0
1425.002762	676.0
1425.529633	678.25
1426.056448	681.5
1426.583207	681.25
1427.109912	682.5
1427.636561	679.25
1428.163155	676.75
1428.689694	681.25
1429.216177	677.25
1429.742605	677.5
1430.268978	676.75
1430.795296	677.5
1431.321558	676.75
1431.847765	672.5
1432.373917	674.0
1432.900014	678.25
1433.426056	680.0
1433.952042	675.5
1434.477973	675.0
1435.003849	676.5
1435.529669	677.0
1436.055435	677.25
1436.581145	676.75
1437.1068	678.25
1437.632399	674.25
1438.157944	676.25
1438.683433	673.75
1439.208868	672.5
1439.734247	673.5
1440.25957	676.25
1440.784839	676.25
1441.310053	672.25
1441.835211	672.25
1442.360314	675.25
1442.885362	672.0
1443.410355	674.25
1443.935292	669.25
1444.460175	675.0
1444.985002	676.0
1445.509774	677.25
1446.034491	675.0
1446.559153	674.0
1447.08376	672.75
1447.608312	674.75
1448.132808	675.0
1448.65725	675.0
1449.181636	673.25
1449.705967	674.25
1450.230243	678.25
1450.754464	676.5
1451.27863	675.25
1451.802741	678.75
1452.326797	674.0
1452.850797	672.0
1453.374743	673.25
1453.898633	673.25
1454.422468	678.75
1454.946249	672.0
1455.469974	669.75
1455.993644	674.5
1456.517259	671.5
1457.040819	675.75
1457.564324	673.0
1458.087773	673.0
1458.611168	674.0
1459.134508	672.75
1459.657793	673.5
1460.181022	674.25
1460.704197	673.25
1461.227316	675.5
1461.750381	678.25
1462.27339	674.25
1462.796345	682.25
1463.319244	680.25
1463.842089	673.0
1464.364878	673.75
1464.887613	670.0
1465.410292	675.0
1465.932916	674.0
1466.455486	673.75
1466.978	674.25
1467.50046	673.25
1468.022864	670.25
1468.545214	673.75
1469.067508	670.0
1469.589748	673.25
1470.111932	673.5
1470.634062	672.25
1471.156136	673.0
1471.678156	674.0
1472.20012	675.25
1472.72203	673.25
1473.243885	672.25
1473.765685	672.75
1474.28743	687.25
1475.330755	672.5
1475.852335	671.5
1476.37386	673.75
1476.89533	674.0
1477.416745	671.75
1477.938106	677.75
1478.459411	676.0
1478.980662	673.75
1479.501857	673.25
1480.022998	671.0
1480.544084	669.75
1481.065115	669.5
1481.586091	671.75
1482.107012	672.25
1482.627878	671.75
1483.14869	669.75
1483.669446	670.5
1484.190148	670.5
1484.710794	673.5
1485.231386	674.75
1485.751923	669.25
1486.272406	673.75
1486.792833	675.25
1487.313205	672.75
1487.833523	672.5
1488.353786	672.25
1488.873994	674.25
1489.394147	673.25
1489.914245	669.25
1490.434288	671.25
1490.954277	671.75
1491.474211	674.0
1491.99409	676.25
1492.513914	670.5
1493.033683	673.25
1493.553398	669.75
1494.073057	669.25
1494.592662	672.75
1495.112212	672.5
1495.631708	671.5
1496.151148	671.25
1496.670534	671.0
1497.189865	676.25
1497.709141	671.25
1498.228362	670.25
1498.747529	672.0
1499.266641	672.25
1499.785698	682.25
1500.3047	672.25
1500.823648	669.0
1501.34254	672.0
1501.861379	673.5
1502.380162	672.75
1502.89889	671.5
1503.417564	674.75
1503.936183	674.0
1504.454748	673.5
1504.973257	671.75
1505.491712	669.75
1506.010112	673.75
1506.528458	669.5
1507.046748	671.75
1507.564984	672.25
1508.083166	672.25
1508.601292	671.0
1509.119364	671.5
1509.637381	670.25
1510.155344	671.0
1510.673252	679.0
1511.191105	674.25
1511.708903	669.5
1512.226647	672.25
1512.744336	672.0
1513.261971	671.25
1513.77955	668.75
1514.297076	671.25
1514.814546	668.5
1515.331962	668.5
1515.849323	672.75
1516.366629	672.25
1516.883881	672.0
1517.401078	673.25
1517.918221	670.5
1518.435309	674.25
1518.952342	669.5
1519.469321	673.5
1519.986245	670.25
1520.503114	672.5
1521.019929	670.5
1521.536689	671.5
1522.053395	670.5
1522.570046	667.5
1523.086642	673.75
1523.603184	671.5
1524.119671	671.0
1524.636103	673.0
1525.152481	671.0
1525.668805	680.5
1526.185073	676.5
1526.701288	673.5
1527.217447	672.5
1527.733552	672.25
1528.249603	671.5
1528.765599	672.25
1529.28154	670.25
1529.797427	670.25
1530.313259	673.5
1530.829037	674.0
1531.34476	672.75
1531.860429	670.5
1532.376043	670.5
1532.891602	668.5
1533.407107	670.0
1533.922558	671.0
1534.437954	673.5
1534.953295	670.75
1535.468582	671.25
1535.983815	673.0
1536.498993	671.0
1537.014116	672.0
1537.529185	671.5
1538.044199	673.25
1538.559159	674.25
1539.074064	668.75
1539.588915	671.5
1540.103712	672.0
1540.618454	670.0
1541.133141	671.5
1541.647774	671.75
1542.162353	670.0
1542.676877	673.0
1543.191346	671.0
1543.705761	671.75
1544.220122	668.25
1544.734428	671.0
1545.24868	673.25
1545.762877	671.75
1546.27702	671.25
1546.791109	670.25
1547.305143	672.25
1547.819122	671.0
1548.333047	669.75
1548.846918	672.5
1549.360734	671.75
1549.874496	670.25
1550.388204	674.0
1550.901857	670.0
1551.415455	671.5
1551.929	673.5
1552.442489	671.0
1552.955925	668.75
1553.469306	669.75
1553.982632	673.0
1554.495905	669.75
1555.009123	670.5
1555.522286	673.25
1556.035395	667.25
1556.54845	670.5
1557.06145	675.5
1557.574396	673.0
1558.087288	671.5
1558.600125	671.5
1559.112908	672.0
1559.625637	670.0
1560.138311	670.25
1560.650931	668.75
1561.163497	672.0
1561.676008	670.5
1562.188465	671.75
1562.700867	672.25
1563.213216	669.0
1563.725509	671.75
1564.237749	672.0
1564.749934	673.0
1565.262065	671.25
1565.774142	671.25
1566.286164	673.0
1566.798132	671.25
1567.310046	673.5
1567.821906	669.0
1568.333711	670.75
1568.845462	666.25
1569.357158	670.5
1569.868801	670.0
1570.380389	673.75
1570.891922	672.5
1571.403402	672.0
1571.914827	671.75
1572.426198	670.25
1572.937515	671.5
1573.448777	672.0
1573.959985	671.0
1574.471139	668.0
1574.982239	670.75
1575.493285	668.5
1576.004276	674.25
1576.515213	671.25
1577.026096	667.25
1577.536924	669.5
1578.047698	673.0
1578.558419	672.5
1579.069084	670.5
1579.579696	671.5
1580.090254	668.75
1580.600757	672.5
1581.111206	671.0
1581.621601	669.5
1582.131941	672.5
1582.642228	670.0
1583.15246	668.0
1583.662638	670.25
1584.172762	670.5
1584.682832	672.5
1585.192847	671.75
1585.702809	670.5
1586.212716	673.25
1586.722569	670.5
1587.232368	670.75
1587.742113	668.5
1588.251803	672.5
1588.76144	670.25
1589.271022	669.0
1589.78055	669.5
1590.290024	670.0
1590.799444	669.25
1591.30881	669.5
1591.818121	671.5
1592.327379	670.75
