1042.414189	691.25
1042.980685	689.25
1043.547124	689.75
1044.113505	686.5
1044.679828	689.25
1045.246093	689.0
1045.8123	686.0
1046.378449	685.5
1046.94454	684.0
1047.510573	686.0
1048.076548	684.5
1048.642465	679.25
1049.208325	684.75
1049.774126	686.5
1050.339869	683.5
1050.905555	682.0
1051.471183	680.0
1052.036752	680.75
1052.602264	681.5
1053.167718	683.0
1053.733114	682.0
1054.298452	682.5
1054.863733	681.25
1055.428955	681.5
1055.994119	682.25
1056.559226	680.5
1057.124275	680.5
1057.689266	680.0
1058.254199	680.0
1058.819074	678.75
1059.383891	677.75
1059.94865	681.75
1060.513352	677.25
1061.077996	678.75
1061.642582	679.0
1062.20711	679.25
1062.77158	679.75
1063.335992	678.0
1063.900347	679.5
1064.464643	679.25
1065.028882	679.0
1065.593063	681.0
1066.157187	679.25
1066.721252	678.25
1067.28526	678.75
1067.84921	679.5
1068.413102	679.0
1068.976936	681.25
1069.540713	679.0
1070.104431	685.75
1070.668092	681.25
1071.231696	677.25
1071.795241	681.0
1072.358729	677.75
1072.922159	680.5
1073.485531	682.25
1074.048845	676.5
1074.612102	678.25
1075.175301	681.5
1075.738442	680.0
1076.301525	678.0
1076.864551	684.25
1077.427519	680.25
1077.990429	680.25
1078.553281	677.5
1079.116076	679.0
1079.678813	680.5
1080.241492	680.25
1080.804114	675.0
1081.366678	680.0
1081.929184	680.25
1082.491633	681.75
1083.054024	677.75
1083.616357	682.0
1084.178632	678.5
1084.74085	678.5
1085.30301	677.0
1085.865113	682.0
1086.427158	680.5
1086.989145	677.25
1087.551074	677.0
1088.112946	680.5
1088.67476	677.25
1089.236517	679.25
1089.798216	676.25
1090.359857	679.5
1090.92144	679.5
1091.482966	681.75
1092.044435	674.75
1092.605845	678.75
1093.167199	677.75
1093.728494	677.25
1094.289732	678.75
1094.850912	678.0
1095.412035	696.0
1095.9731	680.5
1096.534107	681.5
1097.095057	687.75
1097.65595	679.5
1098.216784	681.25
1098.777561	676.25
1099.338281	678.75
1099.898943	676.0
1100.459547	676.75
1101.020094	681.25
1101.580584	677.75
1102.141015	678.0
1102.701389	680.75
1103.261706	679.25
1103.821965	677.25
1104.382167	681.0
1104.942311	679.25
1105.502397	679.75
1106.062426	680.25
1106.622398	678.75
1107.182312	680.25
1107.742168	682.25
1108.301967	681.75
1108.861708	680.75
1109.421392	685.75
1109.981019	684.75
1110.540587	682.25
1111.100099	684.75
1111.659553	686.25
1112.218949	683.25
1112.778288	684.0
1113.33757	683.5
1113.896794	684.5
1114.45596	686.5
1115.015069	681.25
1115.574121	684.25
1116.133115	683.5
1116.692052	681.25
1117.250931	685.5
1117.809753	685.0
1118.368517	681.25
1118.927224	682.5
1119.485873	678.25
1120.044465	683.75
1120.603	682.0
1121.161477	679.5
1121.719897	676.75
1122.278259	678.75
1122.836564	680.5
1123.394812	679.75
1123.953002	681.0
1124.511135	679.0
1125.06921	680.75
1125.627228	678.25
1126.185189	677.25
1126.743092	680.0
1127.300938	680.0
1127.858726	675.25
1128.416457	679.5
1128.974131	676.0
1129.531748	678.0
1130.089307	678.75
1130.646808	683.0
1131.204252	678.25
1131.761639	678.0
1132.318969	677.75
1132.876241	679.0
1133.433456	679.75
1133.990614	677.0
1134.547714	677.25
1135.104757	678.25
1135.661743	677.75
1136.218671	678.25
1136.775542	678.75
1137.332356	679.5
1137.889112	677.75
1138.445811	677.0
1139.002453	676.75
1139.559037	678.0
1140.115565	678.0
1140.672035	677.25
1141.228447	676.25
1141.784803	679.0
1142.341101	675.5
1142.897342	678.5
1143.453525	677.5
1144.009651	680.75
1144.565721	681.25
1145.121732	681.0
1145.677687	683.0
1146.233584	674.75
1146.789424	679.5
1147.345207	678.25
1147.900933	682.75
1148.456601	677.25
1149.012212	683.0
1149.567766	678.5
1150.123263	681.5
1150.678702	676.75
1151.234085	679.25
1151.78941	677.75
1152.344678	675.75
1152.899888	677.0
1153.455042	677.5
1154.010138	678.5
1154.565177	680.0
1155.120159	681.75
1155.675084	674.75
1156.229951	681.75
1156.784762	678.5
1157.339515	678.25
1157.894211	678.25
1158.44885	680.5
1159.003432	681.75
1159.557956	678.0
1160.112424	679.5
1160.666834	674.5
1161.221187	675.5
1161.775483	679.75
1162.329722	677.75
1162.883904	676.0
1163.438029	676.5
1163.992096	676.5
1164.546107	675.5
1165.10006	676.75
1165.653956	674.25
1166.207795	679.0
1166.761577	677.75
1167.315302	678.25
1167.86897	678.75
1168.422581	674.25
1168.976134	679.0
1169.529631	679.25
1170.08307	682.0
1170.636453	679.25
1171.189778	677.5
1171.743046	678.25
1172.296257	679.75
1172.849412	675.75
1173.402509	681.5
1173.955549	674.5
1174.508532	677.0
1175.061458	676.75
1175.614327	677.75
1176.167138	680.25
1176.719893	681.75
1177.272591	680.0
1177.825232	680.0
1178.377816	678.75
1178.930342	679.0
1179.482812	679.25
1180.035225	682.25
1180.587581	681.25
1181.139879	678.5
1181.692121	681.0
1182.244306	678.5
1182.796434	682.75
1183.348504	680.25
1183.900518	679.5
1184.452475	683.75
1185.004375	684.75
1185.556218	683.25
1186.108004	679.25
1186.659733	683.0
1187.211405	684.75
1187.76302	685.0
1188.314578	681.5
1188.866079	681.25
1189.417523	679.5
1189.96891	679.5
1190.520241	682.75
1191.071514	678.75
1191.622731	680.75
1192.17389	682.5
1192.724993	677.5
1193.276039	699.25
1193.827027	679.75
1194.377959	677.5
1194.928834	677.5
1195.479653	680.5
1196.030414	678.75
1196.581118	679.0
1197.131766	677.0
1197.682356	680.5
1198.23289	677.25
1198.783367	676.5
1199.333786	679.25
1199.88415	677.75
1200.434456	677.5
1200.984705	678.25
1201.534898	678.75
1202.085033	681.25
1202.635112	679.25
1203.185134	677.75
1203.735099	678.25
1204.285007	680.0
1204.834859	678.0
1205.384653	676.0
1205.934391	677.0
1206.484072	679.25
1207.033696	677.75
1207.583263	676.0
1208.132774	680.0
1208.682228	677.5
1209.231624	676.25
1209.780965	679.75
1210.330248	679.25
1210.879474	679.25
1211.428644	679.25
1211.977757	680.0
1212.526813	678.25
1213.075813	680.75
1213.624755	678.75
1214.173641	682.75
1214.72247	680.25
1215.271242	680.0
1215.819958	678.25
1216.368617	681.5
1216.917219	680.5
1217.465764	681.75
1218.014253	681.5
1218.562685	676.25
1219.11106	677.75
1219.659378	684.25
1220.20764	681.75
1220.755845	682.5
1221.303993	679.75
1221.852085	683.5
1222.400119	683.5
1222.948097	680.25
1223.496019	684.0
1224.043883	681.25
1224.591691	681.25
1225.139443	684.5
1225.687137	682.25
1226.234775	681.75
1226.782357	682.0
1227.329881	682.5
1227.877349	684.25
1228.42476	682.75
1228.972115	679.0
1229.519413	682.5
1230.066654	679.25
1230.613839	683.25
1231.160967	684.25
1231.708038	681.25
1232.255053	683.25
1232.802011	681.25
1233.348912	679.5
1233.895757	681.5
1234.442545	683.75
1234.989277	682.25
1235.535951	680.0
1236.08257	678.5
1236.629131	681.0
1237.175636	682.5
1237.722085	679.0
1238.268477	681.25
1238.814812	684.25
1239.361091	682.25
1239.907313	681.25
1240.453478	679.75
1240.999587	683.0
1241.54564	684.75
1242.091636	686.75
1242.637575	681.25
1243.183457	679.25
1243.729284	682.25
1244.275053	683.0
1244.820766	684.75
1245.366423	680.5
1245.912022	683.75
1246.457566	684.0
1247.003053	682.5
1247.548483	680.5
1248.093857	685.5
1248.639174	683.0
1249.184435	684.5
1249.729639	682.0
1250.274787	685.25
1250.819878	685.0
1251.364912	684.75
1251.909891	683.0
1252.454812	686.5
1252.999677	682.25
1253.544486	682.5
1254.089238	682.25
1254.633934	683.25
1255.178573	684.75
1255.723156	684.75
1256.267682	683.25
1256.812152	682.75
1257.356565	686.25
1257.900922	687.25
1258.445223	690.5
1258.989467	691.75
1259.533654	688.0
1260.077785	698.25
1260.62186	684.0
1261.165878	692.25
1261.70984	694.25
1262.253745	700.5
1262.797594	704.5
1263.341386	707.5
1263.885123	715.25
1264.428802	719.0
1264.972425	710.5
1265.515992	707.25
1266.059503	694.25
1266.602957	692.25
1267.146354	689.75
1267.689696	689.0
1268.23298	687.25
1268.776209	689.5
1269.319381	688.0
1269.862497	685.25
1270.405556	687.75
1270.948559	687.0
1271.491506	686.5
1272.034396	685.5
1272.57723	685.75
1273.120007	689.5
1273.662728	683.0
1274.205393	683.75
1274.748002	688.5
1275.290554	688.0
1275.83305	685.0
1276.375489	689.25
1276.917872	689.5
1277.460199	691.0
1278.00247	691.5
1278.544684	690.0
1279.086842	693.75
1279.628943	695.75
1280.170989	698.0
1280.712978	706.25
1281.25491	725.0
1281.796787	745.5
1282.338607	802.0
1282.880371	903.5
1283.422078	1054.25
1283.963729	1221.75
1284.505324	1227.5
1285.046863	1046.5
1285.588345	868.75
1286.129772	770.0
1286.671142	729.25
1287.212455	715.5
1287.753713	705.75
1288.294914	704.0
1288.836059	698.0
1289.377147	692.75
1289.91818	692.5
1290.459156	690.75
1291.000076	690.75
1291.54094	689.75
1292.081747	686.25
1292.622499	692.75
1293.163194	689.25
1293.703833	687.5
1294.244415	685.75
1294.784942	685.5
1295.325412	687.0
1295.865826	686.75
1296.406184	687.25
1296.946486	684.0
1297.486731	684.0
1298.026921	687.25
1298.567054	686.25
1299.107131	687.75
1299.647152	688.0
1300.187116	687.5
1300.727025	686.0
1301.266877	688.5
1301.806673	687.0
1302.346413	682.75
1302.886097	685.75
1303.425725	684.5
1303.965297	684.75
1304.504812	685.5
1305.044272	686.5
1305.583675	681.75
1306.123022	685.0
1306.662313	687.25
1307.201548	683.0
1307.740727	684.5
1308.279849	686.5
1308.818916	686.25
1309.357926	681.75
1309.896881	682.0
1310.435779	685.25
1310.974621	680.75
1311.513407	685.25
1312.052137	685.75
1312.590811	679.25
1313.129429	685.5
1313.667991	683.75
1314.206497	682.5
1314.744946	684.75
1315.28334	682.75
1315.821678	683.25
1316.359959	678.0
1316.898184	682.5
1317.436354	684.5
1317.974467	682.0
1318.512525	681.25
1319.050526	684.75
1319.588471	677.75
1320.12636	682.0
1320.664194	678.5
1321.201971	684.0
1321.739692	680.25
1322.277357	681.0
1322.814967	678.5
1323.35252	681.0
1323.890017	687.25
1324.427458	681.75
1324.964843	680.5
1325.502173	681.25
1326.039446	679.0
1326.576663	681.75
1327.113824	682.75
1327.65093	683.0
1328.187979	683.25
1328.724972	678.25
1329.26191	679.75
1329.798791	683.25
1330.335617	681.5
1330.872386	682.0
1331.4091	678.0
1331.945758	680.75
1332.48236	678.75
1333.018905	677.0
1333.555395	681.75
1334.091829	679.75
1334.628207	682.75
1335.164529	684.5
1335.700796	679.5
1336.237006	680.5
1336.77316	676.75
1337.309259	681.75
1337.845301	676.25
1338.381288	681.75
1338.917219	681.0
1339.453094	680.75
1339.988913	680.0
1340.524676	681.75
1341.060383	681.5
1341.596034	679.0
1342.13163	682.5
1342.66717	683.25
1343.202653	682.5
1343.738081	678.5
1344.273453	681.0
1344.80877	677.5
1345.34403	678.75
1345.879235	678.25
1346.414383	681.25
1346.949476	679.25
1347.484513	679.5
1348.019494	682.25
1348.55442	684.0
1349.089289	678.5
1349.624103	678.25
1350.158861	681.0
1350.693563	682.0
1351.228209	681.5
1351.7628	682.0
1352.297334	680.25
1352.831813	681.0
1353.366236	681.0
1353.900604	680.0
1354.434915	680.75
1354.969171	682.0
1355.503371	680.75
1356.037515	683.5
1356.571604	681.5
1357.105636	679.5
1357.639613	679.25
1358.173535	681.75
1358.7074	681.5
1359.24121	682.5
1359.774964	683.25
1360.308662	678.75
1360.842304	680.75
1361.375891	678.0
1361.909422	682.75
1362.442897	682.5
1362.976317	682.5
1363.50968	679.5
1364.042989	684.75
1364.576241	683.75
1365.109438	686.5
1365.642579	685.0
1366.175664	684.75
1366.708693	680.25
1367.241667	685.75
1367.774585	685.0
1368.307448	683.5
1368.840255	683.75
1369.373006	691.75
1369.905701	701.75
1370.438341	701.75
1370.970925	694.0
1371.503454	684.75
1372.035926	686.75
1372.568344	685.25
1373.100705	686.25
1373.633011	684.0
1374.165261	685.75
1374.697456	683.25
1375.229595	688.0
1375.761678	688.25
1376.293705	686.5
1376.825677	686.75
1377.357594	686.25
1377.889455	688.0
1378.42126	689.25
1378.953009	689.75
1379.484703	689.0
1380.016342	687.75
1380.547924	688.5
1381.079452	695.25
1381.610923	693.25
1382.142339	692.0
1382.673699	692.5
1383.205004	696.75
1383.736253	705.25
1384.267447	706.25
1384.798585	715.0
1385.329668	734.5
1385.860695	759.0
1386.391666	831.25
1386.922582	976.0
1387.453442	1344.5
1387.984247	1799.5
1388.514996	1727.0
1389.04569	1201.25
1389.576328	888.5
1390.10691	788.0
1390.637437	734.75
1391.167909	723.5
1391.698325	708.0
1392.228685	707.75
1392.75899	701.75
1393.28924	697.5
1393.819434	698.5
1394.349572	691.25
1394.879655	690.25
1395.409683	688.75
1395.939655	690.25
1396.469571	688.5
1396.999432	691.5
1397.529237	684.75
1398.058987	685.25
1398.588682	688.5
1399.118321	688.0
1399.647905	685.0
1400.177433	686.5
1400.706906	688.5
1401.236323	688.75
1401.765685	688.0
1402.294991	686.0
1402.824242	687.25
1403.353437	689.5
1403.882577	689.75
1404.411662	686.75
1404.940691	691.25
1405.469665	692.5
1405.998583	689.75
1406.527446	697.5
1407.056253	696.0
1407.585005	703.25
1408.113702	715.75
1408.642343	720.0
1409.170929	733.25
1409.69946	741.0
1410.227935	733.25
1410.756354	718.5
1411.284719	705.25
1411.813028	697.75
1412.341281	694.0
1412.869479	685.25
1413.397622	690.0
1413.92571	688.0
1414.453742	685.75
1414.981718	685.25
1415.50964	693.75
1416.037506	683.5
1416.565316	682.75
1417.093072	680.5
1417.620772	683.5
1418.148416	682.5
1418.676005	683.25
1419.203539	684.0
1419.731018	682.5
1420.258441	683.5
1420.785809	678.75
1421.313122	684.25
1421.840379	679.75
1422.367582	681.5
1422.894728	682.5
1423.42182	680.25
1423.948856	678.0
1424.475837	680.5
1425.002762	681.5
1425.529633	680.75
1426.056448	680.5
1426.583207	685.5
1427.109912	681.0
1427.636561	676.75
1428.163155	679.5
1428.689694	675.75
1429.216177	680.0
1429.742605	687.25
1430.268978	682.5
1430.795296	678.5
1431.321558	679.25
1431.847765	681.5
1432.373917	679.0
1432.900014	680.25
1433.426056	675.75
1433.952042	680.75
1434.477973	681.0
1435.003849	680.0
1435.529669	680.75
1436.055435	679.25
1436.581145	680.5
1437.1068	681.0
1437.632399	682.0
1438.157944	679.5
1438.683433	679.0
1439.208868	676.75
1439.734247	681.0
1440.25957	678.75
1440.784839	679.0
1441.310053	683.5
1441.835211	679.75
1442.360314	676.25
1442.885362	679.75
1443.410355	681.0
1443.935292	680.25
1444.460175	677.25
1444.985002	676.0
1445.509774	678.5
1446.034491	678.5
1446.559153	680.25
1447.08376	678.0
1447.608312	682.5
1448.132808	678.75
1448.65725	680.5
1449.181636	681.0
1449.705967	678.25
1450.230243	680.0
1450.754464	680.25
1451.27863	677.25
1451.802741	679.25
1452.326797	676.0
1452.850797	683.25
1453.374743	677.25
1453.898633	679.75
1454.422468	678.0
1454.946249	678.75
1455.469974	679.75
1455.993644	678.0
1456.517259	676.0
1457.040819	677.5
1457.564324	675.75
1458.087773	678.5
1458.611168	676.5
1459.134508	680.0
1459.657793	679.25
1460.181022	680.0
1460.704197	679.0
1461.227316	679.75
1461.750381	676.75
1462.27339	682.75
1462.796345	706.75
1463.319244	698.5
1463.842089	682.5
1464.364878	679.5
1464.887613	680.25
1465.410292	681.25
1465.932916	680.0
1466.455486	676.25
1466.978	679.5
1467.50046	675.75
1468.022864	679.5
1468.545214	677.75
1469.067508	679.25
1469.589748	678.25
1470.111932	679.5
1470.634062	677.75
1471.156136	678.0
1471.678156	680.25
1472.20012	675.5
1472.72203	679.25
1473.243885	676.5
1473.765685	678.25
1474.28743	675.75
1474.80912	678.0
1475.330755	680.75
1475.852335	677.5
1476.37386	675.75
1476.89533	675.25
1477.416745	677.0
1477.938106	674.5
1478.459411	675.0
1478.980662	678.0
1479.501857	678.5
1480.022998	677.5
1480.544084	676.0
1481.065115	676.0
1481.586091	677.25
1482.107012	674.75
1482.627878	676.5
1483.14869	676.0
1483.669446	680.5
1484.190148	674.75
1484.710794	676.0
1485.231386	677.5
1485.751923	678.0
1486.272406	679.75
1486.792833	677.75
1487.313205	675.75
1487.833523	675.25
1488.353786	676.75
1488.873994	677.25
1489.394147	675.25
1489.914245	675.0
1490.434288	676.75
1490.954277	680.5
1491.474211	676.5
1491.99409	676.5
1492.513914	675.5
1493.033683	676.25
1493.553398	672.25
1494.073057	673.75
1494.592662	671.5
1495.112212	676.0
1495.631708	676.75
1496.151148	675.75
1496.670534	675.0
1497.189865	679.0
1497.709141	678.25
1498.228362	676.5
1498.747529	689.75
1500.3047	674.5
1500.823648	674.75
1501.34254	673.0
1501.861379	675.5
1502.380162	675.5
1502.89889	674.5
1503.417564	675.5
1503.936183	675.25
1504.454748	676.5
1504.973257	674.5
1505.491712	673.75
1506.010112	675.0
1506.528458	673.75
1507.046748	679.5
1507.564984	675.25
1508.083166	675.75
1508.601292	676.0
1509.119364	674.5
1509.637381	674.0
1510.155344	675.0
1510.673252	684.25
1511.191105	674.75
1511.708903	676.25
1512.226647	677.0
1512.744336	675.25
1513.261971	676.5
1513.77955	673.25
1514.297076	671.75
1514.814546	671.0
1515.331962	672.75
1515.849323	672.0
1516.366629	672.0
1516.883881	676.5
1517.401078	676.25
1517.918221	677.5
1518.435309	674.25
1518.952342	675.0
1519.469321	675.25
1519.986245	676.0
1520.503114	675.75
1521.019929	675.0
1521.536689	673.0
1522.053395	675.5
1522.570046	676.75
1523.086642	675.75
1523.603184	676.25
1524.119671	674.0
1524.636103	675.0
1525.152481	675.5
1525.668805	687.0
1526.185073	690.25
1526.701288	675.25
1527.217447	678.0
1527.733552	675.0
1528.249603	674.25
1528.765599	673.5
1529.28154	676.5
1529.797427	674.25
1530.313259	674.0
1530.829037	676.5
1531.34476	675.25
1531.860429	675.0
1532.376043	672.75
1532.891602	673.75
1533.407107	671.0
1533.922558	676.75
1534.437954	674.25
1534.953295	680.0
1535.468582	678.0
1535.983815	675.25
1536.498993	673.5
1537.014116	674.0
1537.529185	671.75
1538.044199	674.25
1538.559159	675.0
1539.074064	679.5
1539.588915	675.25
1540.103712	678.5
1540.618454	676.25
1541.133141	677.25
1541.647774	672.5
1542.162353	672.5
1542.676877	671.0
1543.191346	678.25
1543.705761	674.0
1544.220122	674.25
1544.734428	673.5
1545.24868	676.75
1545.762877	673.75
1546.27702	676.0
1546.791109	672.5
1547.305143	676.25
1547.819122	673.0
1548.333047	676.75
1548.846918	673.0
1549.360734	676.5
1549.874496	676.75
1550.388204	676.25
1550.901857	676.5
1551.415455	673.0
1551.929	673.5
1552.442489	676.5
1552.955925	677.0
1553.469306	676.5
1553.982632	677.5
1554.495905	675.75
1555.009123	675.5
1555.522286	673.5
1556.035395	675.0
1556.54845	674.0
1557.06145	672.5
1557.574396	674.75
1558.087288	673.75
1558.600125	676.75
1559.112908	673.25
1559.625637	672.25
1560.138311	677.0
1560.650931	673.75
1561.163497	676.25
1561.676008	674.0
1562.188465	676.5
1562.700867	675.0
1563.213216	674.25
1563.725509	675.0
1564.237749	676.5
1564.749934	675.0
1565.262065	679.25
1565.774142	676.75
1566.286164	677.25
1566.798132	679.25
1567.310046	678.5
1567.821906	677.0
1568.333711	675.75
1568.845462	677.25
1569.357158	678.25
1569.868801	675.25
1570.380389	675.5
1570.891922	675.5
1571.403402	675.75
1571.914827	678.75
1572.426198	674.25
1572.937515	676.25
1573.448777	672.25
1573.959985	677.0
1574.471139	674.5
1574.982239	675.0
1575.493285	676.25
1576.004276	673.5
1576.515213	675.5
1577.026096	675.0
1577.536924	677.5
1578.047698	678.25
1578.558419	676.75
1579.069084	672.5
1579.579696	673.25
1580.090254	674.75
1580.600757	679.0
1581.111206	673.75
1581.621601	678.25
1582.131941	678.5
1582.642228	678.0
1583.15246	674.0
1583.662638	676.25
1584.172762	673.75
1584.682832	676.75
1585.192847	674.75
1585.702809	674.5
1586.212716	674.5
1586.722569	672.5
1587.232368	677.25
1587.742113	675.0
1588.251803	675.25
1588.76144	675.25
1589.271022	672.75
1589.78055	678.5
1590.290024	673.0
1590.799444	679.0
1591.30881	673.5
1591.818121	677.0
1592.327379	673.0
