1042.414189	685.5
1042.980685	685.0
1043.547124	688.25
1044.113505	683.75
1044.679828	685.25
1045.246093	683.25
1045.8123	683.0
1046.378449	683.75
1046.94454	683.25
1047.510573	679.5
1048.076548	681.5
1048.642465	682.75
1049.208325	680.5
1049.774126	680.25
1050.339869	681.25
1050.905555	681.5
1051.471183	675.5
1052.036752	681.0
1052.602264	675.5
1053.167718	677.5
1053.733114	676.5
1054.298452	674.5
1054.863733	677.25
1055.428955	678.5
1055.994119	674.5
1056.559226	681.5
1057.124275	680.0
1057.689266	675.5
1058.254199	679.5
1058.819074	674.25
1059.383891	676.5
1059.94865	678.0
1060.513352	674.5
1061.077996	674.75
1061.642582	674.25
1062.20711	678.25
1062.77158	673.0
1063.335992	674.5
1063.900347	674.75
1064.464643	679.25
1065.028882	677.75
1065.593063	676.25
1066.157187	676.0
1066.721252	672.5
1067.28526	677.25
1067.84921	675.25
1068.413102	673.0
1068.976936	673.5
1069.540713	675.5
1070.104431	683.5
1070.668092	675.0
1071.231696	673.25
1071.795241	673.0
1072.358729	675.25
1072.922159	674.0
1073.485531	675.25
1074.048845	674.0
1074.612102	675.75
1075.175301	672.25
1075.738442	674.25
1076.301525	676.25
1076.864551	672.0
1077.427519	672.0
1077.990429	676.0
1078.553281	676.25
1079.116076	673.25
1079.678813	673.5
1080.241492	673.0
1080.804114	676.75
1081.366678	676.25
1081.929184	678.5
1082.491633	675.75
1083.054024	676.75
1083.616357	672.75
1084.178632	674.5
1084.74085	674.75
1085.30301	673.25
1085.865113	675.0
1086.427158	675.25
1086.989145	674.0
1087.551074	675.75
1088.112946	676.5
1088.67476	675.25
1089.236517	674.75
1089.798216	676.25
1090.359857	672.0
1090.92144	675.0
1091.482966	675.5
1092.044435	675.25
1092.605845	675.25
1093.167199	673.75
1093.728494	674.75
1094.289732	672.25
1094.850912	675.75
1095.412035	687.25
1095.9731	675.25
1096.534107	676.25
1097.095057	681.75
1097.65595	671.75
1098.216784	674.5
1098.777561	678.5
1099.338281	675.25
1099.898943	673.5
1100.459547	674.0
1101.020094	675.0
1101.580584	670.75
1102.141015	675.75
1102.701389	672.5
1103.261706	674.75
1103.821965	674.75
1104.382167	673.25
1104.942311	673.25
1105.502397	676.5
1106.062426	673.5
1106.622398	675.5
1107.182312	672.5
1107.742168	676.25
1108.301967	675.25
1108.861708	676.0
1109.421392	676.5
1109.981019	679.25
1110.540587	675.5
1111.100099	677.25
1111.659553	676.25
1112.218949	677.25
1112.778288	674.0
1113.33757	675.25
1113.896794	675.75
1114.45596	675.5
1115.015069	677.75
1115.574121	674.5
1116.133115	678.5
1116.692052	675.5
1117.250931	671.5
1117.809753	673.5
1118.368517	672.75
1118.927224	676.0
1119.485873	674.25
1120.044465	676.0
1120.603	676.25
1121.161477	676.0
1121.719897	675.75
1122.278259	676.0
1122.836564	675.0
1123.394812	674.5
1123.953002	674.25
1124.511135	674.75
1125.06921	676.25
1125.627228	675.5
1126.185189	677.25
1126.743092	671.5
1127.300938	676.5
1127.858726	674.25
1128.416457	673.5
1128.974131	678.0
1129.531748	672.0
1130.089307	673.5
1130.646808	671.0
1131.204252	671.5
1131.761639	676.25
1132.318969	676.0
1132.876241	675.5
1133.433456	679.5
1133.990614	675.0
1134.547714	675.25
1135.104757	674.5
1135.661743	674.75
1136.218671	674.5
1136.775542	674.5
1137.332356	673.25
1137.889112	674.75
1138.445811	676.0
1139.002453	673.75
1139.559037	672.75
1140.115565	675.0
1140.672035	676.5
1141.228447	671.75
1141.784803	677.75
1142.341101	674.5
1142.897342	678.75
1143.453525	677.75
1144.009651	679.0
1144.565721	675.5
1145.121732	673.25
1145.677687	677.75
1146.233584	676.25
1146.789424	676.75
1147.345207	681.5
1147.900933	677.75
1148.456601	677.5
1149.012212	674.0
1149.567766	682.75
1150.123263	699.0
1150.678702	715.75
1151.234085	695.5
1151.78941	681.0
1152.344678	675.5
1152.899888	674.0
1153.455042	672.75
1154.010138	676.25
1154.565177	677.0
1155.120159	673.0
1155.675084	675.5
1156.229951	676.0
1156.784762	672.75
1157.339515	674.0
1157.894211	674.0
1158.44885	674.25
1159.003432	673.25
1159.557956	672.5
1160.112424	672.75
1160.666834	676.75
1161.221187	674.25
1161.775483	678.0
1162.329722	674.5
1162.883904	673.0
1163.438029	672.75
1163.992096	676.0
1164.546107	674.25
1165.10006	674.75
1165.653956	671.75
1166.207795	671.25
1166.761577	673.5
1167.315302	672.5
1167.86897	672.5
1168.422581	674.75
1168.976134	674.25
1169.529631	674.5
1170.08307	673.75
1170.636453	675.25
1171.189778	676.5
1171.743046	675.0
1172.296257	675.5
1172.849412	677.25
1173.402509	674.5
1173.955549	676.75
1174.508532	675.25
1175.061458	674.5
1175.614327	672.75
1176.167138	673.75
1176.719893	676.75
1177.272591	674.25
1177.825232	674.0
1178.377816	673.0
1178.930342	675.0
1179.482812	674.75
1180.035225	672.5
1180.587581	672.25
1181.139879	674.75
1181.692121	673.25
1182.244306	672.5
1182.796434	672.0
1183.348504	676.0
1183.900518	676.25
1184.452475	672.75
1185.004375	675.75
1185.556218	679.0
1186.108004	673.75
1186.659733	674.25
1187.211405	675.25
1187.76302	673.75
1188.314578	672.5
1188.866079	673.25
1189.417523	676.75
1189.96891	674.25
1190.520241	670.5
1191.071514	675.0
1191.622731	673.75
1192.17389	678.25
1192.724993	672.5
1193.276039	698.5
1193.827027	670.75
1194.377959	674.5
1194.928834	675.75
1195.479653	673.75
1196.030414	671.25
1196.581118	675.0
1197.131766	673.5
1197.682356	673.75
1198.23289	675.75
1198.783367	675.25
1199.333786	671.75
1199.88415	671.75
1200.434456	676.25
1200.984705	674.5
1201.534898	674.25
1202.085033	676.0
1202.635112	672.75
1203.185134	674.75
1203.735099	673.5
1204.285007	674.0
1204.834859	676.75
1205.384653	677.0
1205.934391	675.25
1206.484072	672.25
1207.033696	675.5
1207.583263	675.25
1208.132774	673.25
1208.682228	673.75
1209.231624	672.0
1209.780965	673.0
1210.330248	674.75
1210.879474	676.0
1211.428644	677.5
1211.977757	675.5
1212.526813	672.75
1213.075813	677.0
1213.624755	673.25
1214.173641	678.5
1214.72247	675.0
1215.271242	676.0
1215.819958	674.75
1216.368617	672.75
1216.917219	672.75
1217.465764	674.75
1218.014253	673.25
1218.562685	674.25
1219.11106	674.75
1219.659378	677.75
1220.20764	676.5
1220.755845	673.75
1221.303993	675.25
1221.852085	673.25
1222.400119	675.25
1222.948097	673.25
1223.496019	674.75
1224.043883	677.75
1224.591691	677.5
1225.139443	674.75
1225.687137	676.5
1226.234775	674.5
1226.782357	676.75
1227.329881	676.5
1227.877349	674.0
1228.42476	672.5
1228.972115	672.0
1229.519413	674.75
1230.066654	671.5
1230.613839	678.5
1231.160967	675.75
1231.708038	675.75
1232.255053	674.25
1232.802011	675.0
1233.348912	675.75
1233.895757	675.0
1234.442545	674.0
1234.989277	676.25
1235.535951	677.5
1236.08257	674.5
1236.629131	674.5
1237.175636	675.75
1237.722085	676.75
1238.268477	673.75
1238.814812	673.5
1239.361091	676.5
1239.907313	676.0
1240.453478	677.0
1240.999587	678.0
1241.54564	675.0
1242.091636	675.25
1242.637575	677.25
1243.183457	676.25
1243.729284	676.75
1244.275053	675.75
1244.820766	680.0
1245.366423	675.25
1245.912022	677.0
1246.457566	681.25
1247.003053	674.5
1247.548483	677.5
1248.093857	680.5
1248.639174	674.5
1249.184435	679.75
1249.729639	676.0
1250.274787	678.0
1250.819878	682.0
1251.364912	676.75
1251.909891	675.0
1252.454812	675.0
1252.999677	675.5
1253.544486	673.25
1254.089238	680.75
1254.633934	677.25
1255.178573	673.0
1255.723156	677.0
1256.267682	679.75
1256.812152	677.25
1257.356565	675.75
1257.900922	676.0
1258.445223	681.0
1258.989467	682.75
1259.533654	680.25
1260.077785	691.5
1260.62186	677.0
1261.165878	682.5
1261.70984	677.0
1262.253745	680.0
1262.797594	683.25
1263.341386	686.5
1263.885123	688.0
1264.428802	688.25
1264.972425	701.0
1265.515992	693.75
1266.059503	690.0
1266.602957	682.75
1267.146354	682.25
1267.689696	679.0
1268.23298	681.5
1268.776209	678.5
1269.319381	677.25
1269.862497	677.0
1270.405556	678.5
1270.948559	675.75
1271.491506	678.5
1272.034396	676.0
1272.57723	677.5
1273.120007	681.25
1273.662728	677.25
1274.205393	675.5
1274.748002	678.5
1275.290554	680.0
1275.83305	680.75
1276.375489	678.25
1276.917872	679.0
1277.460199	679.0
1278.00247	680.5
1278.544684	678.0
1279.086842	679.75
1279.628943	679.25
1280.170989	681.25
1280.712978	684.0
1281.25491	687.5
1281.796787	691.75
1282.338607	706.75
1282.880371	727.75
1283.422078	775.75
1283.963729	852.5
1284.505324	959.75
1285.046863	988.25
1285.588345	878.75
1286.129772	770.25
1286.671142	714.75
1287.212455	702.5
1287.753713	688.75
1288.294914	682.25
1288.836059	682.25
1289.377147	680.5
1289.91818	684.0
1290.459156	684.0
1291.000076	681.5
1291.54094	678.25
1292.081747	678.5
1292.622499	680.75
1293.163194	678.25
1293.703833	680.0
1294.244415	679.75
1294.784942	676.75
1295.325412	680.25
1295.865826	678.75
1296.406184	675.75
1296.946486	680.25
1297.486731	679.0
1298.026921	679.25
1298.567054	674.5
1299.107131	678.25
1299.647152	677.75
1300.187116	675.5
1300.727025	674.25
1301.266877	677.5
1301.806673	680.5
1302.346413	672.5
1302.886097	677.5
1303.425725	675.75
1303.965297	676.5
1304.504812	675.75
1305.044272	675.75
1305.583675	676.25
1306.123022	673.75
1306.662313	677.5
1307.201548	678.25
1307.740727	675.25
1308.279849	677.75
1308.818916	677.0
1309.357926	676.5
1309.896881	676.0
1310.435779	671.75
1310.974621	676.5
1311.513407	675.25
1312.052137	674.25
1312.590811	673.5
1313.129429	674.75
1313.667991	672.75
1314.206497	674.5
1314.744946	675.5
1315.28334	677.25
1315.821678	678.25
1316.359959	678.25
1316.898184	676.25
1317.436354	676.25
1317.974467	677.25
1318.512525	674.5
1319.050526	674.75
1319.588471	675.0
1320.12636	675.25
1320.664194	673.25
1321.201971	674.0
1321.739692	674.25
1322.277357	672.25
1322.814967	678.25
1323.35252	676.0
1323.890017	679.25
1324.427458	678.25
1324.964843	673.75
1325.502173	678.0
1326.039446	675.0
1326.576663	672.5
1327.113824	674.25
1327.65093	673.0
1328.187979	676.25
1328.724972	675.25
1329.26191	678.0
1329.798791	676.25
1330.335617	677.25
1330.872386	676.5
1331.4091	671.0
1331.945758	672.5
1332.48236	672.5
1333.018905	676.75
1333.555395	676.25
1334.091829	675.5
1334.628207	674.75
1335.164529	676.5
1335.700796	675.5
1336.237006	675.0
1336.77316	673.25
1337.309259	674.75
1337.845301	676.0
1338.381288	675.25
1338.917219	676.25
1339.453094	676.5
1339.988913	674.0
1340.524676	676.25
1341.060383	674.0
1341.596034	673.5
1342.13163	672.75
1342.66717	674.75
1343.202653	677.25
1343.738081	676.5
1344.273453	675.0
1344.80877	675.0
1345.34403	676.0
1345.879235	673.75
1346.414383	675.5
1346.949476	673.25
1347.484513	675.25
1348.019494	672.5
1348.55442	678.25
1349.089289	675.0
1349.624103	673.5
1350.158861	677.75
1350.693563	675.0
1351.228209	674.0
1351.7628	672.0
1352.297334	673.25
1352.831813	674.75
1353.366236	676.5
1353.900604	674.25
1354.434915	675.5
1354.969171	674.5
1355.503371	673.75
1356.037515	673.5
1356.571604	677.0
1357.105636	677.0
1357.639613	675.5
1358.173535	674.5
1358.7074	677.25
1359.24121	676.75
1359.774964	679.0
1360.308662	678.25
1360.842304	674.0
1361.375891	676.5
1361.909422	676.25
1362.442897	677.25
1362.976317	674.5
1363.50968	675.0
1364.042989	677.75
1364.576241	674.75
1365.109438	675.75
1365.642579	676.75
1366.175664	675.25
1366.708693	678.25
1367.241667	676.0
1367.774585	677.75
1368.307448	675.25
1368.840255	677.5
1369.373006	676.75
1369.905701	682.5
1370.438341	687.25
1370.970925	685.0
1371.503454	680.75
1372.035926	675.25
1372.568344	676.5
1373.100705	676.0
1373.633011	678.0
1374.165261	679.0
1374.697456	679.0
1375.229595	676.0
1375.761678	678.75
1376.293705	674.75
1376.825677	678.25
1377.357594	676.0
1377.889455	680.0
1378.42126	678.5
1378.953009	681.25
1379.484703	680.75
1380.016342	681.0
1380.547924	680.25
1381.079452	680.75
1381.610923	682.0
1382.142339	681.25
1382.673699	681.75
1383.205004	681.0
1383.736253	684.5
1384.267447	688.25
1384.798585	689.0
1385.329668	692.5
1385.860695	699.75
1386.391666	726.0
1386.922582	756.0
1387.453442	860.75
1387.984247	1082.25
1388.514996	1341.0
1389.04569	1101.25
1389.576328	841.75
1390.10691	740.0
1390.637437	705.5
1391.167909	695.25
1391.698325	688.75
1392.228685	687.0
1392.75899	682.75
1393.28924	681.25
1393.819434	682.0
1394.349572	678.5
1394.879655	678.5
1395.409683	681.5
1395.939655	680.5
1396.469571	682.25
1396.999432	676.75
1397.529237	674.25
1398.058987	679.0
1398.588682	680.5
1399.118321	679.25
1399.647905	676.5
1400.177433	680.25
1400.706906	678.5
1401.236323	675.0
1401.765685	677.5
1402.294991	682.5
1402.824242	675.25
1403.353437	679.5
1403.882577	677.25
1404.411662	676.5
1404.940691	675.0
1405.469665	674.25
1405.998583	678.5
1406.527446	678.0
1407.056253	680.25
1407.585005	679.25
1408.113702	684.75
1408.642343	691.75
1409.170929	701.0
1409.69946	708.5
1410.227935	708.5
1410.756354	703.25
1411.284719	687.0
1411.813028	683.75
1412.341281	677.25
1412.869479	678.75
1413.397622	676.25
1413.92571	677.0
1414.453742	676.75
1414.981718	675.0
1415.50964	689.25
1416.037506	674.5
1416.565316	673.25
1417.093072	671.75
1417.620772	671.75
1418.148416	674.0
1418.676005	674.5
1419.203539	673.75
1419.731018	675.5
1420.258441	677.5
1420.785809	678.25
1421.313122	671.5
1421.840379	676.25
1422.367582	678.75
1422.894728	674.75
1423.42182	676.0
1423.948856	672.0
1424.475837	674.25
1425.002762	671.75
1425.529633	674.0
1426.056448	673.75
1426.583207	673.5
1427.109912	671.75
1427.636561	670.75
1428.163155	671.25
1428.689694	671.0
1429.216177	673.75
1429.742605	673.0
1430.268978	672.5
1430.795296	671.25
1431.321558	670.75
1431.847765	671.75
1432.373917	674.0
1432.900014	672.75
1433.426056	671.5
1433.952042	673.75
1434.477973	677.0
1435.003849	672.75
1435.529669	672.5
1436.055435	673.5
1436.581145	672.25
1437.1068	668.25
1437.632399	672.5
1438.157944	672.25
1438.683433	672.5
1439.208868	670.5
1439.734247	671.0
1440.25957	673.75
1440.784839	669.25
1441.310053	674.25
1441.835211	672.5
1442.360314	671.75
1442.885362	673.0
1443.410355	672.75
1443.935292	671.25
1444.460175	674.5
1444.985002	672.0
1445.509774	671.25
1446.034491	671.5
1446.559153	673.75
1447.08376	674.75
1447.608312	669.25
1448.132808	671.75
1448.65725	671.75
1449.181636	670.5
1449.705967	669.75
1450.230243	672.0
1450.754464	674.0
1451.27863	667.25
1451.802741	671.25
1452.326797	670.5
1452.850797	669.0
1453.374743	671.25
1453.898633	674.75
1454.422468	671.0
1454.946249	670.5
1455.469974	672.25
1455.993644	672.0
1456.517259	673.0
1457.040819	673.0
1457.564324	671.5
1458.087773	672.75
1458.611168	672.5
1459.134508	671.75
1459.657793	670.75
1460.181022	673.5
1460.704197	670.0
1461.227316	674.5
1461.750381	674.0
1462.27339	673.25
1462.796345	680.0
1463.319244	676.25
1463.842089	672.5
1464.364878	673.25
1464.887613	669.5
1465.410292	676.25
1465.932916	671.5
1466.455486	672.25
1466.978	671.25
1467.50046	672.5
1468.022864	670.25
1468.545214	673.0
1469.067508	672.25
1469.589748	670.75
1470.111932	673.75
1470.634062	674.0
1471.156136	670.0
1471.678156	673.75
1472.20012	672.75
1472.72203	667.5
1473.243885	669.75
1473.765685	668.75
1474.28743	673.25
1474.80912	671.0
1475.330755	674.0
1475.852335	667.25
1476.37386	670.5
1476.89533	671.5
1477.416745	666.5
1477.938106	673.0
1478.459411	669.75
1478.980662	668.0
1479.501857	672.25
1480.022998	671.25
1480.544084	670.75
1481.065115	671.0
1481.586091	672.0
1482.107012	668.0
1482.627878	668.25
1483.14869	668.0
1483.669446	669.25
1484.190148	667.25
1484.710794	675.25
1485.231386	667.5
1485.751923	668.5
1486.272406	671.0
1486.792833	668.75
1487.313205	669.25
1487.833523	670.5
1488.353786	668.25
1488.873994	672.25
1489.394147	667.75
1489.914245	671.75
1490.434288	670.75
1490.954277	670.5
1491.474211	668.75
1491.99409	669.75
1492.513914	670.25
1493.033683	669.0
1493.553398	670.25
1494.073057	669.0
1494.592662	667.75
1495.112212	670.75
1495.631708	668.25
1496.151148	672.5
1496.670534	671.75
1497.189865	671.25
1497.709141	670.5
1498.228362	669.5
1498.747529	667.5
1499.266641	670.5
1499.785698	673.5
1500.3047	669.25
1500.823648	670.75
1501.34254	670.25
1501.861379	670.25
1502.380162	670.0
1502.89889	671.5
1503.417564	668.5
1503.936183	669.25
1504.454748	671.75
1504.973257	669.75
1505.491712	670.5
1506.010112	669.0
1506.528458	669.25
1507.046748	669.75
1507.564984	672.0
1508.083166	669.75
1508.601292	671.0
1509.119364	667.75
1509.637381	668.0
1510.155344	668.25
1510.673252	678.25
1511.191105	669.75
1511.708903	669.0
1512.226647	670.5
1512.744336	667.75
1513.261971	669.5
1513.77955	664.5
1514.297076	671.0
1514.814546	669.25
1515.331962	670.25
1515.849323	671.0
1516.366629	670.25
1516.883881	671.5
1517.401078	670.5
1517.918221	672.0
1518.435309	668.25
1518.952342	669.25
1519.469321	671.75
1519.986245	670.0
1520.503114	665.0
1521.019929	666.25
1521.536689	666.25
1522.053395	669.75
1522.570046	668.25
1523.086642	671.25
1523.603184	669.25
1524.119671	672.0
1524.636103	671.0
1525.152481	668.75
1525.668805	673.0
1526.185073	672.5
1526.701288	673.5
1527.217447	669.25
1527.733552	670.5
1528.249603	672.25
1528.765599	669.0
1529.28154	668.0
1529.797427	670.25
1530.313259	667.0
1530.829037	668.5
1531.34476	669.25
1531.860429	667.5
1532.376043	670.0
1532.891602	667.25
1533.407107	671.5
1533.922558	669.75
1534.437954	671.75
1534.953295	670.25
1535.468582	671.5
1535.983815	668.0
1536.498993	668.25
1537.014116	670.0
1537.529185	668.5
1538.044199	671.0
1538.559159	670.0
1539.074064	666.25
1539.588915	671.0
1540.103712	670.75
1540.618454	672.25
1541.133141	670.25
1541.647774	670.5
1542.162353	669.75
1542.676877	667.5
1543.191346	666.25
1543.705761	670.0
1544.220122	671.75
1544.734428	668.25
1545.24868	669.25
1545.762877	672.0
1546.27702	669.5
1546.791109	668.25
1547.305143	670.5
1547.819122	671.5
1548.333047	668.5
1548.846918	667.5
1549.360734	670.25
1549.874496	670.5
1550.388204	667.25
1550.901857	669.0
1551.415455	670.0
1551.929	668.25
1552.442489	668.5
1552.955925	668.25
1553.469306	670.5
1553.982632	668.25
1554.495905	669.5
1555.009123	668.75
1555.522286	667.75
1556.035395	670.25
1556.54845	665.75
1557.06145	670.75
1557.574396	670.5
1558.087288	669.25
1558.600125	669.25
1559.112908	670.5
1559.625637	669.75
1560.138311	673.0
1560.650931	669.5
1561.163497	668.75
1561.676008	668.25
1562.188465	671.5
1562.700867	671.25
1563.213216	668.0
1563.725509	666.75
1564.237749	668.75
1564.749934	672.5
1565.262065	668.0
1565.774142	672.0
1566.286164	668.5
1566.798132	671.5
1567.310046	671.0
1567.821906	669.0
1568.333711	671.5
1568.845462	668.75
1569.357158	667.25
1569.868801	669.25
1570.380389	668.0
1570.891922	668.25
1571.403402	669.25
1572.426198	674.25
1572.937515	668.5
1573.448777	669.0
1573.959985	667.5
1574.471139	668.25
1574.982239	669.0
1575.493285	666.0
1576.004276	670.0
1576.515213	669.0
1577.026096	671.75
1577.536924	665.5
1578.047698	667.25
1578.558419	668.5
1579.069084	667.75
1579.579696	668.25
1580.090254	666.25
1580.600757	671.75
1581.111206	671.25
1581.621601	673.5
1582.131941	671.5
1582.642228	671.0
1583.15246	668.75
1583.662638	673.5
1584.172762	668.25
1584.682832	669.0
1585.192847	665.75
1585.702809	669.25
1586.212716	668.75
1586.722569	668.0
1587.232368	668.5
1587.742113	671.75
1588.251803	666.25
1588.76144	667.5
1589.271022	670.5
1589.78055	665.25
1590.290024	666.75
1590.799444	668.5
1591.30881	666.75
1591.818121	670.0
1592.327379	670.5
