1042.414189	698.25
1042.980685	699.5
1043.547124	698.0
1044.113505	701.5
1044.679828	698.0
1045.246093	692.0
1045.8123	692.25
1046.378449	691.5
1046.94454	692.0
1047.510573	690.75
1048.076548	690.0
1048.642465	691.0
1049.208325	686.25
1049.774126	693.5
1050.339869	693.5
1050.905555	689.0
1051.471183	686.0
1052.036752	686.0
1052.602264	685.75
1053.167718	689.0
1053.733114	686.25
1054.298452	685.25
1054.863733	689.5
1055.428955	685.0
1055.994119	680.0
1056.559226	685.75
1057.124275	682.5
1057.689266	684.25
1058.254199	681.0
1058.819074	683.25
1059.383891	685.0
1059.94865	681.5
1060.513352	684.0
1061.077996	684.0
1061.642582	685.25
1062.20711	687.75
1062.77158	681.0
1063.335992	682.5
1063.900347	680.75
1064.464643	682.5
1065.028882	679.0
1065.593063	684.75
1066.157187	678.75
1066.721252	680.5
1067.28526	682.25
1067.84921	683.0
1068.413102	681.5
1068.976936	683.0
1069.540713	680.75
1070.104431	690.75
1070.668092	680.75
1071.231696	680.25
1071.795241	682.5
1072.358729	678.25
1072.922159	681.0
1073.485531	680.75
1074.048845	682.75
1074.612102	680.5
1075.175301	682.5
1075.738442	683.0
1076.301525	679.75
1076.864551	680.0
1077.427519	679.5
1077.990429	680.5
1078.553281	680.0
1079.116076	685.0
1079.678813	679.75
1080.241492	679.0
1080.804114	681.25
1081.366678	679.25
1081.929184	682.75
1082.491633	683.75
1083.054024	680.0
1083.616357	684.75
1084.178632	682.75
1084.74085	682.5
1085.30301	683.25
1085.865113	683.25
1086.427158	677.75
1086.989145	684.75
1087.551074	677.0
1088.112946	680.25
1088.67476	680.25
1089.236517	679.5
1089.798216	679.75
1090.359857	679.25
1090.92144	678.25
1091.482966	679.75
1092.044435	679.75
1092.605845	684.5
1093.167199	680.75
1093.728494	677.75
1094.289732	682.5
1094.850912	676.75
1095.412035	694.0
1095.9731	681.5
1096.534107	680.5
1097.095057	687.5
1097.65595	685.5
1098.216784	677.5
1098.777561	678.5
1099.338281	681.5
1099.898943	679.75
1100.459547	680.0
1101.020094	678.5
1101.580584	680.25
1102.141015	681.25
1102.701389	681.0
1103.261706	679.0
1103.821965	681.75
1104.382167	679.25
1104.942311	681.75
1105.502397	678.5
1106.062426	683.25
1106.622398	680.5
1107.182312	682.5
1107.742168	683.5
1108.301967	681.0
1108.861708	680.75
1109.421392	681.75
1109.981019	680.5
1110.540587	681.25
1111.100099	681.5
1111.659553	680.0
1112.218949	682.0
1112.778288	686.5
1113.33757	683.25
1113.896794	680.5
1114.45596	682.75
1115.015069	681.0
1115.574121	680.0
1116.133115	682.25
1116.692052	679.75
1117.250931	685.5
1117.809753	682.25
1118.368517	683.5
1118.927224	686.75
1119.485873	681.5
1120.044465	682.25
1120.603	680.5
1121.161477	678.75
1121.719897	682.0
1122.278259	678.5
1122.836564	676.75
1123.394812	680.0
1123.953002	680.5
1124.511135	677.25
1125.06921	680.25
1125.627228	679.25
1126.185189	679.25
1126.743092	683.0
1127.300938	681.75
1127.858726	680.75
1128.416457	681.75
1128.974131	678.75
1129.531748	683.5
1130.089307	683.25
1130.646808	682.25
1131.204252	682.75
1131.761639	682.25
1132.318969	678.25
1132.876241	678.0
1133.433456	683.25
1133.990614	681.75
1134.547714	683.5
1135.104757	679.25
1135.661743	680.75
1136.218671	683.0
1136.775542	680.0
1137.332356	681.25
1137.889112	680.25
1138.445811	680.75
1139.002453	679.5
1139.559037	681.5
1140.115565	679.5
1140.672035	682.5
1141.228447	681.5
1141.784803	684.25
1142.341101	681.25
1142.897342	683.0
1143.453525	690.0
1144.009651	688.75
1144.565721	685.25
1145.121732	683.0
1145.677687	685.75
1146.233584	682.5
1146.789424	686.0
1147.345207	690.0
1147.900933	699.75
1148.456601	693.5
1149.012212	687.0
1149.567766	695.5
1150.123263	710.75
1150.678702	780.5
1151.234085	798.75
1151.78941	726.75
1152.344678	691.25
1152.899888	687.0
1153.455042	685.5
1154.010138	680.0
1154.565177	682.75
1155.120159	686.5
1155.675084	678.0
1156.229951	680.25
1156.784762	682.5
1157.339515	680.75
1157.894211	684.25
1158.44885	678.75
1159.003432	676.75
1159.557956	681.5
1160.112424	686.0
1160.666834	680.5
1161.221187	681.25
1161.775483	679.25
1162.329722	684.75
1162.883904	685.0
1163.438029	678.75
1163.992096	680.75
1164.546107	678.75
1165.10006	680.0
1165.653956	681.75
1166.207795	681.0
1166.761577	685.0
1167.315302	682.0
1167.86897	680.75
1168.422581	686.25
1168.976134	680.5
1169.529631	679.0
1170.08307	682.5
1170.636453	681.25
1171.189778	683.0
1171.743046	679.25
1172.296257	680.0
1172.849412	679.0
1173.402509	685.5
1173.955549	681.75
1174.508532	678.0
1175.061458	683.0
1175.614327	676.75
1176.167138	681.75
1176.719893	680.75
1177.272591	677.75
1177.825232	679.75
1178.377816	680.5
1178.930342	679.75
1179.482812	678.5
1180.035225	680.25
1180.587581	679.0
1181.139879	684.0
1181.692121	680.25
1182.244306	682.5
1182.796434	682.25
1183.348504	683.75
1183.900518	678.25
1184.452475	679.25
1185.004375	683.75
1185.556218	683.5
1186.108004	680.25
1186.659733	678.75
1187.211405	682.25
1187.76302	681.5
1188.314578	679.0
1188.866079	682.75
1189.417523	681.0
1189.96891	680.0
1190.520241	679.5
1191.071514	681.5
1191.622731	683.5
1192.17389	678.5
1192.724993	675.75
1193.276039	703.75
1193.827027	680.75
1194.377959	679.75
1194.928834	680.5
1195.479653	682.5
1196.030414	680.75
1196.581118	684.25
1197.131766	682.5
1197.682356	677.0
1198.23289	681.0
1198.783367	681.0
1199.333786	677.75
1199.88415	679.0
1200.434456	684.25
1200.984705	678.0
1201.534898	679.75
1202.085033	680.25
1202.635112	681.75
1203.185134	683.0
1203.735099	686.5
1204.285007	680.5
1204.834859	681.75
1205.384653	682.0
1205.934391	679.75
1206.484072	680.75
1207.033696	682.75
1207.583263	678.75
1208.132774	683.5
1208.682228	680.5
1209.231624	679.5
1209.780965	682.5
1210.330248	680.0
1210.879474	682.0
1211.428644	679.0
1211.977757	683.75
1212.526813	682.0
1213.075813	681.75
1213.624755	678.75
1214.173641	677.75
1214.72247	681.25
1215.271242	681.75
1215.819958	685.25
1216.368617	686.25
1216.917219	683.5
1217.465764	683.5
1218.014253	682.25
1218.562685	684.25
1219.11106	683.25
1219.659378	682.75
1220.20764	681.75
1220.755845	683.25
1221.303993	683.5
1221.852085	684.75
1222.400119	683.75
1222.948097	687.5
1223.496019	681.75
1224.043883	682.25
1224.591691	683.0
1225.139443	685.75
1225.687137	681.0
1226.234775	682.5
1226.782357	686.25
1227.329881	687.75
1227.877349	681.75
1228.42476	686.75
1228.972115	683.25
1229.519413	685.75
1230.066654	683.0
1230.613839	683.0
1231.160967	680.25
1231.708038	684.5
1232.255053	685.25
1232.802011	688.25
1233.348912	680.75
1233.895757	686.25
1234.442545	686.0
1234.989277	684.75
1235.535951	684.0
1236.08257	682.5
1236.629131	688.0
1237.175636	685.25
1237.722085	684.5
1238.268477	685.0
1238.814812	687.5
1239.361091	683.0
1239.907313	685.25
1240.453478	685.25
1240.999587	685.0
1241.54564	685.25
1242.091636	687.5
1242.637575	687.0
1243.183457	690.5
1243.729284	682.75
1244.275053	683.0
1244.820766	686.5
1245.366423	681.25
1245.912022	687.5
1246.457566	691.25
1247.003053	688.75
1247.548483	689.0
1248.093857	689.0
1248.639174	690.0
1249.184435	689.0
1249.729639	692.75
1250.274787	693.0
1250.819878	692.25
1251.364912	689.0
1251.909891	686.75
1252.454812	690.75
1252.999677	685.0
1253.544486	687.25
1254.089238	688.25
1254.633934	689.5
1255.178573	689.75
1255.723156	690.5
1256.267682	688.5
1256.812152	688.75
1257.356565	689.5
1257.900922	691.0
1258.445223	692.0
1258.989467	696.5
1259.533654	698.0
1260.077785	706.75
1260.62186	694.0
1261.165878	696.0
1261.70984	699.25
1262.253745	697.5
1262.797594	699.75
1263.341386	714.0
1263.885123	722.5
1264.428802	748.0
1264.972425	784.5
1265.515992	802.75
1266.059503	766.0
1266.602957	727.0
1267.146354	712.0
1267.689696	703.0
1268.23298	698.25
1268.776209	695.25
1269.319381	698.75
1269.862497	690.75
1270.405556	693.25
1270.948559	691.5
1271.491506	694.5
1272.034396	691.0
1272.57723	692.25
1273.120007	691.75
1273.662728	687.75
1274.205393	693.5
1274.748002	690.25
1275.290554	693.0
1275.83305	694.5
1276.375489	692.25
1276.917872	694.5
1277.460199	697.25
1278.00247	698.75
1278.544684	696.25
1279.086842	699.75
1279.628943	698.25
1280.170989	702.25
1280.712978	707.25
1281.25491	710.5
1281.796787	712.5
1282.338607	722.5
1282.880371	752.5
1283.422078	789.75
1283.963729	892.75
1284.505324	1177.5
1285.046863	1853.25
1285.588345	2404.25
1286.129772	1734.5
1286.671142	1044.75
1287.212455	827.75
1287.753713	752.25
1288.294914	725.75
1288.836059	721.25
1289.377147	709.75
1289.91818	703.5
1290.459156	700.5
1291.000076	700.25
1291.54094	702.75
1292.081747	698.25
1292.622499	695.0
1293.163194	698.75
1293.703833	694.25
1294.244415	696.75
1294.784942	694.25
1295.325412	689.75
1295.865826	689.5
1296.406184	694.25
1296.946486	692.75
1297.486731	693.5
1298.026921	693.0
1298.567054	692.75
1299.107131	694.75
1299.647152	692.75
1300.187116	688.25
1300.727025	693.0
1301.266877	693.5
1301.806673	692.25
1302.346413	691.75
1302.886097	690.0
1303.425725	688.75
1303.965297	689.25
1304.504812	687.5
1305.044272	693.25
1305.583675	686.75
1306.123022	691.75
1306.662313	688.75
1307.201548	688.5
1307.740727	686.25
1308.279849	690.0
1308.818916	690.25
1309.357926	688.75
1309.896881	688.5
1310.435779	686.75
1310.974621	688.25
1311.513407	689.0
1312.052137	688.0
1312.590811	691.0
1313.129429	688.5
1313.667991	687.0
1314.206497	686.0
1314.744946	687.0
1315.28334	687.25
1315.821678	689.75
1316.359959	684.0
1316.898184	689.75
1317.436354	684.75
1317.974467	688.25
1318.512525	690.0
1319.050526	691.0
1319.588471	689.5
1320.12636	685.5
1320.664194	691.75
1321.201971	686.0
1321.739692	692.0
1322.277357	688.25
1322.814967	690.0
1323.35252	685.0
1323.890017	697.0
1324.427458	685.0
1324.964843	689.0
1325.502173	686.5
1326.039446	688.75
1326.576663	685.25
1327.113824	685.5
1327.65093	687.25
1328.187979	691.0
1328.724972	685.75
1329.26191	686.75
1329.798791	685.5
1330.335617	687.25
1330.872386	685.75
1331.4091	689.0
1331.945758	687.75
1332.48236	691.5
1333.018905	687.75
1333.555395	688.5
1334.091829	687.0
1334.628207	683.75
1335.164529	691.0
1335.700796	687.0
1336.237006	687.5
1336.77316	690.0
1337.309259	686.0
1337.845301	685.5
1338.381288	685.75
1338.917219	688.75
1339.453094	687.75
1339.988913	687.75
1340.524676	688.25
1341.060383	686.0
1341.596034	687.5
1342.13163	687.25
1342.66717	686.25
1343.202653	689.5
1343.738081	688.5
1344.273453	688.5
1344.80877	691.75
1345.34403	690.5
1345.879235	692.5
1346.414383	685.5
1346.949476	688.5
1347.484513	686.5
1348.019494	690.0
1348.55442	689.75
1349.089289	688.75
1349.624103	690.5
1350.158861	688.25
1350.693563	684.75
1351.228209	685.25
1351.7628	686.75
1352.297334	685.5
1352.831813	689.75
1353.366236	689.5
1353.900604	689.25
1354.434915	686.0
1354.969171	689.25
1355.503371	688.25
1356.037515	687.0
1356.571604	693.0
1357.105636	693.0
1357.639613	689.5
1358.173535	689.25
1358.7074	690.75
1359.24121	689.75
1359.774964	688.25
1360.308662	690.5
1360.842304	693.25
1361.375891	690.25
1361.909422	691.5
1362.442897	692.0
1362.976317	685.75
1363.50968	690.25
1364.042989	692.0
1364.576241	691.25
1365.109438	694.25
1365.642579	691.25
1366.175664	692.0
1366.708693	702.0
1367.241667	701.0
1367.774585	693.5
1368.307448	692.5
1368.840255	691.25
1369.373006	692.5
1369.905701	703.5
1370.438341	732.0
1370.970925	741.75
1371.503454	698.25
1372.035926	696.0
1372.568344	694.25
1373.100705	694.0
1373.633011	695.75
1374.165261	690.0
1374.697456	690.0
1375.229595	693.0
1375.761678	693.5
1376.293705	691.75
1376.825677	700.5
1377.357594	695.0
1377.889455	701.0
1378.42126	697.5
1378.953009	692.25
1379.484703	694.5
1380.016342	696.5
1380.547924	698.75
1381.079452	699.25
1381.610923	701.0
1382.142339	707.0
1382.673699	703.75
1383.205004	705.75
1383.736253	710.5
1384.267447	715.0
1384.798585	717.25
1385.329668	728.25
1385.860695	742.75
1386.391666	783.5
1386.922582	818.5
1387.453442	936.75
1387.984247	1377.0
1388.514996	2774.25
1389.04569	3887.75
1389.576328	2134.0
1390.10691	1085.75
1390.637437	830.25
1391.167909	768.25
1391.698325	738.25
1392.228685	725.25
1392.75899	720.75
1393.28924	710.5
1393.819434	710.5
1394.349572	708.0
1394.879655	706.25
1395.409683	705.75
1395.939655	699.0
1396.469571	699.0
1396.999432	695.75
1397.529237	700.75
1398.058987	695.25
1398.588682	697.5
1399.118321	694.5
1399.647905	695.5
1400.177433	693.75
1400.706906	691.5
1401.236323	691.75
1401.765685	694.75
1402.294991	692.5
1402.824242	690.5
1403.353437	695.25
1403.882577	694.75
1404.411662	692.25
1404.940691	698.25
1405.469665	696.25
1405.998583	692.25
1406.527446	700.75
1407.056253	702.25
1407.585005	708.25
1408.113702	716.0
1408.642343	728.5
1409.170929	756.75
1409.69946	828.75
1410.227935	908.5
1410.756354	864.0
1411.284719	765.5
1411.813028	724.25
1412.341281	712.25
1412.869479	701.75
1413.397622	694.25
1413.92571	693.0
1414.453742	691.5
1414.981718	694.75
1415.50964	703.25
1416.037506	687.5
1416.565316	686.25
1417.093072	691.25
1417.620772	691.0
1418.148416	687.0
1418.676005	687.0
1419.203539	691.25
1419.731018	690.5
1420.258441	686.0
1420.785809	684.5
1421.313122	686.75
1421.840379	689.0
1422.367582	689.75
1422.894728	692.75
1423.42182	689.0
1423.948856	689.0
1424.475837	686.5
1425.002762	689.25
1425.529633	688.0
1426.056448	689.75
1426.583207	693.0
1427.109912	692.75
1427.636561	683.75
1428.163155	685.25
1428.689694	683.25
1429.216177	689.5
1429.742605	685.75
1430.268978	684.0
1430.795296	688.0
1431.321558	685.5
1431.847765	683.5
1432.373917	682.25
1432.900014	684.5
1433.426056	687.0
1433.952042	680.25
1434.477973	685.5
1435.003849	681.75
1435.529669	679.75
1436.055435	681.5
1436.581145	681.75
1437.1068	682.0
1437.632399	683.5
1438.157944	683.0
1438.683433	681.25
1439.208868	680.25
1439.734247	681.0
1440.25957	684.0
1440.784839	682.75
1441.310053	681.75
1441.835211	680.0
1442.360314	680.5
1442.885362	676.0
1443.410355	682.75
1443.935292	681.75
1444.460175	679.25
1444.985002	680.0
1445.509774	682.5
1446.034491	679.75
1446.559153	679.75
1447.08376	683.25
1447.608312	681.75
1448.132808	679.25
1448.65725	679.75
1449.181636	681.5
1449.705967	678.0
1450.230243	681.0
1450.754464	681.0
1451.27863	680.75
1451.802741	677.0
1452.326797	679.0
1452.850797	680.0
1453.374743	677.5
1453.898633	679.0
1454.422468	678.75
1454.946249	679.25
1455.469974	681.0
1455.993644	677.5
1456.517259	676.0
1457.040819	681.5
1457.564324	677.5
1458.087773	680.25
1458.611168	675.75
1459.134508	674.25
1459.657793	679.25
1460.181022	682.25
1460.704197	678.75
1461.227316	677.25
1461.750381	675.5
1462.27339	680.5
1463.319244	697.25
1463.842089	677.75
1464.364878	677.75
1464.887613	676.25
1465.410292	680.5
1465.932916	679.0
1466.455486	679.25
1466.978	676.0
1467.50046	677.5
1468.022864	681.5
1468.545214	677.0
1469.067508	675.75
1469.589748	673.75
1470.111932	680.5
1470.634062	675.75
1471.156136	673.5
1471.678156	676.0
1472.20012	678.75
1472.72203	676.0
1473.243885	678.25
1473.765685	675.0
1474.28743	677.0
1474.80912	673.0
1475.330755	676.75
1475.852335	675.5
1476.37386	673.75
1476.89533	677.25
1477.416745	675.0
1477.938106	671.75
1478.459411	679.0
1478.980662	675.5
1479.501857	675.75
1480.022998	675.0
1480.544084	678.0
1481.065115	676.0
1481.586091	675.75
1482.107012	674.75
1482.627878	676.5
1483.14869	676.0
1483.669446	679.5
1484.190148	674.25
1484.710794	675.0
1485.231386	676.75
1485.751923	674.0
1486.272406	674.25
1486.792833	672.5
1487.313205	674.75
1487.833523	678.0
1488.353786	677.75
1488.873994	675.75
1489.394147	676.5
1489.914245	677.5
1490.434288	674.5
1490.954277	672.75
1491.474211	676.5
1491.99409	676.75
1492.513914	675.5
1493.033683	672.25
1493.553398	672.0
1494.073057	677.0
1494.592662	675.25
1495.112212	675.5
1495.631708	674.0
1496.151148	673.0
1496.670534	675.75
1497.189865	673.0
1497.709141	674.0
1498.228362	677.25
1498.747529	679.25
1499.266641	673.5
1499.785698	683.5
1500.3047	676.75
1500.823648	674.5
1501.34254	675.0
1501.861379	674.25
1502.380162	675.25
1502.89889	675.0
1503.417564	677.0
1503.936183	671.25
1504.454748	675.5
1504.973257	673.5
1505.491712	675.75
1506.010112	675.0
1506.528458	674.0
1507.046748	674.5
1507.564984	676.75
1508.083166	674.25
1508.601292	672.75
1509.119364	671.25
1509.637381	674.25
1510.155344	675.5
1510.673252	683.5
1511.191105	677.5
1511.708903	674.0
1512.226647	677.5
1512.744336	676.25
1513.261971	671.5
1513.77955	675.5
1514.297076	676.75
1514.814546	674.0
1515.331962	672.25
1515.849323	675.5
1516.366629	671.25
1516.883881	674.0
1517.401078	674.75
1517.918221	673.0
1518.435309	676.5
1518.952342	673.25
1519.469321	674.25
1519.986245	673.75
1520.503114	680.5
1521.019929	673.75
1521.536689	679.0
1522.053395	672.75
1522.570046	678.5
1523.086642	673.5
1523.603184	675.0
1524.119671	676.5
1524.636103	674.75
1525.152481	676.0
1525.668805	690.25
1526.185073	700.25
1526.701288	677.0
1527.217447	674.25
1527.733552	672.5
1528.249603	674.0
1528.765599	671.25
1529.28154	673.75
1529.797427	675.75
1530.313259	673.5
1530.829037	673.25
1531.34476	673.25
1531.860429	673.75
1532.376043	672.75
1532.891602	676.0
1533.407107	675.5
1533.922558	676.5
1534.437954	676.5
1534.953295	677.5
1535.468582	674.0
1535.983815	673.5
1536.498993	673.0
1537.014116	675.75
1537.529185	675.75
1538.044199	677.25
1538.559159	675.25
1539.074064	678.75
1539.588915	674.5
1540.103712	674.5
1540.618454	671.75
1541.133141	675.25
1541.647774	673.5
1542.162353	674.5
1542.676877	674.25
1543.191346	673.25
1543.705761	673.75
1544.220122	675.25
1544.734428	676.25
1545.24868	676.0
1545.762877	675.5
1546.27702	674.75
1546.791109	672.25
1547.305143	676.0
1547.819122	673.25
1548.333047	675.75
1548.846918	672.75
1549.360734	674.75
1549.874496	673.5
1550.388204	673.75
1550.901857	676.0
1551.415455	672.75
1551.929	675.25
1552.442489	677.25
1552.955925	674.75
1553.469306	674.75
1553.982632	676.5
1554.495905	675.0
1555.009123	674.0
1555.522286	674.75
1556.035395	672.5
1556.54845	675.5
1557.06145	674.75
1557.574396	677.25
1558.087288	675.5
1558.600125	675.0
1559.112908	675.25
1559.625637	673.75
1560.138311	676.0
1560.650931	674.5
1561.163497	676.0
1561.676008	676.25
1562.188465	678.25
1562.700867	679.0
1563.213216	677.75
1563.725509	674.5
1564.237749	678.5
1564.749934	677.0
1565.262065	675.25
1565.774142	678.0
1566.286164	677.0
1566.798132	676.75
1567.310046	676.75
1567.821906	674.25
1568.333711	678.25
1568.845462	674.0
1569.357158	679.0
1569.868801	677.5
1570.380389	676.75
1570.891922	675.75
1571.403402	673.5
1571.914827	674.5
1572.426198	674.75
1572.937515	674.75
1573.448777	674.75
1573.959985	674.0
1574.471139	676.0
1574.982239	675.5
1575.493285	673.75
1576.004276	675.0
1576.515213	673.0
1577.026096	675.0
1577.536924	677.0
1578.047698	675.0
1578.558419	675.5
1579.069084	677.75
1579.579696	672.25
1580.090254	670.25
1580.600757	672.5
1581.111206	675.25
1581.621601	673.0
1582.131941	674.5
1582.642228	673.0
1583.15246	672.5
1583.662638	674.75
1584.172762	673.0
1584.682832	669.25
1585.192847	675.0
1585.702809	676.75
1586.212716	673.75
1586.722569	674.75
1587.232368	671.25
1587.742113	675.0
1588.251803	676.25
1588.76144	675.25
1589.271022	675.75
1589.78055	674.75
1590.290024	672.25
1590.799444	674.75
1591.30881	671.25
1591.818121	676.0
1592.327379	668.0
