1042.414189	700.0
1042.980685	697.5
1043.547124	690.5
1044.113505	694.25
1044.679828	694.25
1045.246093	693.75
1045.8123	688.5
1046.378449	685.25
1046.94454	688.75
1047.510573	687.5
1048.076548	688.25
1048.642465	688.75
1049.208325	689.0
1049.774126	684.0
1050.339869	686.75
1050.905555	685.0
1051.471183	687.0
1052.036752	684.0
1052.602264	681.75
1053.167718	682.25
1053.733114	684.0
1054.298452	681.75
1054.863733	680.25
1055.428955	679.25
1055.994119	681.0
1056.559226	678.5
1057.124275	681.75
1057.689266	679.75
1058.254199	679.0
1058.819074	680.5
1059.383891	679.0
1059.94865	679.5
1060.513352	680.75
1061.077996	678.75
1061.642582	677.0
1062.20711	677.25
1062.77158	675.5
1063.335992	681.0
1063.900347	681.0
1064.464643	678.5
1065.028882	675.75
1065.593063	681.25
1066.157187	677.5
1066.721252	679.75
1067.28526	676.75
1067.84921	676.25
1068.413102	678.5
1068.976936	680.5
1069.540713	677.75
1070.104431	687.0
1070.668092	678.25
1071.231696	677.5
1071.795241	680.0
1072.358729	678.25
1072.922159	679.25
1073.485531	678.5
1074.048845	676.0
1074.612102	677.25
1075.175301	677.5
1075.738442	678.0
1076.301525	679.0
1076.864551	676.75
1077.427519	672.75
1077.990429	673.75
1078.553281	679.5
1079.116076	678.25
1079.678813	677.0
1080.241492	674.5
1080.804114	679.0
1081.366678	675.0
1081.929184	676.75
1082.491633	679.5
1083.054024	676.0
1083.616357	677.0
1084.178632	680.5
1084.74085	676.5
1085.30301	676.25
1085.865113	672.25
1086.427158	679.0
1086.989145	676.25
1087.551074	679.25
1088.112946	677.0
1088.67476	677.0
1089.236517	674.25
1089.798216	675.0
1090.359857	675.75
1090.92144	676.25
1091.482966	675.5
1092.044435	675.75
1092.605845	678.75
1093.167199	676.75
1093.728494	675.0
1094.289732	676.5
1094.850912	677.5
1095.412035	692.5
1095.9731	675.5
1096.534107	676.25
1097.095057	683.75
1097.65595	677.0
1098.216784	676.25
1098.777561	678.75
1099.338281	676.75
1099.898943	676.5
1100.459547	678.0
1101.020094	675.5
1101.580584	677.75
1102.141015	676.0
1102.701389	673.5
1103.261706	677.25
1103.821965	676.5
1104.382167	675.5
1104.942311	675.75
1105.502397	678.5
1106.062426	676.0
1106.622398	673.75
1107.182312	679.25
1107.742168	678.25
1108.301967	675.75
1108.861708	670.25
1109.421392	677.25
1109.981019	677.25
1110.540587	674.75
1111.100099	673.75
1111.659553	683.0
1112.218949	678.75
1112.778288	679.25
1113.33757	675.0
1113.896794	680.5
1114.45596	674.5
1115.015069	676.0
1115.574121	676.5
1116.133115	676.25
1116.692052	676.25
1117.250931	678.75
1117.809753	675.0
1118.368517	681.0
1118.927224	674.75
1119.485873	676.5
1120.044465	676.0
1120.603	672.25
1121.161477	676.75
1121.719897	676.75
1122.278259	674.75
1122.836564	676.5
1123.394812	680.0
1123.953002	672.75
1124.511135	675.25
1125.06921	672.75
1125.627228	678.5
1126.185189	676.0
1126.743092	677.75
1127.300938	677.75
1127.858726	676.75
1128.416457	678.5
1128.974131	677.75
1129.531748	675.0
1130.089307	677.5
1130.646808	674.5
1131.204252	675.0
1131.761639	676.25
1132.318969	675.25
1132.876241	678.25
1133.433456	676.25
1133.990614	678.5
1134.547714	672.5
1135.104757	679.5
1135.661743	674.25
1136.218671	676.0
1136.775542	673.75
1137.332356	673.75
1137.889112	673.75
1138.445811	676.0
1139.002453	677.0
1139.559037	674.0
1140.115565	673.75
1140.672035	675.0
1141.228447	674.75
1141.784803	676.0
1142.341101	673.5
1142.897342	675.0
1143.453525	673.25
1144.009651	675.0
1144.565721	674.25
1145.121732	674.25
1145.677687	678.25
1146.233584	676.25
1146.789424	679.5
1147.345207	676.75
1147.900933	678.75
1148.456601	674.5
1149.012212	675.5
1149.567766	677.0
1150.123263	674.25
1150.678702	676.25
1151.234085	675.0
1151.78941	675.25
1152.344678	674.5
1152.899888	675.25
1153.455042	677.0
1154.010138	675.25
1154.565177	676.0
1155.120159	678.75
1155.675084	675.25
1156.229951	680.0
1156.784762	674.75
1157.339515	674.5
1157.894211	679.25
1158.44885	674.0
1159.003432	676.0
1159.557956	673.5
1160.112424	674.5
1160.666834	678.5
1161.221187	675.25
1161.775483	673.75
1162.329722	677.5
1162.883904	675.0
1163.438029	675.0
1163.992096	671.0
1164.546107	673.25
1165.10006	678.0
1165.653956	674.25
1166.207795	674.25
1166.761577	676.0
1167.315302	674.5
1167.86897	678.5
1168.422581	674.5
1168.976134	673.25
1169.529631	673.75
1170.08307	677.25
1170.636453	675.0
1171.189778	671.75
1171.743046	675.5
1172.296257	675.25
1172.849412	678.0
1173.402509	677.75
1173.955549	677.5
1174.508532	677.0
1175.061458	675.25
1175.614327	674.75
1176.167138	672.0
1176.719893	675.0
1177.272591	675.0
1177.825232	673.75
1178.377816	674.5
1178.930342	674.0
1179.482812	676.75
1180.035225	678.0
1180.587581	677.25
1181.139879	672.5
1181.692121	675.25
1182.244306	673.25
1182.796434	675.0
1183.348504	675.25
1183.900518	675.5
1184.452475	676.5
1185.004375	676.0
1185.556218	676.5
1186.108004	674.75
1186.659733	674.25
1187.211405	676.75
1187.76302	673.5
1188.314578	673.25
1188.866079	676.25
1189.417523	676.25
1189.96891	674.25
1190.520241	674.5
1191.071514	669.5
1191.622731	678.0
1192.17389	675.25
1192.724993	676.25
1193.276039	697.0
1193.827027	676.75
1194.377959	674.0
1194.928834	674.25
1195.479653	678.0
1196.030414	675.5
1196.581118	676.0
1197.131766	672.25
1197.682356	674.5
1198.23289	675.25
1198.783367	673.0
1199.333786	675.75
1199.88415	678.0
1200.434456	675.75
1200.984705	670.75
1201.534898	673.25
1202.085033	673.25
1202.635112	674.0
1203.185134	673.5
1203.735099	674.25
1204.285007	676.0
1204.834859	677.0
1205.384653	674.75
1205.934391	676.0
1206.484072	675.75
1207.033696	678.25
1207.583263	674.5
1208.132774	677.75
1208.682228	673.25
1209.231624	677.5
1209.780965	674.25
1210.330248	676.0
1210.879474	673.75
1211.428644	678.5
1211.977757	675.5
1212.526813	674.5
1213.075813	677.75
1213.624755	676.25
1214.173641	675.75
1214.72247	675.25
1215.271242	675.0
1215.819958	675.25
1216.368617	676.5
1216.917219	674.25
1217.465764	677.75
1218.014253	673.0
1218.562685	672.75
1219.11106	676.25
1219.659378	675.25
1220.20764	676.0
1220.755845	672.75
1221.303993	675.75
1221.852085	675.0
1222.400119	675.0
1222.948097	680.25
1223.496019	677.0
1224.043883	675.75
1224.591691	676.75
1225.139443	674.75
1225.687137	677.5
1226.234775	678.75
1226.782357	676.25
1227.329881	675.75
1227.877349	679.0
1228.42476	674.25
1228.972115	674.75
1229.519413	673.5
1230.066654	677.25
1230.613839	675.75
1231.160967	677.0
1231.708038	679.0
1232.255053	674.0
1232.802011	677.5
1233.348912	673.5
1233.895757	674.5
1234.442545	681.0
1234.989277	673.0
1235.535951	674.75
1236.08257	674.25
1236.629131	675.75
1237.175636	673.0
1237.722085	676.0
1238.268477	679.75
1238.814812	674.25
1239.361091	675.75
1239.907313	674.5
1240.453478	676.25
1240.999587	676.0
1241.54564	672.75
1242.091636	676.25
1242.637575	675.5
1243.183457	680.25
1243.729284	674.25
1244.275053	671.5
1244.820766	677.5
1245.366423	679.0
1245.912022	678.5
1246.457566	672.75
1247.003053	676.5
1247.548483	676.75
1248.093857	677.75
1248.639174	673.0
1249.184435	677.5
1249.729639	677.0
1250.274787	677.25
1250.819878	674.0
1251.364912	674.75
1251.909891	678.5
1252.454812	676.75
1252.999677	675.0
1253.544486	680.75
1254.089238	676.75
1254.633934	673.75
1255.178573	676.25
1255.723156	674.75
1256.267682	677.5
1256.812152	680.25
1257.356565	679.0
1257.900922	676.25
1258.445223	678.75
1258.989467	680.0
1259.533654	674.5
1260.077785	687.25
1260.62186	679.5
1261.165878	677.0
1261.70984	684.25
1262.253745	683.0
1262.797594	689.0
1263.341386	695.75
1263.885123	695.75
1264.428802	695.5
1264.972425	692.5
1265.515992	686.25
1266.059503	682.25
1266.602957	682.0
1267.146354	679.25
1267.689696	680.0
1268.23298	679.25
1268.776209	680.75
1269.319381	678.75
1269.862497	679.5
1270.405556	678.75
1270.948559	678.75
1271.491506	678.5
1272.034396	675.75
1272.57723	676.75
1273.120007	679.0
1273.662728	679.5
1274.205393	677.25
1274.748002	679.0
1275.290554	681.25
1275.83305	679.75
1276.375489	675.75
1276.917872	681.75
1277.460199	679.0
1278.00247	679.5
1278.544684	684.0
1279.086842	686.25
1279.628943	682.5
1280.170989	691.75
1280.712978	693.0
1281.25491	701.0
1281.796787	709.0
1282.338607	751.5
1282.880371	805.5
1283.422078	899.5
1283.963729	984.5
1284.505324	994.5
1285.046863	902.5
1285.588345	785.75
1286.129772	735.0
1286.671142	704.75
1287.212455	694.0
1287.753713	685.75
1288.294914	683.75
1288.836059	686.75
1289.377147	681.0
1289.91818	681.75
1290.459156	680.0
1291.000076	679.5
1291.54094	679.75
1292.081747	676.0
1292.622499	680.25
1293.163194	681.75
1293.703833	678.25
1294.244415	674.25
1294.784942	677.5
1295.325412	678.0
1295.865826	675.75
1296.406184	677.0
1296.946486	678.25
1297.486731	678.5
1298.026921	675.5
1298.567054	679.75
1299.107131	678.75
1299.647152	675.75
1300.187116	676.5
1300.727025	674.25
1301.266877	676.75
1301.806673	677.75
1302.346413	675.75
1302.886097	676.75
1303.425725	674.5
1303.965297	677.75
1304.504812	679.0
1305.044272	678.25
1305.583675	675.75
1306.123022	675.0
1306.662313	678.5
1307.201548	678.5
1307.740727	674.25
1308.279849	676.75
1308.818916	677.75
1309.357926	676.75
1309.896881	680.0
1310.435779	673.75
1310.974621	675.75
1311.513407	678.5
1312.052137	675.5
1312.590811	676.0
1313.129429	675.5
1313.667991	673.5
1314.206497	672.75
1314.744946	675.75
1315.28334	672.0
1315.821678	675.75
1316.359959	674.25
1316.898184	675.75
1317.436354	673.25
1317.974467	673.5
1318.512525	675.0
1319.050526	675.5
1319.588471	675.25
1320.12636	674.0
1320.664194	674.0
1321.201971	676.0
1321.739692	675.0
1322.277357	676.5
1322.814967	674.0
1323.35252	678.5
1323.890017	678.25
1324.427458	673.5
1324.964843	674.75
1325.502173	675.5
1326.039446	677.25
1326.576663	675.5
1327.113824	674.75
1327.65093	674.0
1328.187979	676.5
1328.724972	674.5
1329.26191	676.25
1329.798791	674.5
1330.335617	672.0
1330.872386	675.75
1331.4091	673.25
1331.945758	673.0
1332.48236	672.5
1333.018905	673.25
1333.555395	674.75
1334.091829	675.25
1334.628207	673.25
1335.164529	673.5
1335.700796	676.5
1336.237006	676.25
1336.77316	672.0
1337.309259	673.25
1337.845301	674.75
1338.381288	673.5
1338.917219	675.25
1339.453094	675.75
1339.988913	676.5
1340.524676	674.75
1341.060383	671.75
1341.596034	676.0
1342.13163	673.75
1342.66717	670.25
1343.202653	675.75
1343.738081	679.25
1344.273453	677.0
1344.80877	677.0
1345.34403	674.0
1345.879235	676.0
1346.414383	673.75
1346.949476	673.0
1347.484513	672.25
1348.019494	673.25
1348.55442	674.25
1349.089289	676.25
1349.624103	674.0
1350.158861	675.0
1350.693563	674.75
1351.228209	675.25
1351.7628	676.0
1352.297334	672.25
1352.831813	672.5
1353.366236	677.75
1353.900604	675.75
1354.434915	675.75
1354.969171	674.0
1355.503371	675.25
1356.037515	675.5
1356.571604	676.0
1357.105636	673.25
1357.639613	675.5
1358.173535	674.0
1358.7074	677.75
1359.24121	675.0
1359.774964	672.75
1360.308662	674.5
1360.842304	676.5
1361.375891	676.25
1361.909422	674.0
1362.442897	677.5
1362.976317	675.0
1363.50968	673.5
1364.042989	675.75
1364.576241	678.5
1365.109438	676.0
1365.642579	677.25
1366.175664	679.25
1366.708693	678.5
1367.241667	675.5
1367.774585	677.0
1368.307448	678.0
1368.840255	678.75
1369.373006	678.0
1369.905701	681.5
1370.438341	691.0
1370.970925	681.25
1371.503454	677.25
1372.035926	680.0
1372.568344	672.0
1373.100705	682.0
1373.633011	680.0
1374.165261	675.75
1374.697456	683.25
1375.229595	680.25
1375.761678	679.75
1376.293705	678.0
1376.825677	677.5
1377.357594	677.25
1377.889455	682.0
1378.42126	684.0
1378.953009	683.5
1379.484703	680.5
1380.016342	683.75
1380.547924	679.5
1381.079452	685.0
1381.610923	690.75
1382.142339	683.5
1382.673699	684.75
1383.205004	686.75
1383.736253	693.0
1384.267447	693.5
1384.798585	701.0
1385.329668	709.5
1385.860695	728.25
1386.391666	768.75
1386.922582	855.25
1387.453442	1071.5
1387.984247	1314.5
1388.514996	1282.75
1389.04569	976.0
1389.576328	798.25
1390.10691	737.25
1390.637437	705.25
1391.167909	696.25
1391.698325	690.25
1392.228685	686.5
1392.75899	686.0
1393.28924	684.25
1393.819434	684.5
1394.349572	683.5
1394.879655	681.0
1395.409683	678.5
1395.939655	679.75
1396.469571	681.5
1396.999432	680.75
1397.529237	679.75
1398.058987	680.5
1398.588682	678.5
1399.118321	681.0
1399.647905	680.0
1400.177433	678.25
1400.706906	677.75
1401.236323	681.0
1401.765685	679.0
1402.294991	679.0
1402.824242	678.0
1403.353437	681.0
1403.882577	681.75
1404.411662	681.25
1404.940691	680.0
1405.469665	679.5
1405.998583	682.5
1406.527446	685.0
1407.056253	683.5
1407.585005	691.0
1408.113702	688.75
1408.642343	700.25
1409.170929	708.5
1409.69946	710.0
1410.227935	707.25
1410.756354	693.25
1411.284719	690.75
1411.813028	682.75
1412.341281	681.0
1412.869479	676.0
1413.397622	680.25
1413.92571	679.75
1414.453742	677.75
1414.981718	670.5
1415.50964	687.25
1416.037506	675.25
1416.565316	675.25
1417.093072	675.0
1417.620772	674.75
1418.148416	677.5
1418.676005	673.75
1419.203539	675.25
1419.731018	673.0
1420.258441	673.0
1420.785809	676.5
1421.313122	673.0
1421.840379	676.25
1422.367582	676.0
1422.894728	673.5
1423.42182	675.5
1423.948856	672.75
1424.475837	675.5
1425.002762	673.0
1425.529633	673.0
1426.056448	675.75
1426.583207	672.5
1427.109912	675.25
1427.636561	673.0
1428.163155	672.75
1428.689694	673.5
1429.216177	675.0
1429.742605	674.75
1430.268978	671.5
1430.795296	672.5
1431.321558	673.25
1431.847765	673.0
1432.373917	671.75
1432.900014	672.25
1433.426056	673.25
1433.952042	672.0
1434.477973	674.0
1435.003849	675.25
1435.529669	671.25
1436.055435	674.0
1436.581145	670.25
1437.1068	670.75
1437.632399	673.5
1438.157944	672.25
1438.683433	673.5
1439.208868	670.75
1439.734247	671.5
1440.25957	670.5
1440.784839	675.25
1441.310053	673.0
1441.835211	673.5
1442.360314	671.0
1442.885362	674.75
1443.410355	672.0
1443.935292	670.5
1444.460175	674.25
1444.985002	668.25
1445.509774	667.5
1446.034491	670.0
1446.559153	671.25
1447.08376	671.75
1447.608312	672.5
1448.132808	672.25
1448.65725	673.0
1449.181636	671.5
1449.705967	672.5
1450.230243	672.75
1450.754464	671.25
1451.27863	672.0
1451.802741	670.0
1452.326797	670.75
1452.850797	670.75
1453.374743	671.25
1453.898633	670.5
1454.422468	670.75
1454.946249	668.0
1455.469974	672.0
1455.993644	668.0
1456.517259	667.75
1457.040819	671.25
1457.564324	668.0
1458.087773	671.75
1458.611168	670.5
1459.134508	665.5
1459.657793	668.75
1460.181022	672.0
1460.704197	671.5
1461.227316	670.0
1461.750381	671.75
1462.27339	670.5
1462.796345	680.75
1463.319244	678.25
1463.842089	670.25
1464.364878	669.5
1464.887613	673.25
1465.410292	671.5
1465.932916	669.75
1466.455486	673.5
1466.978	669.0
1467.50046	670.25
1468.022864	671.0
1468.545214	672.0
1469.067508	672.25
1469.589748	671.0
1470.111932	668.75
1470.634062	671.5
1471.156136	670.75
1471.678156	668.25
1472.20012	670.5
1472.72203	670.75
1473.243885	673.25
1473.765685	671.0
1474.28743	668.5
1474.80912	671.0
1475.330755	668.75
1475.852335	669.75
1476.37386	671.0
1477.938106	668.0
1478.459411	666.75
1478.980662	669.75
1479.501857	668.5
1480.022998	670.25
1480.544084	669.5
1481.065115	669.75
1481.586091	671.5
1482.107012	670.75
1482.627878	671.75
1483.14869	670.5
1483.669446	668.5
1484.190148	668.0
1484.710794	671.5
1485.231386	670.0
1485.751923	670.25
1486.272406	671.25
1486.792833	670.0
1487.313205	670.75
1487.833523	670.75
1488.353786	668.5
1488.873994	669.0
1489.394147	666.0
1489.914245	669.75
1490.434288	668.5
1490.954277	668.0
1491.474211	672.25
1491.99409	667.75
1492.513914	671.0
1493.033683	669.75
1493.553398	667.75
1494.073057	669.5
1494.592662	670.25
1495.112212	669.0
1495.631708	670.25
1496.151148	669.0
1496.670534	666.25
1497.189865	670.0
1497.709141	668.0
1498.228362	672.25
1498.747529	667.5
1499.266641	667.0
1499.785698	677.25
1500.3047	670.0
1500.823648	670.75
1501.34254	668.5
1501.861379	672.75
1502.380162	669.25
1502.89889	670.0
1503.417564	671.0
1503.936183	673.5
1504.454748	669.25
1504.973257	664.75
1505.491712	669.25
1506.010112	672.75
1506.528458	669.75
1507.046748	670.5
1507.564984	666.5
1508.083166	666.0
1508.601292	670.0
1509.119364	667.25
1509.637381	668.5
1510.155344	669.25
1510.673252	678.75
1511.191105	668.5
1511.708903	670.5
1512.226647	667.0
1512.744336	668.0
1513.261971	671.0
1513.77955	670.25
1514.297076	668.75
1514.814546	669.0
1515.331962	667.75
1515.849323	669.5
1516.366629	667.5
1516.883881	667.5
1517.401078	666.0
1517.918221	670.0
1518.435309	667.75
1518.952342	669.25
1519.469321	667.0
1519.986245	668.25
1520.503114	669.0
1521.019929	669.0
1521.536689	670.25
1522.053395	672.0
1522.570046	671.0
1523.086642	670.5
1523.603184	669.5
1524.119671	667.5
1524.636103	666.5
1525.152481	670.0
1525.668805	676.5
1526.185073	676.5
1526.701288	669.25
1527.217447	669.0
1527.733552	669.25
1528.249603	667.75
1528.765599	668.5
1529.28154	670.25
1529.797427	669.0
1530.313259	668.25
1530.829037	665.25
1531.34476	669.25
1531.860429	669.0
1532.376043	670.25
1532.891602	668.0
1533.407107	671.0
1533.922558	670.0
1534.437954	666.25
1534.953295	667.75
1535.468582	670.5
1537.014116	668.25
1537.529185	669.5
1538.044199	670.5
1538.559159	668.5
1539.074064	668.0
1539.588915	668.5
1540.103712	667.5
1540.618454	669.25
1541.133141	671.0
1541.647774	668.0
1542.162353	666.5
1542.676877	667.5
1543.191346	665.25
1543.705761	668.25
1544.220122	668.5
1544.734428	668.75
1545.24868	669.5
1545.762877	668.75
1546.27702	669.25
1546.791109	667.75
1547.305143	669.0
1547.819122	669.5
1548.333047	668.75
1548.846918	669.5
1549.360734	668.0
1549.874496	668.25
1550.388204	669.25
1550.901857	668.75
1551.415455	667.75
1551.929	668.75
1552.442489	669.5
1552.955925	666.0
1553.469306	668.75
1553.982632	665.75
1554.495905	667.75
1555.009123	669.5
1555.522286	670.25
1556.035395	668.75
1556.54845	668.75
1557.06145	671.5
1557.574396	670.25
1558.087288	671.25
1558.600125	668.5
1559.112908	670.75
1559.625637	669.75
1560.138311	664.75
1560.650931	667.5
1561.163497	669.75
1561.676008	671.75
1562.188465	667.75
1562.700867	673.25
1563.213216	668.5
1563.725509	667.5
1564.237749	673.25
1564.749934	671.75
1565.262065	668.25
1565.774142	666.5
1566.286164	670.25
1566.798132	666.5
1567.310046	669.0
1567.821906	668.75
1568.333711	669.0
1568.845462	670.25
1569.357158	665.0
1569.868801	667.75
1570.380389	667.5
1570.891922	667.75
1571.403402	670.0
1571.914827	668.5
1572.426198	667.0
1572.937515	669.25
1573.448777	667.0
1573.959985	667.75
1574.471139	666.25
1574.982239	670.75
1575.493285	667.0
1576.004276	667.75
1576.515213	669.75
1577.026096	667.75
1577.536924	668.75
1578.047698	670.0
1578.558419	667.75
1579.069084	666.5
1579.579696	665.25
1580.090254	667.25
1580.600757	669.0
1581.111206	664.75
1581.621601	668.0
1582.131941	669.0
1582.642228	668.25
1583.15246	669.75
1583.662638	669.0
1584.172762	670.25
1584.682832	666.5
1585.192847	669.0
1585.702809	664.25
1586.212716	668.25
1586.722569	664.75
1587.232368	665.5
1587.742113	668.5
1588.251803	667.75
1588.76144	664.0
1589.271022	666.0
1589.78055	668.5
1590.290024	663.75
1590.799444	668.75
1591.30881	668.0
1591.818121	667.25
1592.327379	666.75
