1042.414189	737.25
1042.980685	735.75
1043.547124	734.5
1044.113505	731.0
1044.679828	730.0
1045.246093	723.0
1045.8123	723.5
1046.378449	726.25
1046.94454	726.75
1047.510573	725.75
1048.076548	725.5
1048.642465	720.75
1049.208325	723.5
1049.774126	720.0
1050.339869	720.75
1050.905555	723.5
1051.471183	717.25
1052.036752	718.5
1052.602264	717.75
1053.167718	718.0
1053.733114	718.75
1054.298452	715.25
1054.863733	720.5
1055.428955	719.5
1055.994119	718.25
1056.559226	711.5
1057.124275	717.25
1057.689266	721.75
1058.254199	717.75
1058.819074	716.0
1059.383891	714.75
1059.94865	714.5
1060.513352	712.75
1061.077996	715.75
1061.642582	714.5
1062.20711	717.5
1062.77158	719.25
1063.335992	708.0
1063.900347	713.75
1064.464643	713.25
1065.028882	712.25
1065.593063	715.25
1066.157187	712.0
1066.721252	712.5
1067.28526	708.75
1067.84921	712.0
1068.413102	717.0
1068.976936	710.75
1069.540713	710.75
1070.104431	721.75
1070.668092	715.25
1071.231696	714.25
1071.795241	714.25
1072.358729	711.5
1072.922159	710.5
1073.485531	711.75
1074.048845	711.5
1074.612102	708.75
1075.175301	706.0
1075.738442	713.25
1076.301525	712.5
1076.864551	713.75
1077.427519	711.5
1077.990429	710.5
1078.553281	714.5
1079.116076	712.25
1079.678813	707.25
1080.241492	711.25
1080.804114	711.0
1081.366678	708.5
1081.929184	710.75
1082.491633	712.75
1083.054024	711.25
1083.616357	712.5
1084.178632	712.0
1084.74085	714.5
1085.30301	711.0
1085.865113	716.75
1086.427158	715.5
1086.989145	715.5
1087.551074	716.5
1088.112946	710.5
1088.67476	712.75
1089.236517	717.0
1089.798216	711.0
1090.359857	713.5
1090.92144	713.5
1091.482966	713.25
1092.044435	709.25
1092.605845	712.5
1093.167199	715.0
1093.728494	713.5
1094.289732	710.75
1094.850912	719.5
1095.412035	727.5
1095.9731	715.5
1096.534107	711.5
1097.095057	717.5
1097.65595	711.25
1098.216784	712.25
1098.777561	713.25
1099.338281	714.5
1099.898943	712.0
1100.459547	708.25
1101.020094	711.5
1101.580584	707.25
1102.141015	714.25
1102.701389	713.75
1103.261706	717.0
1103.821965	714.0
1104.382167	716.0
1104.942311	714.5
1105.502397	715.0
1106.062426	719.0
1106.622398	719.75
1107.182312	719.5
1107.742168	715.75
1108.301967	718.75
1108.861708	719.5
1109.421392	723.0
1109.981019	721.5
1110.540587	723.5
1111.100099	726.5
1111.659553	726.75
1112.218949	722.5
1112.778288	726.75
1113.33757	729.0
1113.896794	728.5
1114.45596	726.75
1115.015069	727.0
1115.574121	720.0
1116.133115	725.5
1116.692052	724.75
1117.250931	724.0
1117.809753	722.75
1118.368517	710.25
1118.927224	719.25
1119.485873	716.0
1120.044465	714.25
1120.603	713.75
1121.161477	714.75
1121.719897	717.25
1122.278259	713.5
1122.836564	715.75
1123.394812	719.5
1123.953002	711.5
1124.511135	715.5
1125.06921	712.0
1125.627228	708.5
1126.185189	711.75
1126.743092	717.75
1127.300938	715.5
1127.858726	714.5
1128.416457	714.0
1128.974131	709.25
1129.531748	710.75
1130.089307	715.75
1130.646808	711.25
1131.204252	713.25
1131.761639	709.0
1132.318969	714.0
1132.876241	710.0
1133.433456	713.0
1133.990614	707.25
1134.547714	712.25
1135.104757	712.5
1135.661743	709.75
1136.218671	714.25
1136.775542	708.0
1137.332356	710.25
1137.889112	711.25
1138.445811	712.25
1139.002453	714.0
1139.559037	712.75
1140.115565	710.25
1140.672035	710.5
1141.228447	708.75
1141.784803	709.5
1142.341101	710.0
1142.897342	714.5
1143.453525	714.25
1144.009651	711.0
1144.565721	712.5
1145.121732	710.25
1145.677687	710.0
1146.233584	715.0
1146.789424	715.25
1147.345207	714.75
1147.900933	718.75
1148.456601	711.5
1149.012212	717.5
1149.567766	720.25
1150.123263	720.5
1150.678702	754.25
1151.234085	763.25
1151.78941	730.0
1152.344678	721.0
1152.899888	712.5
1153.455042	714.25
1154.010138	710.25
1154.565177	717.75
1155.120159	712.0
1155.675084	712.25
1156.229951	713.5
1156.784762	713.0
1157.339515	710.5
1157.894211	710.25
1158.44885	711.5
1159.003432	710.5
1159.557956	705.0
1160.112424	714.25
1160.666834	714.5
1161.221187	711.5
1161.775483	709.25
1162.329722	710.25
1162.883904	708.75
1163.438029	709.25
1163.992096	712.5
1164.546107	711.75
1165.10006	713.5
1165.653956	706.75
1166.207795	713.25
1166.761577	713.75
1167.315302	709.0
1167.86897	714.75
1168.422581	711.25
1168.976134	711.75
1169.529631	710.75
1170.08307	712.75
1170.636453	706.75
1171.189778	716.5
1171.743046	714.0
1172.296257	712.75
1172.849412	709.75
1173.402509	707.25
1173.955549	706.25
1174.508532	710.5
1175.061458	714.25
1175.614327	716.25
1176.167138	712.0
1176.719893	714.0
1177.272591	710.5
1177.825232	712.25
1178.377816	713.75
1178.930342	710.0
1179.482812	714.5
1180.035225	716.5
1180.587581	712.0
1181.139879	716.5
1181.692121	716.25
1182.244306	714.0
1182.796434	719.0
1183.348504	722.0
1183.900518	717.0
1184.452475	722.75
1185.004375	716.75
1185.556218	724.0
1186.108004	721.5
1186.659733	721.75
1187.211405	720.0
1187.76302	721.0
1188.314578	721.75
1188.866079	722.0
1189.417523	721.5
1189.96891	719.75
1190.520241	715.0
1191.071514	719.0
1191.622731	717.75
1192.17389	715.0
1192.724993	717.25
1193.276039	739.5
1193.827027	718.5
1194.377959	714.25
1194.928834	712.0
1195.479653	713.0
1196.030414	708.0
1196.581118	714.75
1197.131766	708.75
1197.682356	708.0
1198.23289	718.5
1198.783367	708.75
1199.333786	709.5
1199.88415	716.25
1200.434456	709.75
1200.984705	706.5
1201.534898	714.25
1202.085033	712.25
1202.635112	708.25
1203.185134	716.25
1203.735099	709.75
1204.285007	712.5
1204.834859	717.75
1205.384653	708.0
1205.934391	717.5
1206.484072	710.0
1207.033696	713.25
1207.583263	716.0
1208.132774	715.25
1208.682228	714.25
1209.231624	712.75
1209.780965	714.5
1210.330248	709.25
1210.879474	717.25
1211.428644	717.0
1211.977757	713.25
1212.526813	712.25
1213.075813	715.5
1213.624755	718.0
1214.173641	713.5
1214.72247	721.5
1215.271242	718.25
1215.819958	718.0
1216.368617	719.75
1216.917219	711.75
1217.465764	717.0
1218.014253	713.0
1218.562685	719.25
1219.11106	714.0
1219.659378	720.5
1220.20764	714.5
1220.755845	719.5
1221.303993	720.0
1221.852085	722.75
1222.400119	711.75
1222.948097	715.5
1223.496019	722.0
1224.043883	718.75
1224.591691	722.0
1225.139443	720.0
1225.687137	724.5
1226.234775	721.25
1226.782357	720.0
1227.329881	718.5
1227.877349	718.5
1228.42476	727.0
1228.972115	722.5
1229.519413	721.75
1230.066654	720.5
1230.613839	719.5
1231.160967	718.0
1231.708038	722.5
1232.255053	720.5
1232.802011	723.5
1233.348912	718.25
1233.895757	715.75
1234.442545	718.5
1234.989277	723.5
1235.535951	720.75
1236.08257	719.5
1236.629131	718.5
1237.175636	716.75
1237.722085	717.25
1238.268477	715.0
1238.814812	713.5
1239.361091	718.0
1239.907313	718.75
1240.453478	715.75
1240.999587	721.0
1241.54564	719.25
1242.091636	718.0
1242.637575	714.75
1243.183457	713.5
1243.729284	720.75
1244.275053	719.0
1244.820766	717.0
1245.366423	720.0
1245.912022	720.5
1246.457566	717.75
1247.003053	722.0
1247.548483	719.5
1248.093857	720.0
1248.639174	718.0
1249.184435	722.25
1249.729639	719.5
1250.274787	714.75
1250.819878	723.75
1251.364912	720.5
1251.909891	716.25
1252.454812	717.25
1252.999677	719.25
1253.544486	721.75
1254.089238	721.75
1254.633934	719.75
1255.178573	721.75
1255.723156	719.0
1256.267682	717.25
1256.812152	719.5
1257.356565	717.0
1257.900922	720.0
1258.445223	718.5
1258.989467	724.25
1259.533654	724.25
1260.077785	733.5
1260.62186	716.0
1261.165878	721.75
1261.70984	722.5
1262.253745	714.5
1262.797594	720.75
1263.341386	726.5
1263.885123	729.75
1264.428802	739.25
1264.972425	755.25
1265.515992	753.0
1266.059503	739.75
1266.602957	729.5
1267.146354	726.75
1267.689696	721.0
1268.23298	722.25
1268.776209	713.0
1269.319381	722.75
1269.862497	716.5
1270.405556	716.25
1270.948559	717.25
1271.491506	719.5
1272.034396	715.25
1272.57723	718.75
1273.120007	716.25
1273.662728	719.75
1274.205393	717.0
1274.748002	711.0
1275.290554	718.75
1275.83305	716.75
1276.375489	718.75
1276.917872	716.25
1277.460199	716.0
1278.00247	716.5
1278.544684	715.5
1279.086842	715.75
1279.628943	719.75
1280.170989	723.0
1280.712978	716.75
1281.25491	725.5
1281.796787	723.0
1282.338607	729.5
1282.880371	738.5
1283.422078	753.25
1283.963729	801.0
1284.505324	913.75
1285.046863	1183.0
1285.588345	1357.25
1286.129772	1093.0
1286.671142	846.0
1287.212455	762.75
1287.753713	737.5
1288.294914	732.25
1288.836059	729.75
1289.377147	729.25
1289.91818	723.5
1290.459156	722.0
1291.000076	721.5
1291.54094	725.5
1292.081747	721.75
1292.622499	718.25
1293.163194	721.5
1293.703833	722.5
1294.244415	723.75
1294.784942	718.75
1295.325412	720.0
1295.865826	720.0
1296.406184	723.0
1296.946486	718.25
1297.486731	721.0
1298.026921	718.0
1298.567054	719.0
1299.107131	720.0
1299.647152	725.75
1300.187116	718.0
1300.727025	716.0
1301.266877	718.5
1301.806673	720.75
1302.346413	715.75
1302.886097	719.0
1303.425725	718.75
1303.965297	720.5
1304.504812	719.25
1305.044272	717.5
1305.583675	717.75
1306.123022	712.75
1306.662313	717.75
1307.201548	718.0
1307.740727	718.25
1308.279849	723.25
1308.818916	715.0
1309.357926	715.25
1309.896881	718.5
1310.435779	717.75
1310.974621	718.75
1311.513407	713.0
1312.052137	715.0
1312.590811	718.0
1313.129429	716.25
1313.667991	715.5
1314.206497	716.75
1314.744946	712.0
1315.28334	717.5
1315.821678	716.0
1316.359959	705.5
1316.898184	714.0
1317.436354	713.5
1317.974467	715.5
1318.512525	712.5
1319.050526	714.25
1319.588471	714.0
1320.12636	713.75
1320.664194	715.75
1321.201971	713.0
1321.739692	715.5
1322.277357	714.75
1322.814967	705.75
1323.35252	709.0
1323.890017	714.25
1324.427458	707.25
1324.964843	714.5
1325.502173	709.75
1326.039446	711.75
1326.576663	713.0
1327.113824	713.0
1327.65093	714.0
1328.187979	710.0
1328.724972	712.25
1329.26191	712.25
1329.798791	713.75
1330.335617	710.25
1330.872386	708.25
1331.4091	709.25
1331.945758	711.25
1332.48236	714.5
1333.018905	707.25
1333.555395	706.0
1334.091829	710.0
1334.628207	712.5
1335.164529	710.5
1335.700796	711.0
1336.237006	712.75
1336.77316	717.25
1337.309259	711.75
1337.845301	710.0
1338.381288	709.75
1338.917219	713.25
1339.453094	713.5
1339.988913	713.5
1340.524676	708.75
1341.060383	709.75
1341.596034	712.25
1342.13163	707.75
1342.66717	711.75
1343.202653	712.25
1343.738081	712.75
1344.273453	708.0
1344.80877	711.5
1345.34403	711.25
1345.879235	705.5
1346.414383	708.25
1346.949476	712.5
1347.484513	712.75
1348.019494	711.25
1348.55442	713.75
1349.089289	711.0
1349.624103	714.5
1350.158861	709.25
1350.693563	711.25
1351.228209	714.0
1351.7628	712.25
1352.297334	717.5
1352.831813	713.5
1353.366236	718.25
1353.900604	713.0
1354.434915	713.25
1354.969171	713.0
1355.503371	710.0
1356.037515	711.75
1356.571604	710.5
1357.105636	715.0
1357.639613	715.5
1358.173535	714.25
1358.7074	711.0
1359.24121	711.75
1359.774964	709.75
1360.308662	710.75
1360.842304	712.0
1361.375891	712.5
1361.909422	716.5
1362.442897	714.25
1362.976317	714.25
1363.50968	705.5
1364.042989	714.25
1364.576241	715.75
1365.109438	709.5
1365.642579	715.5
1366.175664	716.75
1366.708693	712.0
1367.241667	713.75
1367.774585	712.0
1368.307448	714.0
1368.840255	711.75
1369.373006	715.75
1369.905701	718.5
1370.438341	730.0
1370.970925	729.75
1371.503454	716.0
1372.035926	716.25
1372.568344	716.25
1373.100705	718.0
1373.633011	714.0
1374.165261	712.5
1374.697456	711.75
1375.229595	710.0
1375.761678	709.75
1376.293705	715.75
1376.825677	713.0
1377.357594	716.75
1377.889455	716.25
1378.42126	713.0
1378.953009	714.5
1379.484703	719.25
1380.016342	712.25
1380.547924	712.5
1381.079452	716.75
1381.610923	717.75
1382.142339	716.0
1382.673699	715.0
1383.205004	721.0
1383.736253	718.25
1384.267447	716.5
1384.798585	721.5
1385.329668	728.25
1385.860695	735.75
1386.391666	746.75
1386.922582	760.25
1387.453442	813.0
1387.984247	986.0
1388.514996	1564.5
1389.04569	1899.75
1389.576328	1197.25
1390.10691	852.25
1390.637437	757.0
1391.167909	739.75
1391.698325	730.5
1392.228685	727.0
1392.75899	725.5
1393.28924	720.75
1393.819434	722.5
1394.349572	719.5
1394.879655	713.25
1395.409683	715.5
1395.939655	714.5
1396.469571	714.0
1396.999432	718.0
1397.529237	715.75
1398.058987	717.75
1398.588682	719.0
1399.118321	712.5
1399.647905	713.5
1400.177433	713.25
1400.706906	719.5
1401.236323	718.0
1401.765685	715.25
1402.294991	716.75
1402.824242	708.5
1403.353437	716.75
1403.882577	715.25
1404.411662	714.75
1404.940691	713.5
1405.469665	716.25
1405.998583	717.5
1406.527446	716.5
1407.056253	718.0
1407.585005	718.25
1408.113702	725.5
1408.642343	725.25
1409.170929	741.75
1409.69946	766.25
1410.227935	795.0
1410.756354	778.0
1411.284719	745.5
1411.813028	729.0
1412.341281	713.75
1412.869479	715.5
1413.397622	714.0
1413.92571	718.25
1414.453742	716.25
1414.981718	716.0
1415.50964	728.0
1416.037506	715.0
1416.565316	709.0
1417.093072	714.0
1417.620772	715.25
1418.148416	714.75
1418.676005	712.75
1419.203539	711.0
1419.731018	710.0
1420.258441	720.25
1420.785809	716.25
1421.313122	714.25
1421.840379	710.75
1422.367582	713.25
1422.894728	714.0
1423.42182	715.0
1423.948856	715.0
1424.475837	712.0
1425.002762	716.25
1425.529633	712.5
1426.056448	714.5
1426.583207	713.0
1427.109912	718.25
1427.636561	711.75
1428.163155	715.25
1428.689694	713.5
1429.216177	713.75
1429.742605	712.0
1430.268978	711.75
1430.795296	712.5
1431.321558	710.75
1431.847765	707.25
1432.373917	711.0
1432.900014	709.25
1433.426056	708.75
1433.952042	712.75
1434.477973	711.0
1435.003849	715.75
1435.529669	713.75
1436.055435	713.5
1436.581145	709.75
1437.1068	707.25
1437.632399	715.75
1438.157944	714.0
1438.683433	715.5
1439.208868	715.25
1439.734247	714.0
1440.25957	715.5
1440.784839	718.0
1441.310053	711.75
1441.835211	716.75
1442.360314	715.0
1442.885362	716.5
1443.410355	714.5
1443.935292	711.75
1444.460175	718.0
1444.985002	714.75
1445.509774	714.75
1446.034491	714.0
1446.559153	718.5
1447.08376	714.5
1447.608312	714.25
1448.132808	709.75
1448.65725	719.25
1449.181636	714.25
1449.705967	711.75
1450.230243	715.5
1450.754464	709.75
1451.27863	713.5
1451.802741	711.75
1452.326797	713.5
1452.850797	713.75
1453.374743	717.75
1453.898633	712.75
1454.422468	713.25
1454.946249	715.5
1455.469974	714.75
1455.993644	716.5
1456.517259	714.0
1457.040819	717.5
1457.564324	710.25
1458.087773	719.25
1458.611168	714.25
1459.134508	712.75
1459.657793	715.75
1460.181022	715.25
1460.704197	714.25
1461.227316	717.5
1461.750381	714.5
1462.27339	717.75
1462.796345	747.0
1463.319244	733.75
1463.842089	716.75
1464.364878	713.0
1464.887613	717.0
1466.455486	722.25
1466.978	711.75
1467.50046	709.75
1468.022864	713.0
1468.545214	707.25
1469.067508	716.75
1469.589748	709.5
1470.111932	714.75
1470.634062	715.25
1471.156136	714.25
1471.678156	711.0
1472.20012	708.75
1472.72203	707.0
1473.243885	717.0
1473.765685	714.0
1474.28743	714.25
1474.80912	717.5
1475.330755	709.25
1475.852335	707.5
1476.37386	710.5
1476.89533	706.0
1477.416745	711.0
1477.938106	707.25
1478.459411	710.5
1478.980662	713.25
1479.501857	708.25
1480.022998	708.25
1480.544084	703.75
1481.065115	710.0
1481.586091	710.0
1482.107012	708.0
1482.627878	709.75
1483.14869	709.25
1483.669446	706.75
1484.190148	705.0
1484.710794	712.5
1485.231386	708.75
1485.751923	711.5
1486.272406	706.75
1486.792833	705.5
1487.313205	712.25
1487.833523	708.75
1488.353786	705.25
1488.873994	706.75
1489.394147	708.75
1489.914245	703.75
1490.434288	704.0
1490.954277	704.5
1491.474211	702.75
1491.99409	705.5
1492.513914	705.75
1493.033683	703.75
1493.553398	709.0
1494.073057	709.0
1494.592662	704.0
1495.112212	704.75
1495.631708	706.75
1496.151148	705.5
1496.670534	709.0
1497.189865	706.25
1497.709141	705.75
1498.228362	708.75
1498.747529	708.0
1499.266641	707.25
1499.785698	712.25
1500.3047	705.5
1500.823648	705.25
1501.34254	707.0
1501.861379	703.25
1502.380162	705.5
1502.89889	704.0
1503.417564	711.0
1503.936183	707.75
1504.454748	706.75
1504.973257	707.25
1505.491712	708.0
1506.010112	707.5
1506.528458	703.75
1507.046748	704.5
1507.564984	710.0
1508.083166	703.75
1508.601292	704.25
1509.119364	707.0
1509.637381	706.75
1510.155344	706.75
1510.673252	714.75
1511.191105	709.5
1511.708903	700.0
1512.226647	710.0
1512.744336	710.5
1513.261971	707.75
1513.77955	705.0
1514.297076	703.25
1514.814546	701.5
1515.331962	707.75
1515.849323	705.5
1516.366629	701.5
1516.883881	707.75
1517.401078	704.25
1517.918221	704.25
1518.435309	708.5
1518.952342	704.0
1519.469321	705.5
1519.986245	706.5
1520.503114	705.5
1521.019929	703.25
1521.536689	707.5
1522.053395	706.0
1522.570046	702.5
1523.086642	707.75
1523.603184	705.0
1524.119671	707.0
1524.636103	704.5
1525.152481	706.25
1525.668805	721.0
1526.185073	722.25
1526.701288	710.75
1527.217447	705.75
1527.733552	705.5
1528.249603	704.0
1528.765599	708.5
1529.28154	709.5
1529.797427	700.25
1530.313259	709.25
1530.829037	706.0
1531.34476	703.0
1531.860429	698.75
1532.376043	702.75
1532.891602	707.0
1533.407107	699.25
1533.922558	707.5
1534.437954	706.5
1534.953295	703.25
1535.468582	704.0
1535.983815	706.75
1536.498993	705.75
1537.014116	703.25
1537.529185	700.5
1538.044199	703.75
1538.559159	707.25
1539.074064	706.25
1539.588915	705.5
1540.103712	706.75
1540.618454	702.0
1541.133141	700.25
1541.647774	705.25
1542.162353	708.5
1542.676877	699.0
1543.191346	705.75
1543.705761	704.0
1544.220122	702.25
1544.734428	701.5
1545.24868	703.5
1545.762877	699.5
1546.27702	707.25
1546.791109	705.0
1547.305143	704.5
1547.819122	703.75
1548.333047	705.5
1548.846918	706.75
1549.360734	707.75
1549.874496	705.5
1550.388204	700.0
1550.901857	708.75
1551.415455	707.5
1551.929	706.0
1552.442489	703.5
1552.955925	703.25
1553.469306	702.25
1553.982632	709.0
1554.495905	706.25
1555.009123	701.5
1555.522286	703.75
1556.035395	707.5
1556.54845	702.75
1557.06145	704.0
1557.574396	705.25
1558.087288	707.0
1558.600125	701.5
1559.112908	709.25
1559.625637	707.0
1560.138311	703.25
1560.650931	705.25
1561.163497	702.5
1561.676008	705.0
1562.188465	707.75
1562.700867	707.0
1563.213216	709.0
1563.725509	709.75
1564.237749	705.25
1564.749934	704.0
1565.262065	710.75
1565.774142	708.5
1566.286164	707.5
1566.798132	705.75
1567.310046	707.0
1567.821906	707.5
1568.333711	702.5
1568.845462	708.25
1569.357158	708.5
1569.868801	704.25
1570.380389	706.0
1570.891922	707.0
1571.403402	709.5
1571.914827	711.5
1572.426198	706.25
1572.937515	710.5
1573.448777	708.0
1573.959985	707.75
1574.471139	708.25
1574.982239	708.0
1575.493285	706.25
1576.004276	705.25
1576.515213	704.75
1577.026096	705.25
1577.536924	707.0
1578.047698	708.5
1578.558419	708.75
1579.069084	705.25
1579.579696	710.5
1580.090254	711.25
1580.600757	710.5
1581.111206	710.75
1581.621601	703.75
1582.131941	709.75
1582.642228	710.25
1583.15246	705.5
1583.662638	706.25
1584.172762	709.25
1584.682832	706.0
1585.192847	704.0
1585.702809	704.25
1586.212716	710.75
1586.722569	709.0
1587.232368	704.75
1587.742113	704.5
1588.251803	705.25
1588.76144	702.5
1589.271022	709.5
1589.78055	706.0
1590.290024	702.25
1590.799444	708.0
1591.30881	707.0
1591.818121	705.0
1592.327379	705.25
