1042.414189	690.25
1042.980685	686.0
1043.547124	687.5
1044.113505	681.75
1044.679828	687.25
1045.246093	682.0
1045.8123	682.5
1046.378449	688.25
1046.94454	683.5
1047.510573	680.0
1048.076548	677.0
1048.642465	682.75
1049.208325	682.75
1049.774126	677.75
1050.339869	677.75
1050.905555	680.75
1051.471183	678.25
1052.036752	677.25
1052.602264	677.0
1053.167718	680.75
1053.733114	677.75
1054.298452	680.75
1054.863733	678.5
1055.428955	679.25
1055.994119	673.25
1056.559226	680.0
1057.124275	680.25
1057.689266	679.25
1058.254199	677.0
1058.819074	680.75
1059.383891	675.25
1059.94865	677.0
1060.513352	673.75
1061.077996	674.75
1061.642582	677.75
1062.20711	675.25
1062.77158	676.25
1063.335992	676.25
1063.900347	678.0
1064.464643	677.25
1065.028882	670.0
1065.593063	678.75
1066.157187	677.5
1066.721252	676.0
1067.28526	678.0
1067.84921	676.5
1068.413102	676.0
1068.976936	674.5
1069.540713	671.0
1070.104431	682.75
1070.668092	673.75
1071.231696	678.25
1071.795241	675.5
1072.358729	676.0
1072.922159	676.25
1073.485531	675.75
1074.048845	674.5
1074.612102	676.5
1075.175301	672.0
1075.738442	674.75
1076.301525	675.25
1076.864551	675.5
1077.427519	676.5
1077.990429	671.75
1078.553281	676.75
1079.116076	670.5
1079.678813	672.0
1080.241492	673.75
1080.804114	670.75
1081.366678	673.5
1081.929184	675.0
1082.491633	677.25
1083.054024	671.75
1083.616357	676.75
1084.178632	675.75
1084.74085	674.0
1085.30301	674.75
1085.865113	676.75
1086.427158	675.75
1086.989145	674.75
1087.551074	674.75
1088.112946	674.0
1088.67476	673.5
1089.236517	673.0
1089.798216	674.25
1090.359857	673.0
1090.92144	678.25
1091.482966	676.25
1092.044435	674.0
1092.605845	675.75
1093.167199	676.0
1093.728494	673.0
1094.289732	676.5
1094.850912	672.0
1095.412035	689.0
1095.9731	673.25
1096.534107	674.75
1097.095057	681.5
1097.65595	674.0
1098.216784	673.75
1098.777561	674.75
1099.338281	673.5
1099.898943	673.5
1100.459547	674.25
1101.020094	673.5
1101.580584	673.75
1102.141015	674.0
1102.701389	674.25
1103.261706	673.0
1103.821965	675.75
1104.382167	672.5
1104.942311	672.5
1105.502397	674.0
1106.062426	674.5
1106.622398	676.75
1107.182312	674.25
1107.742168	675.75
1108.301967	675.5
1108.861708	673.5
1109.421392	676.0
1109.981019	675.0
1110.540587	675.0
1111.100099	677.75
1111.659553	675.5
1112.218949	677.75
1112.778288	677.0
1113.33757	681.75
1113.896794	679.0
1114.45596	673.25
1115.015069	678.25
1115.574121	673.75
1116.133115	676.75
1116.692052	678.75
1117.250931	676.5
1117.809753	676.0
1118.368517	677.75
1118.927224	672.0
1119.485873	674.75
1120.044465	675.5
1120.603	673.5
1121.161477	675.5
1121.719897	673.25
1122.278259	676.0
1122.836564	674.0
1123.394812	672.5
1123.953002	674.75
1124.511135	669.75
1125.06921	676.0
1125.627228	673.25
1126.185189	672.25
1126.743092	675.5
1127.300938	674.75
1127.858726	673.5
1128.416457	674.0
1128.974131	672.0
1129.531748	672.5
1130.089307	674.75
1130.646808	673.5
1131.204252	673.25
1131.761639	670.5
1132.318969	672.75
1132.876241	675.25
1133.433456	672.5
1133.990614	671.5
1134.547714	673.75
1135.104757	671.25
1135.661743	672.25
1136.218671	673.75
1136.775542	672.5
1137.332356	675.75
1137.889112	674.75
1138.445811	675.0
1139.002453	673.25
1139.559037	674.25
1140.115565	672.25
1140.672035	673.0
1141.228447	672.0
1141.784803	670.5
1142.341101	674.25
1142.897342	677.0
1143.453525	673.5
1144.009651	673.75
1144.565721	673.75
1145.121732	670.5
1145.677687	675.5
1146.233584	675.75
1146.789424	673.25
1147.345207	673.25
1147.900933	672.5
1148.456601	674.5
1149.012212	672.75
1149.567766	674.0
1150.123263	671.5
1150.678702	672.25
1151.234085	672.5
1151.78941	675.25
1152.344678	674.25
1152.899888	672.0
1153.455042	672.0
1154.010138	674.75
1154.565177	673.75
1155.120159	671.75
1155.675084	671.75
1156.229951	674.0
1156.784762	672.75
1157.339515	673.75
1157.894211	673.75
1158.44885	672.75
1159.003432	671.0
1159.557956	671.25
1160.112424	673.75
1160.666834	674.75
1161.221187	670.5
1161.775483	672.25
1162.329722	673.5
1162.883904	674.25
1163.438029	675.5
1163.992096	672.0
1164.546107	673.75
1165.10006	670.0
1165.653956	672.0
1166.207795	671.75
1166.761577	673.25
1167.315302	672.25
1167.86897	669.0
1168.422581	672.25
1168.976134	675.0
1169.529631	673.25
1170.08307	672.5
1170.636453	671.25
1171.189778	673.0
1171.743046	674.75
1172.296257	672.75
1172.849412	672.0
1173.402509	670.5
1173.955549	673.25
1174.508532	673.0
1175.061458	673.25
1175.614327	670.75
1176.167138	672.5
1176.719893	674.5
1177.272591	674.25
1177.825232	672.5
1178.377816	674.0
1178.930342	671.5
1179.482812	675.25
1180.035225	674.25
1180.587581	676.25
1181.139879	671.5
1181.692121	677.25
1182.244306	674.5
1182.796434	673.25
1183.348504	676.5
1183.900518	672.25
1184.452475	674.5
1185.004375	677.0
1185.556218	675.75
1186.108004	676.5
1186.659733	673.75
1187.211405	672.0
1187.76302	675.25
1188.314578	678.75
1188.866079	678.75
1189.417523	672.75
1189.96891	676.5
1190.520241	674.5
1191.071514	674.75
1191.622731	674.5
1192.17389	672.5
1192.724993	678.0
1193.276039	696.5
1193.827027	672.75
1194.377959	675.0
1194.928834	676.0
1195.479653	673.0
1196.030414	675.5
1196.581118	675.0
1197.131766	674.25
1197.682356	672.75
1198.23289	672.5
1198.783367	673.75
1199.333786	673.5
1199.88415	672.0
1200.434456	672.0
1200.984705	674.5
1201.534898	674.5
1202.085033	673.0
1202.635112	674.0
1203.185134	671.5
1203.735099	669.0
1204.285007	676.0
1204.834859	670.75
1205.384653	676.5
1205.934391	674.25
1206.484072	674.0
1207.033696	672.75
1207.583263	672.5
1208.132774	673.25
1208.682228	673.5
1209.231624	672.25
1209.780965	672.0
1210.330248	673.25
1210.879474	671.25
1211.428644	674.0
1211.977757	677.0
1212.526813	675.0
1213.075813	671.75
1213.624755	675.25
1214.173641	671.5
1214.72247	676.75
1215.271242	671.5
1215.819958	671.75
1216.368617	671.75
1216.917219	672.0
1217.465764	675.0
1218.014253	676.0
1218.562685	673.75
1219.11106	673.5
1219.659378	672.5
1220.20764	673.5
1220.755845	674.0
1221.303993	678.0
1221.852085	673.75
1222.400119	673.75
1222.948097	675.5
1223.496019	675.75
1224.043883	675.25
1224.591691	672.75
1225.139443	673.5
1225.687137	676.0
1226.234775	675.75
1226.782357	675.0
1227.329881	676.25
1227.877349	675.5
1228.42476	673.25
1228.972115	672.75
1229.519413	677.25
1230.066654	672.25
1230.613839	673.25
1231.160967	676.25
1231.708038	677.75
1232.255053	672.5
1232.802011	673.75
1233.348912	677.0
1233.895757	675.0
1234.442545	672.75
1234.989277	676.25
1235.535951	672.25
1236.08257	673.75
1236.629131	676.25
1237.175636	674.75
1237.722085	675.25
1238.268477	676.25
1238.814812	677.0
1239.361091	675.75
1239.907313	672.25
1240.453478	673.0
1240.999587	674.5
1241.54564	674.75
1242.091636	674.5
1242.637575	672.0
1243.183457	673.75
1243.729284	670.75
1244.275053	674.5
1244.820766	672.5
1245.366423	674.25
1245.912022	674.25
1246.457566	673.25
1247.003053	673.75
1247.548483	673.75
1248.093857	672.25
1248.639174	674.5
1249.184435	676.75
1249.729639	672.5
1250.274787	674.0
1250.819878	672.75
1251.364912	674.0
1251.909891	672.75
1252.454812	675.0
1252.999677	673.25
1253.544486	670.75
1254.089238	672.5
1254.633934	673.5
1255.178573	674.75
1255.723156	675.0
1256.267682	676.0
1256.812152	671.5
1257.356565	672.25
1257.900922	675.0
1258.445223	674.0
1258.989467	674.25
1259.533654	674.75
1260.077785	686.75
1260.62186	672.5
1261.165878	676.75
1261.70984	676.5
1262.253745	674.5
1262.797594	675.0
1263.341386	674.25
1263.885123	681.0
1264.428802	674.75
1264.972425	674.25
1265.515992	673.5
1266.059503	674.5
1266.602957	675.5
1267.146354	671.5
1267.689696	676.75
1268.23298	677.5
1268.776209	672.25
1269.319381	673.0
1269.862497	671.5
1270.405556	674.5
1270.948559	674.25
1271.491506	673.0
1272.034396	672.5
1272.57723	674.0
1273.120007	673.75
1273.662728	671.75
1274.205393	674.0
1274.748002	675.5
1275.290554	674.75
1275.83305	673.5
1276.375489	673.5
1276.917872	677.0
1277.460199	673.25
1278.00247	673.0
1278.544684	675.0
1279.086842	675.0
1279.628943	674.25
1280.170989	673.75
1280.712978	675.25
1281.25491	677.5
1281.796787	677.75
1282.338607	684.25
1282.880371	693.25
1283.422078	702.25
1283.963729	722.0
1284.505324	727.5
1285.046863	715.0
1285.588345	696.5
1286.129772	684.0
1286.671142	677.25
1287.212455	676.0
1287.753713	676.75
1288.294914	674.0
1288.836059	674.5
1289.377147	677.5
1289.91818	673.75
1290.459156	679.0
1291.000076	674.5
1291.54094	673.0
1292.081747	675.75
1292.622499	677.5
1293.163194	673.5
1293.703833	673.5
1294.244415	675.25
1294.784942	672.5
1295.325412	675.5
1295.865826	674.0
1296.406184	676.25
1296.946486	674.5
1297.486731	671.5
1298.026921	673.25
1298.567054	674.25
1299.107131	674.5
1299.647152	673.75
1300.187116	676.25
1300.727025	674.5
1301.266877	670.0
1301.806673	674.0
1302.346413	676.5
1302.886097	675.0
1303.425725	675.75
1303.965297	671.5
1304.504812	674.25
1305.044272	673.25
1305.583675	673.5
1306.123022	673.5
1306.662313	674.25
1307.201548	671.0
1307.740727	674.0
1308.279849	672.75
1308.818916	674.25
1309.357926	672.0
1309.896881	673.25
1310.435779	673.25
1310.974621	678.25
1311.513407	675.25
1312.052137	670.0
1312.590811	675.75
1313.129429	673.0
1313.667991	674.5
1314.206497	674.25
1314.744946	675.25
1315.28334	672.5
1315.821678	675.25
1316.359959	670.75
1316.898184	672.5
1317.436354	673.25
1317.974467	672.0
1318.512525	673.5
1319.050526	671.0
1319.588471	673.75
1320.12636	671.75
1320.664194	670.75
1321.201971	674.0
1321.739692	676.0
1322.277357	674.0
1322.814967	675.25
1323.35252	671.5
1323.890017	676.0
1324.427458	672.5
1324.964843	670.25
1325.502173	672.25
1326.039446	671.0
1326.576663	673.5
1327.113824	673.25
1327.65093	671.25
1328.187979	673.0
1328.724972	672.25
1329.26191	672.0
1329.798791	670.25
1330.335617	673.5
1330.872386	673.5
1331.4091	668.5
1331.945758	672.25
1332.48236	673.75
1333.018905	674.0
1333.555395	674.25
1334.091829	673.5
1334.628207	670.75
1335.164529	673.75
1335.700796	673.0
1336.237006	668.75
1336.77316	670.0
1337.309259	674.0
1337.845301	674.0
1338.381288	671.25
1338.917219	673.75
1339.453094	670.0
1339.988913	668.75
1340.524676	669.0
1341.060383	670.0
1341.596034	670.5
1342.13163	670.0
1342.66717	674.0
1343.202653	670.75
1343.738081	672.5
1344.273453	669.5
1344.80877	672.75
1345.34403	673.25
1345.879235	674.0
1346.414383	673.25
1346.949476	671.75
1347.484513	672.5
1348.019494	670.0
1348.55442	669.5
1349.089289	673.5
1349.624103	670.0
1350.158861	671.5
1350.693563	672.75
1351.228209	674.5
1351.7628	675.0
1352.297334	674.25
1352.831813	670.25
1353.366236	675.5
1353.900604	671.75
1354.434915	672.75
1354.969171	672.75
1355.503371	674.25
1356.037515	672.0
1356.571604	671.5
1357.105636	672.5
1357.639613	671.75
1358.173535	672.5
1358.7074	670.5
1359.24121	673.25
1359.774964	669.0
1360.308662	673.5
1360.842304	673.25
1361.375891	672.75
1361.909422	673.25
1362.442897	672.75
1362.976317	670.75
1363.50968	671.0
1364.042989	674.5
1364.576241	672.75
1365.109438	673.0
1365.642579	673.25
1366.175664	672.0
1366.708693	675.0
1367.241667	674.0
1367.774585	670.0
1368.307448	677.25
1368.840255	673.75
1369.373006	672.25
1369.905701	677.75
1370.438341	676.0
1370.970925	673.5
1371.503454	673.75
1372.035926	672.0
1372.568344	673.75
1373.100705	672.25
1373.633011	671.75
1374.165261	673.0
1374.697456	669.75
1375.229595	673.0
1375.761678	673.0
1376.293705	670.25
1376.825677	672.25
1377.357594	667.0
1377.889455	672.0
1378.42126	675.0
1378.953009	673.75
1379.484703	674.75
1380.016342	676.5
1380.547924	674.0
1381.079452	674.0
1381.610923	672.75
1382.142339	674.0
1382.673699	675.25
1383.205004	676.75
1383.736253	673.75
1384.267447	673.75
1384.798585	677.0
1385.329668	675.5
1385.860695	679.5
1386.391666	685.25
1386.922582	701.75
1387.453442	735.25
1387.984247	783.5
1388.514996	784.5
1389.04569	724.25
1389.576328	693.5
1390.10691	680.75
1390.637437	678.0
1391.167909	678.25
1391.698325	674.75
1392.228685	676.5
1392.75899	674.5
1393.28924	671.25
1393.819434	672.75
1394.349572	671.75
1394.879655	677.25
1395.409683	671.5
1395.939655	670.75
1396.469571	673.0
1396.999432	672.5
1397.529237	670.25
1398.058987	671.75
1398.588682	671.75
1399.118321	674.25
1399.647905	669.75
1400.177433	670.0
1400.706906	670.75
1401.236323	672.0
1401.765685	670.0
1402.294991	678.0
1402.824242	674.0
1403.353437	675.0
1403.882577	674.5
1404.411662	676.5
1404.940691	676.0
1405.469665	673.75
1405.998583	674.25
1406.527446	675.0
1407.056253	676.0
1407.585005	673.5
1408.113702	675.25
1408.642343	674.25
1409.170929	676.25
1409.69946	675.25
1410.227935	678.25
1410.756354	677.25
1411.284719	669.25
1411.813028	674.0
1412.341281	675.0
1412.869479	671.25
1413.397622	672.25
1413.92571	672.25
1414.453742	669.25
1414.981718	670.5
1415.50964	684.25
1416.037506	671.5
1416.565316	671.0
1417.093072	671.25
1417.620772	672.75
1418.148416	671.25
1418.676005	672.25
1419.203539	668.25
1419.731018	667.75
1420.258441	675.0
1420.785809	674.25
1421.313122	673.25
1421.840379	671.75
1422.367582	672.25
1422.894728	673.5
1423.42182	671.25
1423.948856	674.25
1424.475837	671.0
1425.002762	676.0
1425.529633	674.0
1426.056448	673.5
1426.583207	673.75
1427.109912	670.5
1427.636561	669.0
1428.163155	670.25
1428.689694	673.75
1429.216177	668.5
1429.742605	674.75
1430.268978	672.75
1430.795296	675.25
1431.321558	670.0
1431.847765	673.0
1432.373917	671.0
1432.900014	672.5
1433.426056	670.25
1433.952042	673.75
1434.477973	672.75
1435.003849	675.5
1435.529669	671.75
1436.055435	673.25
1436.581145	672.25
1437.1068	671.0
1437.632399	674.75
1438.157944	673.0
1438.683433	673.0
1439.208868	672.25
1439.734247	668.25
1440.25957	671.75
1440.784839	673.0
1441.310053	673.75
1441.835211	670.5
1442.360314	675.25
1442.885362	674.0
1443.410355	669.5
1443.935292	672.25
1444.460175	675.75
1444.985002	676.0
1445.509774	674.25
1446.034491	672.0
1446.559153	673.25
1447.08376	670.0
1447.608312	673.5
1448.132808	677.0
1448.65725	672.75
1449.181636	672.75
1449.705967	672.0
1450.230243	673.5
1450.754464	673.25
1451.27863	670.25
1451.802741	671.0
1452.326797	676.0
1452.850797	672.25
1453.374743	669.75
1453.898633	671.5
1454.422468	671.5
1454.946249	674.5
1455.469974	673.5
1455.993644	675.25
1456.517259	670.5
1457.040819	671.25
1457.564324	672.0
1458.087773	675.0
1458.611168	674.0
1459.134508	671.25
1459.657793	670.0
1460.181022	674.0
1460.704197	670.25
1461.227316	672.25
1461.750381	671.5
1462.27339	673.5
1462.796345	676.0
1463.319244	673.25
1463.842089	674.25
1464.364878	673.25
1464.887613	672.0
1465.410292	675.25
1465.932916	675.75
1466.455486	668.0
1466.978	674.75
1467.50046	672.5
1468.022864	672.5
1468.545214	676.5
1469.067508	672.0
1469.589748	676.5
1470.111932	674.75
1470.634062	674.25
1471.156136	671.25
1471.678156	672.75
1472.20012	673.5
1472.72203	673.5
1473.243885	671.5
1473.765685	670.75
1474.28743	670.0
1474.80912	672.25
1475.330755	670.75
1475.852335	672.5
1476.37386	672.5
1476.89533	673.75
1477.416745	673.5
1477.938106	673.0
1478.459411	673.25
1478.980662	673.5
1479.501857	673.75
1480.022998	672.25
1480.544084	669.25
1481.065115	669.25
1481.586091	671.25
1482.107012	671.25
1482.627878	672.0
1483.14869	672.0
1483.669446	670.25
1484.190148	671.25
1484.710794	672.25
1485.231386	674.25
1485.751923	671.25
1486.272406	669.5
1486.792833	670.75
1487.313205	671.5
1487.833523	670.75
1488.353786	670.75
1488.873994	673.75
1489.394147	667.25
1489.914245	668.25
1490.434288	671.0
1490.954277	671.25
1491.474211	669.25
1491.99409	671.5
1492.513914	669.75
1493.033683	667.75
1493.553398	674.0
1494.073057	669.25
1494.592662	667.5
1495.112212	667.75
1495.631708	670.0
1496.151148	671.5
1496.670534	669.0
1497.189865	671.0
1497.709141	670.5
1498.228362	673.0
1498.747529	672.0
1499.266641	669.5
1499.785698	680.5
1500.3047	670.0
1500.823648	669.5
1501.34254	668.0
1501.861379	672.0
1502.380162	669.75
1502.89889	670.75
1503.417564	670.5
1503.936183	672.0
1504.454748	671.25
1504.973257	673.75
1505.491712	671.25
1506.010112	670.5
1506.528458	670.25
1507.046748	669.5
1507.564984	673.5
1508.083166	671.5
1508.601292	671.0
1509.119364	671.75
1509.637381	671.0
1510.155344	672.5
1510.673252	676.0
1511.191105	672.0
1511.708903	670.0
1512.226647	675.75
1512.744336	669.0
1513.261971	673.25
1513.77955	667.25
1514.297076	669.75
1514.814546	672.5
1515.331962	671.0
1515.849323	674.75
1517.401078	707.0
1517.918221	668.75
1518.435309	673.0
1518.952342	669.5
1519.469321	669.5
1519.986245	671.25
1520.503114	673.0
1521.019929	672.75
1521.536689	670.75
1522.053395	670.5
1522.570046	671.25
1523.086642	670.5
1523.603184	673.25
1524.119671	669.5
1524.636103	670.75
1525.152481	671.5
1525.668805	671.25
1526.185073	670.25
1526.701288	666.0
1527.217447	669.0
1527.733552	671.0
1528.249603	667.75
1528.765599	672.0
1529.28154	668.25
1529.797427	670.25
1530.313259	669.5
1530.829037	672.0
1531.34476	672.5
1531.860429	668.5
1532.376043	668.75
1532.891602	669.75
1533.407107	668.75
1533.922558	671.25
1534.437954	669.75
1534.953295	671.25
1535.468582	669.5
1535.983815	672.25
1536.498993	669.0
1537.014116	672.5
1537.529185	669.0
1538.044199	670.0
1538.559159	672.25
1539.074064	672.0
1539.588915	668.25
1540.103712	671.0
1540.618454	671.5
1541.133141	671.5
1541.647774	668.75
1542.162353	671.75
1542.676877	671.5
1543.191346	668.75
1543.705761	669.5
1544.220122	668.25
1544.734428	673.25
1545.24868	670.75
1545.762877	671.0
1546.27702	673.25
1546.791109	672.5
1547.305143	672.75
1547.819122	672.25
1548.333047	670.25
1548.846918	671.25
1549.360734	672.5
1549.874496	668.75
1550.388204	670.5
1550.901857	669.0
1551.415455	670.0
1551.929	668.5
1552.442489	669.0
1552.955925	671.0
1553.469306	671.25
1553.982632	672.5
1554.495905	670.75
1555.009123	670.25
1555.522286	671.75
1556.035395	669.0
1556.54845	671.75
1557.06145	670.5
1557.574396	673.75
1558.087288	670.75
1558.600125	668.25
1559.112908	673.0
1559.625637	669.75
1560.138311	672.5
1560.650931	670.0
1561.163497	670.5
1561.676008	672.75
1562.188465	671.75
1562.700867	671.5
1563.213216	672.75
1563.725509	672.75
1564.237749	666.75
1564.749934	670.0
1565.262065	669.75
1565.774142	672.0
1566.286164	672.75
1566.798132	674.75
1567.310046	675.25
1567.821906	676.75
1568.333711	669.25
1568.845462	673.75
1569.357158	669.25
1569.868801	672.0
1570.380389	671.5
1570.891922	668.25
1571.403402	673.0
1571.914827	671.75
1572.426198	671.25
1572.937515	669.5
1573.448777	672.0
1573.959985	667.25
1574.471139	669.5
1574.982239	672.75
1575.493285	672.25
1576.004276	668.75
1576.515213	673.25
1577.026096	670.5
1577.536924	669.25
1578.047698	672.0
1578.558419	670.75
1579.069084	674.0
1579.579696	675.25
1580.090254	675.0
1580.600757	670.25
1581.111206	672.25
1581.621601	670.5
1582.131941	676.25
1582.642228	667.25
1583.15246	672.5
1583.662638	673.75
1584.172762	669.75
1584.682832	673.0
1585.192847	671.5
1585.702809	670.25
1586.212716	670.5
1586.722569	673.25
1587.232368	669.0
1587.742113	671.75
1588.251803	671.5
1588.76144	669.5
1589.271022	670.25
1589.78055	669.5
1590.290024	670.0
1590.799444	671.5
1591.30881	669.5
1591.818121	668.75
1592.327379	672.5
