1042.414189	731.75
1042.980685	732.0
1043.547124	730.5
1044.113505	730.75
1044.679828	726.75
1045.246093	723.75
1045.8123	727.5
1046.378449	724.5
1046.94454	716.25
1047.510573	717.25
1048.076548	723.75
1048.642465	720.75
1049.208325	714.0
1049.774126	725.0
1050.339869	714.5
1050.905555	717.75
1051.471183	718.5
1052.036752	717.25
1052.602264	718.0
1053.167718	710.25
1053.733114	714.25
1054.298452	711.5
1054.863733	717.25
1055.428955	717.5
1055.994119	707.0
1056.559226	720.5
1057.124275	715.5
1057.689266	709.25
1058.254199	716.5
1058.819074	709.75
1059.383891	711.25
1059.94865	711.75
1060.513352	712.5
1061.077996	711.5
1061.642582	715.25
1062.20711	712.0
1062.77158	711.75
1063.335992	715.25
1063.900347	709.75
1064.464643	711.0
1065.028882	710.0
1065.593063	712.75
1066.157187	713.25
1066.721252	711.75
1067.28526	711.5
1067.84921	711.0
1068.413102	711.0
1068.976936	714.0
1069.540713	707.5
1070.104431	717.0
1070.668092	709.5
1071.231696	709.25
1071.795241	710.25
1072.358729	709.5
1072.922159	711.75
1073.485531	711.5
1074.048845	711.25
1074.612102	708.75
1075.175301	706.75
1075.738442	713.75
1076.301525	706.25
1076.864551	709.0
1077.427519	706.5
1077.990429	705.5
1078.553281	711.25
1079.116076	709.75
1079.678813	708.0
1080.241492	707.25
1080.804114	711.0
1081.366678	707.0
1081.929184	709.25
1082.491633	712.5
1083.054024	710.5
1083.616357	707.0
1084.178632	703.25
1084.74085	702.75
1085.30301	705.0
1085.865113	708.0
1086.427158	710.75
1086.989145	706.75
1087.551074	708.5
1088.112946	709.5
1088.67476	706.75
1089.236517	710.75
1089.798216	703.75
1090.359857	711.5
1090.92144	706.5
1091.482966	706.75
1092.044435	707.75
1092.605845	712.25
1093.167199	705.25
1093.728494	706.0
1094.289732	704.75
1094.850912	709.75
1095.412035	722.5
1095.9731	709.75
1096.534107	706.0
1097.095057	714.75
1097.65595	704.75
1098.216784	711.5
1098.777561	706.0
1099.338281	706.75
1099.898943	706.75
1100.459547	712.5
1101.020094	707.25
1101.580584	709.5
1102.141015	705.75
1102.701389	707.75
1103.261706	708.5
1103.821965	707.0
1104.382167	709.25
1104.942311	706.75
1105.502397	705.75
1106.062426	708.5
1106.622398	707.75
1107.182312	710.0
1107.742168	704.25
1108.301967	709.75
1108.861708	707.75
1109.421392	708.25
1109.981019	709.0
1110.540587	706.75
1111.100099	712.5
1111.659553	708.5
1112.218949	706.75
1112.778288	706.5
1113.33757	711.0
1113.896794	706.25
1114.45596	708.5
1115.015069	714.0
1115.574121	704.5
1116.133115	712.25
1116.692052	706.75
1117.250931	709.0
1117.809753	709.0
1118.368517	703.0
1118.927224	711.0
1119.485873	705.5
1120.044465	710.5
1120.603	707.5
1121.161477	703.25
1121.719897	706.25
1122.278259	706.75
1122.836564	702.5
1123.394812	709.5
1123.953002	709.25
1124.511135	706.0
1125.06921	705.5
1125.627228	709.75
1126.185189	707.25
1126.743092	708.75
1127.300938	708.75
1127.858726	712.0
1128.416457	706.5
1128.974131	708.75
1129.531748	707.5
1130.089307	704.0
1130.646808	707.75
1131.204252	709.0
1131.761639	705.0
1132.318969	707.75
1132.876241	710.5
1133.433456	703.5
1133.990614	702.75
1134.547714	710.75
1135.104757	708.0
1135.661743	706.75
1136.218671	709.75
1136.775542	705.5
1137.332356	705.5
1137.889112	709.5
1138.445811	712.5
1139.002453	706.75
1139.559037	708.75
1140.115565	703.75
1140.672035	706.0
1141.228447	704.5
1141.784803	708.0
1142.341101	709.75
1142.897342	711.0
1143.453525	707.25
1144.009651	705.5
1144.565721	705.75
1145.121732	704.5
1145.677687	708.0
1146.233584	707.5
1146.789424	704.25
1147.345207	705.75
1147.900933	708.0
1148.456601	712.25
1149.012212	706.25
1149.567766	709.0
1150.123263	710.0
1150.678702	705.5
1151.234085	707.75
1151.78941	713.0
1152.344678	704.75
1152.899888	704.75
1153.455042	709.25
1154.010138	707.5
1154.565177	708.75
1155.120159	705.0
1155.675084	712.5
1156.229951	709.0
1156.784762	710.25
1157.339515	709.5
1157.894211	708.25
1158.44885	710.75
1159.003432	709.25
1159.557956	706.75
1160.112424	709.5
1160.666834	706.5
1161.221187	705.75
1161.775483	705.0
1162.329722	713.25
1162.883904	708.5
1163.438029	704.25
1163.992096	708.25
1164.546107	704.0
1165.10006	710.75
1165.653956	709.5
1166.207795	710.5
1166.761577	703.0
1167.315302	707.0
1167.86897	707.25
1168.422581	705.5
1168.976134	706.75
1169.529631	710.0
1170.08307	705.5
1170.636453	707.5
1171.189778	706.25
1171.743046	710.5
1172.296257	702.5
1172.849412	705.5
1173.402509	701.0
1173.955549	708.75
1174.508532	705.0
1175.061458	703.0
1175.614327	711.0
1176.167138	706.5
1176.719893	709.5
1177.272591	704.0
1177.825232	710.0
1178.377816	710.5
1178.930342	710.25
1179.482812	710.25
1180.035225	709.75
1180.587581	713.25
1181.139879	707.5
1181.692121	708.25
1182.244306	708.25
1182.796434	711.5
1183.348504	706.25
1183.900518	708.0
1184.452475	710.75
1185.004375	715.75
1185.556218	712.5
1186.108004	709.0
1186.659733	707.0
1187.211405	714.0
1187.76302	709.25
1188.314578	707.0
1188.866079	713.75
1189.417523	709.5
1189.96891	710.5
1190.520241	709.5
1191.071514	704.75
1191.622731	706.75
1192.17389	705.75
1192.724993	710.75
1193.276039	729.5
1193.827027	705.0
1194.377959	708.25
1194.928834	707.25
1195.479653	709.5
1196.030414	704.5
1196.581118	711.75
1197.131766	706.5
1197.682356	709.25
1198.23289	705.5
1198.783367	706.25
1199.333786	707.75
1199.88415	707.75
1200.434456	702.0
1200.984705	706.75
1201.534898	708.75
1202.085033	709.5
1202.635112	708.75
1203.185134	707.75
1203.735099	709.5
1204.285007	705.5
1204.834859	708.75
1205.384653	709.0
1205.934391	712.0
1206.484072	707.0
1207.033696	707.0
1207.583263	709.75
1208.132774	712.25
1208.682228	704.0
1209.231624	709.5
1209.780965	704.75
1210.330248	711.25
1210.879474	710.0
1211.428644	705.5
1211.977757	709.0
1212.526813	708.0
1213.075813	707.0
1213.624755	707.25
1214.173641	708.75
1214.72247	708.75
1215.271242	708.0
1215.819958	706.25
1216.368617	707.75
1216.917219	706.75
1217.465764	711.25
1218.014253	708.5
1218.562685	703.25
1219.11106	708.75
1219.659378	704.0
1220.20764	707.75
1220.755845	707.5
1221.303993	710.25
1221.852085	709.5
1222.400119	707.0
1222.948097	702.75
1223.496019	710.0
1224.043883	705.5
1224.591691	706.5
1225.139443	704.5
1225.687137	711.25
1226.234775	705.0
1226.782357	709.25
1227.329881	709.5
1227.877349	709.75
1228.42476	708.75
1228.972115	708.5
1229.519413	710.0
1230.066654	711.0
1230.613839	707.0
1231.160967	701.75
1231.708038	712.75
1232.255053	705.75
1232.802011	708.75
1233.348912	705.75
1233.895757	710.25
1234.442545	705.0
1234.989277	706.5
1235.535951	705.5
1236.08257	709.25
1236.629131	704.0
1237.175636	708.25
1237.722085	705.75
1238.268477	706.25
1238.814812	706.75
1239.361091	710.0
1239.907313	706.25
1240.453478	706.5
1240.999587	710.5
1241.54564	708.25
1242.091636	709.25
1242.637575	706.75
1243.183457	712.0
1243.729284	710.5
1244.275053	707.75
1244.820766	710.25
1245.366423	705.0
1245.912022	704.0
1246.457566	708.5
1247.003053	706.75
1247.548483	708.5
1248.093857	707.25
1248.639174	707.75
1249.184435	709.75
1249.729639	712.75
1250.274787	706.0
1250.819878	704.5
1251.364912	708.25
1251.909891	706.0
1252.454812	707.25
1252.999677	709.5
1253.544486	711.0
1254.089238	708.25
1254.633934	710.5
1255.178573	705.75
1255.723156	710.75
1256.267682	704.5
1256.812152	707.75
1257.356565	709.5
1257.900922	705.25
1258.445223	713.0
1258.989467	703.75
1259.533654	712.0
1260.62186	704.25
1261.165878	706.0
1261.70984	708.25
1262.253745	710.0
1262.797594	713.0
1263.341386	712.5
1263.885123	711.75
1264.428802	720.25
1264.972425	720.5
1265.515992	725.5
1266.059503	711.75
1266.602957	707.75
1267.146354	709.5
1267.689696	706.75
1268.23298	715.75
1268.776209	708.25
1269.319381	705.5
1269.862497	710.25
1270.405556	707.75
1270.948559	707.25
1271.491506	711.25
1272.034396	707.5
1272.57723	706.25
1273.120007	708.0
1273.662728	707.25
1274.205393	705.0
1274.748002	711.0
1275.290554	710.5
1275.83305	716.0
1276.375489	714.75
1276.917872	711.25
1277.460199	708.0
1278.00247	714.0
1278.544684	708.5
1279.086842	706.5
1279.628943	711.0
1280.170989	711.25
1280.712978	710.5
1281.25491	715.0
1281.796787	711.0
1282.338607	714.5
1282.880371	721.25
1283.422078	737.5
1283.963729	765.5
1284.505324	851.5
1285.046863	941.5
1285.588345	862.5
1286.129772	767.5
1286.671142	730.75
1287.212455	720.25
1287.753713	711.5
1288.294914	717.75
1288.836059	709.75
1289.377147	708.75
1289.91818	711.5
1290.459156	708.0
1291.000076	709.5
1291.54094	711.0
1292.081747	711.0
1292.622499	705.5
1293.163194	706.75
1293.703833	704.75
1294.244415	710.25
1294.784942	704.75
1295.325412	708.5
1295.865826	710.75
1296.406184	707.75
1296.946486	714.25
1297.486731	707.25
1298.026921	703.0
1298.567054	711.0
1299.107131	710.0
1299.647152	704.75
1300.187116	704.5
1300.727025	704.0
1301.266877	703.75
1301.806673	705.5
1302.346413	706.5
1302.886097	705.25
1303.425725	711.0
1303.965297	705.25
1304.504812	709.75
1305.044272	706.5
1305.583675	706.5
1306.123022	706.0
1306.662313	711.75
1307.201548	704.75
1307.740727	711.75
1308.279849	706.0
1308.818916	707.0
1309.357926	707.5
1309.896881	706.5
1310.435779	706.0
1310.974621	709.0
1311.513407	707.5
1312.052137	708.5
1312.590811	706.75
1313.129429	703.75
1313.667991	704.5
1314.206497	707.75
1314.744946	705.5
1315.28334	704.5
1315.821678	708.5
1316.359959	709.0
1316.898184	704.5
1317.436354	708.75
1317.974467	707.75
1318.512525	706.5
1319.050526	706.25
1319.588471	709.75
1320.12636	705.0
1320.664194	707.0
1321.201971	707.5
1321.739692	705.0
1322.277357	706.75
1322.814967	701.75
1323.35252	705.75
1323.890017	711.5
1324.427458	710.0
1324.964843	707.75
1325.502173	708.0
1326.039446	708.25
1326.576663	707.0
1327.113824	700.75
1327.65093	711.75
1328.187979	708.75
1328.724972	713.75
1329.26191	708.75
1329.798791	705.75
1330.335617	711.0
1330.872386	705.5
1331.4091	700.75
1331.945758	706.25
1332.48236	704.5
1333.018905	704.75
1333.555395	711.5
1334.091829	708.75
1334.628207	704.25
1335.164529	708.75
1335.700796	706.0
1336.237006	707.5
1336.77316	703.5
1337.309259	707.0
1337.845301	706.5
1338.381288	704.75
1338.917219	708.5
1339.453094	709.0
1339.988913	710.5
1340.524676	708.75
1341.060383	707.75
1341.596034	705.75
1342.13163	705.25
1342.66717	703.25
1343.202653	710.25
1343.738081	708.0
1344.273453	705.5
1344.80877	706.25
1345.34403	709.25
1345.879235	705.75
1346.414383	706.25
1346.949476	703.5
1347.484513	708.25
1348.019494	708.0
1348.55442	706.0
1349.089289	706.75
1349.624103	703.5
1350.158861	703.25
1350.693563	705.5
1351.228209	702.0
1351.7628	701.0
1352.297334	706.5
1352.831813	707.0
1353.366236	705.75
1353.900604	705.0
1354.434915	708.5
1354.969171	709.75
1355.503371	710.75
1356.037515	706.5
1356.571604	704.5
1357.105636	708.25
1357.639613	706.5
1358.173535	704.0
1358.7074	707.0
1359.24121	706.25
1359.774964	704.5
1360.308662	712.25
1360.842304	707.25
1361.375891	709.75
1361.909422	710.0
1362.442897	705.5
1362.976317	709.0
1363.50968	709.75
1364.042989	709.75
1364.576241	707.75
1365.109438	707.0
1365.642579	712.5
1366.175664	704.75
1366.708693	705.25
1367.241667	708.25
1367.774585	711.75
1368.307448	709.75
1368.840255	703.5
1369.373006	709.75
1369.905701	715.0
1370.438341	717.0
1370.970925	709.0
1371.503454	707.25
1372.035926	707.5
1372.568344	706.25
1373.100705	709.5
1373.633011	706.25
1374.165261	709.25
1374.697456	705.75
1375.229595	706.5
1375.761678	707.0
1376.293705	708.25
1376.825677	709.25
1377.357594	709.25
1377.889455	706.0
1378.42126	707.25
1378.953009	707.75
1379.484703	709.0
1380.016342	706.0
1380.547924	708.5
1381.079452	709.25
1381.610923	708.25
1382.142339	711.25
1382.673699	702.75
1383.205004	707.75
1383.736253	711.75
1384.267447	715.75
1384.798585	712.25
1385.329668	718.25
1385.860695	717.5
1386.391666	725.25
1386.922582	734.25
1387.453442	769.25
1387.984247	901.0
1388.514996	1120.25
1389.04569	1014.5
1389.576328	796.0
1390.10691	740.0
1390.637437	723.5
1391.167909	718.5
1391.698325	716.0
1392.228685	711.75
1392.75899	711.25
1393.28924	710.25
1393.819434	711.75
1394.349572	705.25
1394.879655	706.75
1395.409683	714.0
1395.939655	710.0
1396.469571	707.0
1396.999432	712.75
1397.529237	710.5
1398.058987	706.5
1398.588682	712.25
1399.118321	709.75
1399.647905	713.5
1400.177433	708.0
1400.706906	707.5
1401.236323	713.0
1401.765685	709.75
1402.294991	713.5
1402.824242	709.25
1403.353437	708.25
1403.882577	714.25
1404.411662	705.25
1404.940691	707.75
1405.469665	708.0
1405.998583	709.5
1406.527446	713.0
1407.056253	710.25
1407.585005	711.5
1408.113702	716.5
1408.642343	717.0
1409.170929	723.25
1409.69946	733.0
1410.227935	727.25
1410.756354	722.75
1411.284719	716.5
1411.813028	712.75
1412.341281	707.25
1412.869479	708.75
1413.397622	708.25
1413.92571	710.25
1414.453742	707.0
1414.981718	710.0
1415.50964	722.5
1416.037506	710.0
1416.565316	711.0
1417.093072	706.75
1417.620772	709.0
1418.148416	707.25
1418.676005	708.25
1419.203539	704.75
1419.731018	708.75
1420.258441	708.0
1420.785809	709.5
1421.313122	705.5
1421.840379	704.5
1422.367582	707.75
1422.894728	709.75
1423.42182	706.5
1423.948856	706.0
1424.475837	708.25
1425.002762	703.5
1425.529633	711.25
1426.056448	709.0
1426.583207	705.0
1427.109912	709.0
1427.636561	707.25
1428.163155	707.5
1428.689694	708.0
1429.216177	702.25
1429.742605	704.75
1430.268978	709.25
1430.795296	710.5
1431.321558	709.0
1431.847765	705.5
1432.373917	711.0
1432.900014	705.5
1433.426056	708.5
1433.952042	708.75
1434.477973	711.75
1435.003849	708.0
1435.529669	705.5
1436.055435	708.75
1436.581145	710.5
1437.1068	705.5
1437.632399	707.25
1438.157944	704.75
1438.683433	708.25
1439.208868	711.5
1439.734247	715.0
1440.25957	705.0
1440.784839	709.0
1441.310053	707.25
1441.835211	705.75
1442.360314	708.0
1442.885362	703.5
1443.410355	709.25
1443.935292	710.5
1444.460175	707.25
1444.985002	707.75
1445.509774	709.75
1446.034491	706.5
1446.559153	708.0
1447.08376	714.25
1447.608312	707.5
1448.132808	704.75
1448.65725	704.25
1449.181636	709.5
1449.705967	708.0
1450.230243	704.25
1450.754464	709.25
1451.27863	706.25
1451.802741	707.5
1452.326797	703.75
1452.850797	712.0
1453.374743	709.0
1453.898633	709.0
1454.422468	707.0
1454.946249	705.25
1455.469974	704.5
1455.993644	713.25
1456.517259	706.75
1457.040819	707.0
1457.564324	705.0
1458.087773	707.5
1458.611168	704.75
1459.134508	708.5
1459.657793	706.5
1460.181022	708.5
1460.704197	707.75
1461.227316	705.25
1461.750381	707.25
1462.27339	706.5
1462.796345	703.75
1463.319244	704.5
1463.842089	706.0
1464.364878	707.5
1464.887613	704.0
1465.410292	707.5
1465.932916	704.75
1466.455486	702.5
1466.978	705.0
1467.50046	704.5
1468.022864	706.25
1468.545214	705.5
1469.067508	704.75
1469.589748	710.75
1470.111932	707.25
1470.634062	707.75
1471.156136	707.0
1471.678156	703.0
1472.20012	709.5
1472.72203	701.0
1473.243885	707.0
1473.765685	708.75
1474.28743	704.75
1474.80912	709.5
1475.330755	704.75
1475.852335	702.5
1476.37386	703.5
1476.89533	704.75
1477.416745	708.5
1477.938106	705.25
1478.459411	704.5
1478.980662	706.25
1479.501857	702.75
1480.022998	705.25
1480.544084	705.75
1481.065115	707.0
1481.586091	706.25
1482.107012	705.0
1482.627878	704.0
1483.14869	709.75
1483.669446	708.0
1484.190148	708.25
1484.710794	706.25
1485.231386	708.25
1485.751923	706.25
1486.272406	705.5
1486.792833	707.75
1487.313205	709.0
1487.833523	707.5
1488.353786	705.25
1488.873994	708.25
1489.394147	708.25
1489.914245	706.0
1490.434288	706.0
1490.954277	707.0
1491.474211	704.75
1491.99409	707.25
1492.513914	709.75
1493.033683	709.5
1493.553398	703.0
1494.073057	706.25
1494.592662	703.0
1495.112212	701.75
1495.631708	702.25
1496.151148	701.75
1496.670534	704.5
1497.189865	702.75
1497.709141	703.0
1498.228362	706.25
1498.747529	709.5
1499.266641	705.25
1499.785698	713.75
1500.3047	703.75
1500.823648	709.75
1501.34254	703.25
1501.861379	701.25
1502.380162	712.0
1502.89889	704.25
1503.417564	705.25
1503.936183	706.75
1504.454748	702.75
1504.973257	706.0
1505.491712	709.5
1506.010112	702.0
1506.528458	703.0
1507.046748	704.0
1507.564984	703.25
1508.083166	705.5
1508.601292	702.0
1509.119364	701.75
1509.637381	705.0
1510.155344	707.5
1510.673252	713.75
1511.191105	707.5
1511.708903	706.75
1512.226647	704.5
1512.744336	705.0
1513.261971	705.75
1513.77955	705.75
1514.297076	707.5
1514.814546	706.5
1515.331962	699.75
1515.849323	704.5
1516.366629	701.5
1516.883881	705.0
1517.401078	709.75
1517.918221	705.5
1518.435309	706.25
1518.952342	700.75
1519.469321	705.5
1519.986245	703.5
1520.503114	705.25
1521.019929	702.0
1521.536689	706.5
1522.053395	706.5
1522.570046	708.5
1523.086642	708.75
1523.603184	704.0
1524.119671	704.25
1524.636103	700.75
1525.152481	710.25
1525.668805	702.0
1526.185073	705.5
1526.701288	700.0
1527.217447	703.5
1527.733552	701.0
1528.249603	703.0
1528.765599	705.5
1529.28154	708.75
1529.797427	707.25
1530.313259	704.75
1530.829037	704.75
1531.34476	701.25
1531.860429	706.75
1532.376043	704.0
1532.891602	700.25
1533.407107	698.75
1533.922558	708.25
1534.437954	709.75
1534.953295	708.0
1535.468582	701.5
1535.983815	705.5
1536.498993	707.5
1537.014116	706.75
1537.529185	703.5
1538.044199	700.75
1538.559159	702.25
1539.074064	704.0
1539.588915	702.0
1540.103712	701.75
1540.618454	700.25
1541.133141	706.25
1541.647774	706.0
1542.162353	697.25
1542.676877	705.0
1543.191346	708.5
1543.705761	702.75
1544.220122	702.0
1544.734428	706.25
1545.24868	709.75
1545.762877	708.25
1546.27702	708.0
1546.791109	705.25
1547.305143	705.0
1547.819122	703.75
1548.333047	704.25
1548.846918	701.75
1549.360734	703.5
1549.874496	705.25
1550.388204	704.0
1550.901857	702.75
1551.415455	702.0
1551.929	703.5
1552.442489	704.25
1552.955925	703.5
1553.469306	703.5
1553.982632	703.5
1554.495905	702.5
1555.009123	698.5
1555.522286	705.75
1556.035395	705.0
1556.54845	707.5
1557.06145	705.0
1557.574396	706.0
1558.087288	707.5
1558.600125	709.0
1559.112908	702.0
1559.625637	699.25
1560.138311	702.0
1560.650931	702.0
1561.163497	707.75
1561.676008	706.25
1562.188465	709.25
1562.700867	704.0
1563.213216	706.0
1563.725509	701.5
1564.237749	708.0
1564.749934	705.75
1565.262065	702.5
1565.774142	698.5
1566.286164	707.75
1566.798132	704.75
1567.310046	701.0
1567.821906	703.25
1568.333711	703.25
1568.845462	704.75
1569.357158	707.75
1569.868801	708.25
1570.380389	702.5
1570.891922	705.0
1571.403402	703.5
1571.914827	700.75
1572.426198	700.5
1572.937515	705.25
1573.448777	706.5
1573.959985	703.25
1574.471139	701.75
1574.982239	702.5
1575.493285	701.5
1576.004276	704.0
1576.515213	704.5
1577.026096	702.25
1577.536924	701.25
1578.047698	706.0
1578.558419	708.25
1579.069084	702.5
1579.579696	705.5
1580.090254	707.0
1580.600757	704.75
1581.111206	702.25
1581.621601	705.5
1582.131941	704.5
1582.642228	706.0
1583.15246	704.5
1583.662638	702.0
1584.172762	706.0
1584.682832	704.75
1585.192847	700.25
1585.702809	706.0
1586.212716	704.0
1586.722569	708.0
1587.232368	706.5
1587.742113	709.25
1588.251803	707.0
1588.76144	706.75
1589.271022	707.5
1589.78055	706.75
1590.290024	699.5
1590.799444	705.0
1591.30881	704.5
1591.818121	703.0
1592.327379	698.75
