1042.414189	716.2000122
1042.980685	710.7999878
1043.547124	713.2000122
1044.113505	713.5999756
1044.679828	710.5999756
1045.246093	708.7999878
1045.8123	707.0
1046.378449	703.7999878
1046.94454	700.5999756
1047.510573	706.4000244
1048.076548	703.5999756
1048.642465	703.5999756
1049.208325	700.7999878
1049.774126	702.2000122
1050.339869	698.4000244
1050.905555	699.0
1051.471183	696.5999756
1052.036752	702.7999878
1052.602264	696.2000122
1053.167718	696.5999756
1053.733114	695.0
1054.298452	696.2000122
1054.863733	697.4000244
1055.428955	696.7999878
1055.994119	699.2000122
1056.559226	693.4000244
1057.124275	694.4000244
1057.689266	694.5999756
1058.254199	693.4000244
1058.819074	689.5999756
1059.383891	692.7999878
1059.94865	698.0
1060.513352	690.5999756
1061.077996	687.4000244
1061.642582	693.2000122
1062.20711	691.4000244
1062.77158	693.4000244
1063.335992	693.0
1063.900347	694.0
1064.464643	691.2000122
1065.028882	693.2000122
1065.593063	692.2000122
1066.157187	695.0
1066.721252	693.2000122
1067.28526	694.0
1067.84921	692.7999878
1068.413102	693.7999878
1068.976936	697.4000244
1069.540713	693.4000244
1070.104431	694.0
1070.668092	693.7999878
1071.231696	692.0
1071.795241	692.5999756
1072.358729	688.5999756
1072.922159	689.7999878
1073.485531	692.5999756
1074.048845	694.7999878
1074.612102	689.0
1075.175301	687.5999756
1075.738442	690.7999878
1076.301525	689.4000244
1076.864551	692.5999756
1077.427519	691.4000244
1077.990429	694.5999756
1078.553281	694.2000122
1079.116076	691.2000122
1079.678813	690.7999878
1080.241492	692.7999878
1080.804114	690.2000122
1081.366678	688.2000122
1081.929184	693.5999756
1082.491633	692.0
1083.054024	692.7999878
1083.616357	693.4000244
1084.178632	693.5999756
1084.74085	690.4000244
1085.30301	694.5999756
1085.865113	693.4000244
1086.427158	694.7999878
1086.989145	692.5999756
1087.551074	693.4000244
1088.112946	687.2000122
1088.67476	691.4000244
1089.236517	691.5999756
1089.798216	692.0
1090.359857	690.5999756
1090.92144	695.0
1091.482966	692.7999878
1092.044435	693.2000122
1092.605845	695.0
1093.167199	690.0
1093.728494	694.4000244
1094.289732	697.0
1094.850912	694.4000244
1095.412035	709.0
1095.9731	691.4000244
1096.534107	694.4000244
1097.095057	697.0
1097.65595	691.7999878
1098.216784	687.5999756
1098.777561	692.5999756
1099.338281	693.2000122
1099.898943	693.5999756
1100.459547	692.2000122
1101.020094	688.7999878
1101.580584	693.2000122
1102.141015	696.7999878
1102.701389	691.0
1103.261706	687.2000122
1103.821965	690.2000122
1104.382167	689.5999756
1104.942311	689.4000244
1105.502397	691.4000244
1106.062426	692.5999756
1106.622398	689.0
1107.182312	693.7999878
1107.742168	691.7999878
1108.301967	689.4000244
1108.861708	690.2000122
1109.421392	691.5999756
1109.981019	690.7999878
1110.540587	688.4000244
1111.100099	692.0
1111.659553	690.2000122
1112.218949	692.0
1112.778288	686.7999878
1113.33757	687.4000244
1113.896794	688.0
1114.45596	693.4000244
1115.015069	690.0
1115.574121	690.5999756
1116.133115	691.7999878
1116.692052	691.0
1117.250931	690.2000122
1117.809753	691.7999878
1118.368517	689.5999756
1118.927224	689.5999756
1119.485873	690.7999878
1120.044465	692.5999756
1120.603	691.5999756
1121.161477	689.2000122
1121.719897	688.4000244
1122.278259	691.0
1122.836564	691.7999878
1123.394812	692.4000244
1123.953002	686.4000244
1124.511135	690.2000122
1125.06921	692.4000244
1125.627228	690.2000122
1126.185189	694.2000122
1126.743092	689.0
1127.300938	691.4000244
1127.858726	686.7999878
1128.416457	692.5999756
1128.974131	688.4000244
1129.531748	687.4000244
1130.089307	689.2000122
1130.646808	693.2000122
1131.204252	689.4000244
1131.761639	689.5999756
1132.318969	689.7999878
1132.876241	690.0
1133.433456	691.7999878
1133.990614	689.5999756
1134.547714	691.0
1135.104757	689.7999878
1135.661743	690.4000244
1136.218671	689.4000244
1136.775542	693.7999878
1137.332356	686.7999878
1137.889112	692.7999878
1138.445811	690.4000244
1139.002453	690.0
1139.559037	689.2000122
1140.115565	687.5999756
1140.672035	691.0
1141.228447	691.4000244
1141.784803	688.5999756
1142.341101	690.0
1142.897342	690.5999756
1143.453525	691.2000122
1144.009651	691.5999756
1144.565721	693.4000244
1145.121732	692.5999756
1145.677687	690.5999756
1146.233584	693.4000244
1146.789424	689.5999756
1147.345207	692.2000122
1147.900933	689.7999878
1148.456601	696.7999878
1149.012212	691.0
1149.567766	691.2000122
1150.123263	692.2000122
1150.678702	691.0
1151.234085	695.2000122
1151.78941	688.7999878
1152.344678	687.7999878
1152.899888	687.7999878
1153.455042	691.7999878
1154.010138	689.7999878
1154.565177	689.5999756
1155.120159	690.5999756
1155.675084	689.0
1156.229951	692.0
1156.784762	688.5999756
1157.339515	692.7999878
1157.894211	692.4000244
1158.44885	692.0
1159.003432	690.0
1159.557956	692.4000244
1160.112424	691.0
1160.666834	692.2000122
1161.221187	692.4000244
1161.775483	695.7999878
1162.329722	693.4000244
1162.883904	692.2000122
1163.438029	690.5999756
1163.992096	691.5999756
1164.546107	690.0
1165.10006	691.0
1165.653956	694.0
1166.207795	690.0
1166.761577	694.2000122
1167.315302	695.4000244
1167.86897	689.5999756
1168.422581	692.0
1168.976134	693.4000244
1169.529631	694.2000122
1170.08307	695.4000244
1170.636453	691.5999756
1171.189778	692.2000122
1171.743046	689.7999878
1172.296257	691.2000122
1172.849412	695.4000244
1173.402509	692.5999756
1173.955549	692.5999756
1174.508532	690.2000122
1175.061458	689.0
1175.614327	695.0
1176.167138	692.0
1176.719893	692.2000122
1177.272591	688.2000122
1177.825232	691.5999756
1178.377816	693.2000122
1178.930342	692.7999878
1179.482812	692.0
1180.035225	691.5999756
1180.587581	690.5999756
1181.139879	690.0
1181.692121	690.0
1182.244306	693.5999756
1182.796434	693.5999756
1183.348504	691.2000122
1183.900518	696.4000244
1184.452475	692.5999756
1185.004375	694.4000244
1185.556218	695.0
1186.108004	691.4000244
1186.659733	691.7999878
1187.211405	691.2000122
1187.76302	692.4000244
1188.314578	691.0
1188.866079	692.7999878
1189.417523	691.5999756
1189.96891	695.2000122
1190.520241	690.0
1191.071514	691.0
1191.622731	690.5999756
1192.17389	692.4000244
1192.724993	695.2000122
1193.276039	705.2000122
1193.827027	692.5999756
1194.377959	692.4000244
1194.928834	694.0
1195.479653	695.7999878
1196.030414	690.4000244
1196.581118	690.2000122
1197.131766	692.7999878
1197.682356	693.2000122
1198.23289	692.5999756
1198.783367	691.7999878
1199.333786	692.2000122
1199.88415	689.0
1200.434456	693.5999756
1200.984705	688.5999756
1201.534898	692.2000122
1202.085033	692.7999878
1202.635112	690.4000244
1203.185134	695.7999878
1203.735099	693.0
1204.285007	692.4000244
1204.834859	695.7999878
1205.384653	691.2000122
1205.934391	692.4000244
1206.484072	693.5999756
1207.033696	693.7999878
1207.583263	695.4000244
1208.132774	694.2000122
1208.682228	692.2000122
1209.231624	691.4000244
1209.780965	692.4000244
1210.330248	696.2000122
1210.879474	694.0
1211.428644	694.4000244
1211.977757	697.2000122
1212.526813	690.7999878
1213.075813	697.4000244
1213.624755	693.2000122
1214.173641	695.5999756
1214.72247	694.4000244
1215.271242	686.7999878
1215.819958	694.7999878
1216.368617	691.7999878
1216.917219	693.7999878
1217.465764	694.7999878
1218.014253	692.4000244
1218.562685	695.2000122
1219.11106	696.2000122
1219.659378	694.5999756
1220.20764	694.5999756
1220.755845	697.4000244
1221.303993	693.5999756
1221.852085	697.5999756
1222.400119	693.0
1222.948097	692.4000244
1223.496019	695.0
1224.043883	696.5999756
1224.591691	693.4000244
1225.139443	697.4000244
1225.687137	695.5999756
1226.234775	697.7999878
1226.782357	693.7999878
1227.329881	696.4000244
1227.877349	695.5999756
1228.42476	695.5999756
1228.972115	695.7999878
1229.519413	694.5999756
1230.066654	692.7999878
1230.613839	698.0
1231.160967	698.4000244
1231.708038	692.4000244
1232.255053	695.4000244
1232.802011	694.7999878
1233.348912	693.2000122
1233.895757	695.0
1234.442545	697.0
1234.989277	695.2000122
1235.535951	691.2000122
1236.08257	693.0
1236.629131	693.2000122
1237.175636	694.7999878
1237.722085	696.7999878
1238.268477	698.5999756
1238.814812	695.0
1239.361091	693.2000122
1239.907313	695.7999878
1240.453478	693.2000122
1240.999587	694.5999756
1241.54564	697.2000122
1242.091636	698.0
1242.637575	697.2000122
1243.183457	695.2000122
1243.729284	697.5999756
1244.275053	696.2000122
1244.820766	697.4000244
1245.366423	696.7999878
1245.912022	692.4000244
1246.457566	697.7999878
1247.003053	696.5999756
1247.548483	695.5999756
1248.093857	701.5999756
1248.639174	696.7999878
1249.184435	698.4000244
1249.729639	698.0
1250.274787	695.7999878
1250.819878	695.7999878
1251.364912	692.5999756
1251.909891	699.7999878
1252.454812	698.7999878
1252.999677	701.0
1253.544486	700.4000244
1254.089238	697.2000122
1254.633934	698.4000244
1255.178573	698.7999878
1255.723156	698.5999756
1256.267682	702.7999878
1256.812152	701.4000244
1257.356565	708.4000244
1257.900922	708.2000122
1258.445223	709.7999878
1258.989467	703.4000244
1259.533654	706.2000122
1260.077785	721.5999756
1260.62186	714.5999756
1261.165878	712.7999878
1261.70984	719.2000122
1262.253745	727.4000244
1262.797594	730.5999756
1263.341386	725.2000122
1263.885123	722.4000244
1264.428802	718.4000244
1264.972425	715.5999756
1265.515992	715.0
1266.059503	710.2000122
1266.602957	708.5999756
1267.146354	709.7999878
1267.689696	703.0
1268.23298	707.0
1268.776209	708.4000244
1269.319381	709.0
1269.862497	701.0
1270.405556	711.0
1270.948559	707.0
1271.491506	707.5999756
1272.034396	708.2000122
1272.57723	709.0
1273.120007	704.7999878
1273.662728	706.5999756
1274.205393	706.2000122
1274.748002	705.4000244
1275.290554	707.4000244
1275.83305	707.0
1276.375489	712.0
1276.917872	711.7999878
1277.460199	713.2000122
1278.00247	720.4000244
1278.544684	722.4000244
1279.086842	725.4000244
1279.628943	736.4000244
1280.170989	747.2000122
1280.712978	789.2000122
1281.25491	865.0
1281.796787	1020.799988
1282.338607	1230.0
1282.880371	1321.199951
1283.422078	1141.400024
1283.963729	935.2000122
1284.505324	823.7999878
1285.046863	776.4000244
1285.588345	751.2000122
1286.129772	736.7999878
1286.671142	725.5999756
1287.212455	723.4000244
1287.753713	714.0
1288.294914	716.5999756
1288.836059	714.2000122
1289.377147	710.5999756
1289.91818	713.0
1290.459156	709.0
1291.000076	709.2000122
1291.54094	707.7999878
1292.081747	706.7999878
1292.622499	706.0
1293.163194	705.4000244
1293.703833	706.5999756
1294.244415	709.5999756
1294.784942	706.4000244
1295.325412	708.4000244
1295.865826	706.5999756
1296.406184	703.5999756
1296.946486	702.4000244
1297.486731	705.4000244
1298.026921	702.7999878
1298.567054	704.0
1299.107131	702.4000244
1299.647152	700.0
1300.187116	704.5999756
1300.727025	706.0
1301.266877	705.5999756
1301.806673	704.5999756
1302.346413	699.5999756
1302.886097	704.0
1303.425725	699.7999878
1303.965297	707.0
1304.504812	703.7999878
1305.044272	704.5999756
1305.583675	704.0
1306.123022	699.7999878
1306.662313	701.7999878
1307.201548	702.5999756
1307.740727	702.2000122
1308.279849	698.7999878
1308.818916	703.2000122
1309.357926	701.5999756
1309.896881	700.0
1310.435779	700.2000122
1310.974621	704.0
1311.513407	699.7999878
1312.052137	702.2000122
1312.590811	703.2000122
1313.129429	700.2000122
1313.667991	703.2000122
1314.206497	700.0
1314.744946	704.7999878
1315.28334	698.5999756
1315.821678	697.7999878
1316.359959	697.2000122
1316.898184	696.4000244
1317.436354	699.0
1317.974467	698.2000122
1318.512525	700.4000244
1319.050526	696.7999878
1319.588471	698.2000122
1320.12636	704.4000244
1320.664194	697.7999878
1321.201971	699.7999878
1321.739692	701.5999756
1322.277357	701.5999756
1322.814967	701.2000122
1323.35252	701.4000244
1323.890017	702.2000122
1324.427458	695.2000122
1324.964843	698.5999756
1325.502173	703.2000122
1326.039446	701.5999756
1326.576663	696.4000244
1327.113824	700.2000122
1327.65093	696.0
1328.187979	701.7999878
1328.724972	697.4000244
1329.26191	701.4000244
1329.798791	700.0
1330.335617	701.7999878
1330.872386	698.5999756
1331.4091	699.2000122
1331.945758	697.7999878
1332.48236	700.0
1333.018905	699.4000244
1333.555395	698.7999878
1334.091829	700.0
1334.628207	700.0
1335.164529	700.5999756
1335.700796	699.2000122
1336.237006	700.4000244
1336.77316	700.0
1337.309259	700.7999878
1337.845301	698.7999878
1338.381288	697.4000244
1338.917219	700.0
1339.453094	701.2000122
1339.988913	700.0
1340.524676	701.7999878
1341.060383	698.4000244
1341.596034	703.0
1342.13163	699.5999756
1342.66717	703.5999756
1343.202653	703.4000244
1343.738081	703.4000244
1344.273453	696.4000244
1344.80877	702.5999756
1345.34403	697.2000122
1345.879235	699.0
1346.414383	701.0
1346.949476	697.4000244
1347.484513	701.4000244
1348.019494	698.7999878
1348.55442	702.0
1349.089289	702.4000244
1349.624103	701.7999878
1350.158861	702.2000122
1350.693563	701.2000122
1351.228209	704.5999756
1351.7628	699.4000244
1352.297334	702.7999878
1352.831813	698.4000244
1353.366236	700.2000122
1353.900604	701.2000122
1354.434915	700.7999878
1354.969171	701.2000122
1355.503371	704.4000244
1356.037515	699.2000122
1356.571604	701.4000244
1357.105636	701.4000244
1357.639613	702.0
1358.173535	702.5999756
1358.7074	703.2000122
1359.24121	706.5999756
1359.774964	703.2000122
1360.308662	698.4000244
1360.842304	703.5999756
1361.375891	700.5999756
1361.909422	703.5999756
1362.442897	706.0
1362.976317	702.7999878
1363.50968	703.0
1364.042989	708.0
1364.576241	703.4000244
1365.109438	704.4000244
1365.642579	703.5999756
1366.175664	704.7999878
1366.708693	701.2000122
1367.241667	790.2000122
1367.774585	707.2000122
1368.307448	707.7999878
1368.840255	709.4000244
1369.373006	725.5999756
1369.905701	728.2000122
1370.438341	714.4000244
1370.970925	710.5999756
1371.503454	710.4000244
1372.035926	706.0
1372.568344	709.7999878
1373.100705	712.4000244
1373.633011	709.2000122
1374.165261	709.0
1374.697456	708.7999878
1375.229595	711.0
1375.761678	714.0
1376.293705	711.4000244
1376.825677	712.5999756
1377.357594	711.7999878
1377.889455	712.7999878
1378.42126	716.5999756
1378.953009	717.2000122
1379.484703	710.7999878
1380.016342	718.4000244
1380.547924	714.4000244
1381.079452	722.7999878
1381.610923	723.4000244
1382.142339	729.7999878
1382.673699	729.5999756
1383.205004	742.2000122
1383.736253	749.2000122
1384.267447	766.7999878
1384.798585	790.0
1385.329668	837.7999878
1385.860695	950.4000244
1386.391666	1218.800049
1386.922582	1713.199951
1387.453442	1916.0
1387.984247	1454.0
1388.514996	1055.800049
1389.04569	869.0
1389.576328	803.4000244
1390.10691	771.0
1390.637437	749.0
1391.167909	738.5999756
1391.698325	730.5999756
1392.228685	731.4000244
1392.75899	724.0
1393.28924	721.7999878
1393.819434	720.0
1394.349572	716.2000122
1394.879655	717.0
1395.409683	719.7999878
1395.939655	711.0
1396.469571	713.0
1396.999432	711.4000244
1397.529237	713.0
1398.058987	712.0
1398.588682	711.0
1399.118321	714.4000244
1399.647905	711.2000122
1400.177433	711.4000244
1400.706906	711.4000244
1401.236323	711.2000122
1401.765685	709.4000244
1402.294991	713.0
1402.824242	712.4000244
1403.353437	715.0
1403.882577	711.5999756
1404.411662	722.2000122
1404.940691	718.4000244
1405.469665	724.0
1405.998583	722.7999878
1406.527446	723.7999878
1407.056253	733.0
1407.585005	740.4000244
1408.113702	748.7999878
1408.642343	758.0
1409.170929	747.7999878
1409.69946	747.4000244
1410.227935	736.0
1410.756354	728.0
1411.284719	723.0
1411.813028	715.5999756
1412.341281	712.7999878
1412.869479	712.0
1413.397622	708.7999878
1413.92571	722.7999878
1415.50964	716.7999878
1416.037506	701.5999756
1416.565316	705.5999756
1417.093072	704.0
1417.620772	704.4000244
1418.148416	699.5999756
1418.676005	704.5999756
1419.203539	703.0
1419.731018	703.0
1420.258441	703.2000122
1420.785809	702.0
1421.313122	700.5999756
1421.840379	701.4000244
1422.367582	703.0
1422.894728	705.2000122
1423.42182	701.0
1423.948856	703.5999756
1424.475837	700.4000244
1425.002762	703.2000122
1425.529633	701.0
1426.056448	702.5999756
1426.583207	700.0
1427.109912	699.5999756
1427.636561	703.2000122
1428.163155	700.5999756
1428.689694	701.0
1429.216177	699.5999756
1429.742605	699.5999756
1430.268978	702.7999878
1430.795296	701.0
1431.321558	703.5999756
1431.847765	698.4000244
1432.373917	698.0
1432.900014	698.7999878
1433.426056	700.4000244
1433.952042	700.0
1434.477973	698.2000122
1435.003849	701.5999756
1435.529669	700.4000244
1436.055435	699.0
1436.581145	699.2000122
1437.1068	700.2000122
1437.632399	700.2000122
1438.157944	696.7999878
1438.683433	697.4000244
1439.208868	692.7999878
1439.734247	699.5999756
1440.25957	700.7999878
1440.784839	702.0
1441.310053	701.4000244
1441.835211	698.5999756
1442.360314	697.7999878
1442.885362	696.4000244
1443.410355	698.4000244
1443.935292	698.2000122
1444.460175	701.7999878
1444.985002	699.4000244
1445.509774	699.4000244
1446.034491	697.5999756
1446.559153	695.4000244
1447.08376	697.4000244
1447.608312	701.7999878
1448.132808	698.4000244
1448.65725	701.0
1449.181636	697.4000244
1449.705967	701.0
1450.230243	697.5999756
1450.754464	698.0
1451.27863	701.0
1451.802741	701.2000122
1452.326797	697.4000244
1452.850797	698.2000122
1453.374743	700.4000244
1453.898633	700.7999878
1454.422468	698.2000122
1454.946249	697.4000244
1455.469974	696.5999756
1455.993644	699.5999756
1456.517259	699.2000122
1457.040819	703.2000122
1457.564324	699.7999878
1458.087773	698.7999878
1458.611168	699.4000244
1459.134508	699.0
1459.657793	695.2000122
1460.181022	696.0
1460.704197	698.0
1461.227316	697.0
1461.750381	696.7999878
1462.27339	696.7999878
1462.796345	701.0
1463.319244	698.4000244
1463.842089	702.2000122
1464.364878	697.2000122
1464.887613	697.4000244
1465.410292	698.7999878
1465.932916	699.5999756
1466.455486	696.0
1466.978	697.7999878
1467.50046	702.7999878
1468.022864	701.4000244
1468.545214	696.5999756
1469.067508	699.5999756
1469.589748	691.7999878
1470.111932	702.0
1470.634062	695.4000244
1471.156136	697.7999878
1471.678156	698.5999756
1472.20012	700.2000122
1472.72203	700.2000122
1473.243885	698.0
1473.765685	699.2000122
1474.28743	701.2000122
1474.80912	697.0
1475.330755	699.5999756
1475.852335	696.4000244
1476.37386	698.5999756
1476.89533	698.5999756
1477.416745	694.2000122
1477.938106	697.5999756
1478.459411	695.7999878
1478.980662	698.0
1479.501857	698.7999878
1480.022998	699.4000244
1480.544084	697.5999756
1481.065115	702.7999878
1481.586091	700.2000122
1482.107012	696.0
1482.627878	695.5999756
1483.14869	697.7999878
1483.669446	697.4000244
1484.190148	690.4000244
1484.710794	696.4000244
1485.231386	698.5999756
1485.751923	701.5999756
1486.272406	697.0
1486.792833	695.4000244
1487.313205	698.5999756
1487.833523	697.5999756
1488.353786	696.7999878
1488.873994	699.7999878
1489.394147	701.2000122
1489.914245	698.5999756
1490.434288	701.7999878
1490.954277	696.4000244
1491.474211	701.4000244
1491.99409	699.5999756
1492.513914	696.4000244
1493.033683	697.7999878
1493.553398	697.0
1494.073057	693.0
1494.592662	694.7999878
1495.112212	698.0
1495.631708	700.5999756
1496.151148	700.0
1496.670534	696.4000244
1497.189865	699.5999756
1497.709141	702.0
1498.228362	696.4000244
1498.747529	702.2000122
1499.266641	698.4000244
1499.785698	703.7999878
1500.3047	697.7999878
1500.823648	694.2000122
1501.34254	694.2000122
1501.861379	697.7999878
1502.380162	697.2000122
1502.89889	700.7999878
1503.417564	695.7999878
1503.936183	693.5999756
1504.454748	700.2000122
1504.973257	695.4000244
1505.491712	699.4000244
1506.010112	699.4000244
1506.528458	698.0
1507.046748	697.7999878
1507.564984	698.4000244
1508.083166	696.4000244
1508.601292	694.2000122
1509.119364	698.5999756
1509.637381	697.5999756
1510.155344	698.5999756
1510.673252	705.7999878
1511.191105	695.7999878
1511.708903	696.5999756
1512.226647	697.7999878
1512.744336	701.7999878
1513.261971	701.0
1513.77955	698.5999756
1514.297076	697.5999756
1514.814546	695.7999878
1515.331962	697.7999878
1515.849323	698.2000122
1516.366629	702.0
1516.883881	696.4000244
1517.401078	694.0
1517.918221	703.5999756
1518.435309	698.2000122
1518.952342	697.4000244
1519.469321	697.2000122
1519.986245	694.5999756
1520.503114	699.0
1521.019929	699.2000122
1521.536689	694.4000244
1522.053395	700.2000122
1522.570046	695.7999878
1523.086642	699.7999878
1523.603184	698.0
1524.119671	698.2000122
1524.636103	697.0
1525.152481	698.0
1525.668805	699.5999756
1526.185073	702.5999756
1526.701288	696.5999756
1527.217447	698.4000244
1527.733552	700.2000122
1528.249603	698.5999756
1528.765599	699.7999878
1529.28154	701.2000122
1529.797427	696.2000122
1530.313259	701.5999756
1530.829037	699.7999878
1531.34476	701.0
1531.860429	699.2000122
1532.376043	698.5999756
1532.891602	699.0
1533.407107	700.2000122
1533.922558	703.7999878
1534.437954	700.5999756
1534.953295	699.7999878
1535.468582	700.0
1535.983815	702.0
1536.498993	698.7999878
1537.014116	699.4000244
1537.529185	699.4000244
1538.044199	697.0
1538.559159	701.2000122
1539.074064	702.7999878
1539.588915	700.2000122
1540.103712	699.0
1540.618454	698.7999878
1541.133141	698.0
1541.647774	697.2000122
1542.162353	697.5999756
1542.676877	697.2000122
1543.191346	700.0
1543.705761	703.0
1544.220122	697.5999756
1544.734428	697.5999756
1545.24868	698.5999756
1545.762877	698.4000244
1546.27702	697.5999756
1546.791109	699.0
1547.305143	697.5999756
1547.819122	699.0
1548.333047	695.5999756
1548.846918	700.4000244
1549.360734	700.2000122
1549.874496	700.7999878
1550.388204	702.5999756
1550.901857	698.2000122
1551.415455	698.0
1551.929	702.0
1552.442489	699.4000244
1552.955925	696.7999878
1553.469306	699.0
1553.982632	700.0
1554.495905	697.5999756
1555.009123	699.0
1555.522286	694.0
1556.035395	698.0
1556.54845	702.4000244
1557.06145	698.5999756
1557.574396	699.7999878
1558.087288	702.7999878
1558.600125	697.5999756
1559.112908	698.4000244
1559.625637	695.5999756
1560.138311	697.5999756
1560.650931	700.4000244
1561.163497	700.5999756
1561.676008	700.4000244
1562.188465	699.7999878
1562.700867	699.4000244
1563.213216	698.2000122
1563.725509	699.0
1564.237749	697.2000122
1564.749934	699.7999878
1565.262065	700.0
1565.774142	703.0
1566.286164	699.2000122
1566.798132	699.5999756
1567.310046	700.4000244
1567.821906	699.5999756
1568.333711	702.7999878
1568.845462	698.5999756
1569.357158	702.2000122
1569.868801	697.4000244
1570.380389	698.4000244
1570.891922	703.7999878
1571.403402	698.0
1571.914827	699.0
1572.426198	703.0
1572.937515	699.0
1573.448777	703.5999756
1573.959985	699.5999756
1574.471139	700.0
1574.982239	699.2000122
1575.493285	701.2000122
1576.004276	701.4000244
1576.515213	699.0
1577.026096	702.5999756
1577.536924	704.0
1578.047698	700.2000122
1578.558419	699.5999756
1579.069084	698.5999756
1579.579696	703.4000244
1580.090254	701.0
1580.600757	700.2000122
1581.111206	701.5999756
1581.621601	699.5999756
1582.131941	705.4000244
1582.642228	700.4000244
1583.15246	696.5999756
1583.662638	704.5999756
1584.172762	701.2000122
1584.682832	701.2000122
1585.192847	699.2000122
1585.702809	703.2000122
1586.212716	697.7999878
1586.722569	700.2000122
1587.232368	700.2000122
1587.742113	695.7999878
1588.251803	697.2000122
1588.76144	698.5999756
1589.271022	699.0
1589.78055	698.4000244
1590.290024	698.0
1590.799444	699.5999756
1591.30881	703.4000244
1591.818121	696.4000244
1592.327379	701.0
