1042.414189	749.0
1042.980685	746.0
1043.547124	745.0
1044.113505	753.0
1044.679828	746.5
1045.246093	744.0
1045.8123	746.75
1046.378449	741.0
1046.94454	737.75
1047.510573	739.75
1048.076548	736.25
1048.642465	752.25
1049.208325	745.25
1049.774126	739.0
1050.339869	740.75
1050.905555	736.75
1051.471183	736.5
1052.036752	740.75
1052.602264	735.0
1053.167718	738.0
1053.733114	731.5
1054.298452	737.75
1054.863733	738.75
1055.428955	737.25
1055.994119	730.5
1056.559226	738.5
1057.124275	730.25
1057.689266	736.25
1058.254199	733.5
1058.819074	731.5
1059.383891	730.0
1059.94865	734.75
1060.513352	735.0
1061.077996	730.0
1061.642582	733.25
1062.20711	732.75
1062.77158	738.5
1063.335992	736.0
1063.900347	731.5
1064.464643	733.75
1065.028882	725.75
1065.593063	730.25
1066.157187	736.25
1066.721252	729.75
1067.28526	730.5
1067.84921	729.5
1068.413102	734.5
1068.976936	731.5
1069.540713	731.75
1070.104431	737.0
1070.668092	725.25
1071.231696	725.75
1071.795241	730.5
1072.358729	731.0
1072.922159	733.0
1073.485531	728.25
1074.048845	729.25
1074.612102	728.25
1075.175301	728.75
1075.738442	724.0
1076.301525	725.5
1076.864551	732.0
1077.427519	727.5
1077.990429	729.0
1078.553281	723.25
1079.116076	721.0
1079.678813	724.5
1080.241492	724.75
1080.804114	723.75
1081.366678	724.25
1081.929184	723.75
1082.491633	729.5
1083.054024	726.0
1083.616357	724.5
1084.178632	725.0
1084.74085	717.0
1085.30301	723.25
1085.865113	720.25
1086.427158	721.75
1086.989145	719.0
1087.551074	725.0
1088.112946	718.25
1088.67476	723.0
1089.236517	717.25
1089.798216	720.75
1090.359857	717.5
1090.92144	723.25
1091.482966	721.75
1092.044435	723.75
1092.605845	718.75
1093.167199	719.0
1093.728494	719.5
1094.289732	717.5
1094.850912	719.0
1095.412035	722.25
1095.9731	713.5
1096.534107	718.0
1097.095057	724.0
1097.65595	720.5
1098.216784	721.5
1098.777561	721.5
1099.338281	718.25
1099.898943	719.0
1100.459547	717.5
1101.020094	717.5
1101.580584	716.0
1102.141015	722.75
1102.701389	717.25
1103.261706	715.5
1103.821965	721.25
1104.382167	715.25
1104.942311	717.5
1105.502397	711.5
1106.062426	718.5
1106.622398	716.5
1107.182312	715.75
1107.742168	719.0
1108.301967	714.0
1108.861708	714.75
1109.421392	714.25
1109.981019	716.0
1110.540587	714.25
1111.100099	715.5
1111.659553	716.0
1112.218949	715.5
1112.778288	718.5
1113.33757	716.5
1113.896794	712.5
1114.45596	707.75
1115.015069	711.75
1115.574121	719.5
1116.133115	715.75
1116.692052	720.0
1117.250931	714.25
1117.809753	714.25
1118.368517	713.25
1118.927224	711.0
1119.485873	713.0
1120.044465	713.75
1120.603	708.25
1121.161477	709.25
1121.719897	712.25
1122.278259	708.0
1122.836564	707.75
1123.394812	712.0
1123.953002	715.25
1124.511135	710.75
1125.06921	710.5
1125.627228	709.75
1126.185189	714.75
1126.743092	713.5
1127.300938	707.0
1127.858726	713.75
1128.416457	710.5
1128.974131	710.0
1129.531748	713.5
1130.089307	710.0
1130.646808	708.5
1131.204252	707.25
1131.761639	709.25
1132.318969	708.75
1132.876241	709.75
1133.433456	707.75
1133.990614	711.5
1134.547714	709.5
1135.104757	713.75
1135.661743	713.25
1136.218671	711.25
1136.775542	710.75
1137.332356	713.25
1137.889112	705.5
1138.445811	716.5
1139.002453	707.25
1139.559037	709.75
1140.115565	706.75
1140.672035	708.0
1141.228447	711.0
1141.784803	707.5
1142.341101	709.25
1142.897342	710.75
1143.453525	713.25
1144.009651	706.75
1144.565721	715.0
1145.121732	712.5
1145.677687	711.25
1146.233584	704.75
1146.789424	710.5
1147.345207	707.0
1147.900933	704.75
1148.456601	708.5
1149.012212	712.75
1149.567766	708.5
1150.123263	708.25
1150.678702	713.75
1151.234085	711.75
1151.78941	708.25
1152.344678	706.25
1152.899888	708.75
1153.455042	716.0
1154.010138	709.75
1154.565177	711.0
1155.120159	711.75
1155.675084	707.5
1156.229951	706.0
1156.784762	712.0
1157.339515	707.5
1157.894211	711.0
1158.44885	707.75
1159.003432	706.75
1159.557956	713.75
1160.112424	710.25
1160.666834	712.25
1161.221187	699.75
1161.775483	708.75
1162.329722	709.75
1162.883904	711.5
1163.438029	712.5
1163.992096	709.5
1164.546107	707.0
1165.10006	707.25
1165.653956	713.75
1166.207795	709.0
1166.761577	709.75
1167.315302	702.5
1167.86897	711.0
1168.422581	705.75
1168.976134	707.25
1169.529631	703.5
1170.08307	704.75
1170.636453	706.25
1171.189778	704.75
1171.743046	708.5
1172.296257	705.5
1172.849412	705.25
1173.402509	706.25
1173.955549	705.25
1174.508532	704.0
1175.061458	703.5
1175.614327	704.75
1176.167138	708.5
1176.719893	708.25
1177.272591	705.0
1177.825232	705.0
1178.377816	707.75
1178.930342	707.0
1179.482812	707.75
1180.035225	707.0
1180.587581	704.75
1181.139879	704.0
1181.692121	706.75
1182.244306	707.0
1182.796434	703.25
1183.348504	708.25
1183.900518	705.75
1184.452475	707.0
1185.004375	704.25
1185.556218	706.0
1186.108004	707.0
1186.659733	697.0
1187.211405	703.25
1187.76302	706.25
1188.314578	713.25
1188.866079	706.75
1189.417523	702.25
1189.96891	700.75
1190.520241	705.5
1191.071514	704.5
1191.622731	703.25
1192.17389	706.5
1192.724993	704.0
1193.276039	725.25
1193.827027	703.25
1194.377959	703.5
1194.928834	703.25
1195.479653	704.75
1196.030414	708.75
1196.581118	707.0
1197.131766	703.0
1197.682356	705.75
1198.23289	707.0
1198.783367	706.0
1199.333786	704.25
1199.88415	703.75
1200.434456	706.0
1200.984705	698.75
1201.534898	704.5
1202.085033	705.25
1202.635112	703.25
1203.185134	706.0
1203.735099	707.5
1204.285007	702.0
1204.834859	704.25
1205.384653	704.0
1205.934391	706.0
1206.484072	702.0
1207.033696	699.25
1207.583263	707.0
1208.132774	704.0
1208.682228	705.25
1209.231624	704.25
1209.780965	705.25
1210.330248	701.75
1210.879474	704.0
1211.428644	699.5
1211.977757	707.75
1212.526813	709.25
1213.075813	705.5
1213.624755	705.0
1214.173641	705.0
1214.72247	703.0
1215.271242	703.25
1215.819958	699.75
1216.368617	704.75
1216.917219	704.5
1217.465764	706.75
1218.014253	701.25
1218.562685	704.0
1219.11106	705.5
1219.659378	702.75
1220.20764	702.75
1220.755845	703.5
1221.303993	705.5
1221.852085	707.75
1222.400119	706.75
1222.948097	702.0
1223.496019	704.5
1224.043883	699.75
1224.591691	704.25
1225.139443	703.75
1225.687137	703.0
1226.234775	704.0
1226.782357	701.0
1227.329881	706.0
1227.877349	703.75
1228.42476	703.25
1228.972115	704.75
1229.519413	702.0
1230.066654	703.25
1230.613839	703.25
1231.160967	704.5
1231.708038	706.5
1232.255053	701.5
1232.802011	703.75
1233.348912	704.75
1233.895757	702.75
1234.442545	706.5
1234.989277	701.5
1235.535951	704.0
1236.08257	699.0
1236.629131	706.0
1237.175636	700.25
1237.722085	703.0
1238.268477	700.25
1238.814812	701.0
1239.361091	704.0
1239.907313	701.75
1240.453478	700.25
1240.999587	701.25
1241.54564	703.0
1242.091636	699.5
1242.637575	704.25
1243.183457	702.0
1243.729284	703.25
1244.275053	703.75
1244.820766	702.75
1245.366423	707.75
1245.912022	702.5
1246.457566	699.75
1247.003053	702.25
1247.548483	704.0
1248.093857	704.5
1248.639174	705.75
1249.184435	704.0
1249.729639	702.25
1250.274787	704.5
1250.819878	698.75
1251.364912	703.0
1251.909891	698.5
1252.454812	697.25
1252.999677	702.0
1253.544486	698.5
1254.089238	699.5
1254.633934	701.5
1255.178573	698.75
1255.723156	700.75
1256.267682	700.0
1256.812152	703.25
1257.356565	695.5
1257.900922	701.5
1258.445223	701.75
1258.989467	699.75
1259.533654	699.0
1260.077785	708.0
1260.62186	703.75
1261.165878	701.0
1261.70984	699.25
1262.253745	701.0
1262.797594	701.5
1263.341386	701.75
1263.885123	702.75
1264.428802	704.0
1264.972425	703.25
1265.515992	718.5
1266.059503	728.75
1266.602957	712.25
1267.146354	702.75
1267.689696	708.25
1268.23298	701.5
1268.776209	695.25
1269.319381	700.0
1269.862497	698.5
1270.405556	702.25
1270.948559	698.75
1271.491506	699.75
1272.034396	700.25
1272.57723	700.25
1273.120007	700.75
1273.662728	700.0
1274.205393	699.25
1274.748002	702.25
1275.290554	699.5
1275.83305	698.0
1276.375489	703.75
1276.917872	697.5
1277.460199	702.25
1278.00247	697.25
1278.544684	701.25
1279.086842	700.25
1279.628943	702.25
1280.170989	697.75
1280.712978	700.5
1281.25491	702.5
1281.796787	700.0
1282.338607	700.0
1282.880371	702.75
1283.422078	702.75
1283.963729	703.0
1284.505324	702.75
1285.046863	707.25
1285.588345	746.0
1286.129772	897.0
1286.671142	888.75
1287.212455	742.0
1287.753713	703.75
1288.294914	705.75
1288.836059	699.5
1289.377147	697.5
1289.91818	697.5
1290.459156	703.0
1291.000076	703.5
1291.54094	699.0
1292.081747	697.75
1292.622499	699.75
1293.163194	697.25
1293.703833	702.25
1294.244415	702.5
1294.784942	699.75
1295.325412	700.75
1295.865826	702.0
1296.406184	702.5
1296.946486	711.25
1298.026921	703.75
1298.567054	696.25
1299.107131	697.5
1299.647152	698.25
1300.187116	696.0
1300.727025	698.0
1301.266877	698.75
1301.806673	696.25
1302.346413	698.75
1302.886097	700.25
1303.425725	700.75
1303.965297	699.75
1305.583675	703.0
1306.123022	701.5
1306.662313	699.5
1307.201548	698.75
1307.740727	701.5
1308.279849	697.0
1308.818916	697.75
1309.357926	698.5
1309.896881	703.5
1310.435779	700.0
1310.974621	696.0
1311.513407	698.0
1312.052137	696.0
1312.590811	701.5
1313.129429	701.0
1313.667991	699.0
1314.206497	702.0
1314.744946	698.75
1315.28334	701.25
1315.821678	698.75
1316.359959	698.0
1316.898184	700.25
1317.436354	697.5
1317.974467	703.25
1318.512525	702.0
1319.050526	700.25
1319.588471	701.75
1320.12636	698.5
1320.664194	701.0
1321.201971	701.25
1321.739692	697.25
1322.277357	696.75
1322.814967	697.0
1323.35252	699.75
1323.890017	704.25
1324.427458	697.0
1324.964843	698.75
1325.502173	700.75
1326.039446	702.25
1326.576663	700.5
1327.113824	700.75
1327.65093	698.5
1328.187979	697.5
1328.724972	697.0
1329.26191	694.0
1329.798791	699.5
1330.335617	694.75
1330.872386	698.25
1331.4091	697.0
1331.945758	697.25
1332.48236	700.0
1333.018905	699.75
1333.555395	693.25
1334.091829	700.75
1334.628207	700.75
1335.164529	706.0
1335.700796	697.5
1336.237006	696.75
1336.77316	704.25
1337.309259	704.5
1337.845301	701.25
1338.381288	701.25
1338.917219	699.5
1339.453094	698.5
1339.988913	700.0
1340.524676	702.0
1341.060383	695.25
1341.596034	696.25
1342.13163	695.25
1342.66717	700.5
1343.202653	696.75
1343.738081	696.25
1344.273453	700.25
1344.80877	697.75
1345.34403	702.5
1345.879235	698.25
1346.414383	699.0
1346.949476	698.75
1347.484513	701.5
1348.019494	698.25
1348.55442	697.75
1349.089289	697.75
1349.624103	697.25
1350.158861	700.75
1350.693563	699.0
1351.228209	696.75
1351.7628	697.75
1352.297334	697.25
1352.831813	698.75
1353.366236	695.0
1353.900604	697.25
1354.434915	696.0
1354.969171	693.75
1355.503371	698.0
1356.037515	694.25
1356.571604	703.75
1357.105636	698.0
1357.639613	700.75
1358.173535	698.0
1358.7074	702.0
1359.24121	693.5
1359.774964	699.0
1360.308662	697.5
1360.842304	701.75
1361.375891	700.75
1361.909422	699.5
1362.442897	694.0
1362.976317	700.0
1363.50968	697.5
1364.042989	700.75
1364.576241	695.25
1365.109438	696.75
1365.642579	699.25
1366.175664	698.25
1366.708693	695.75
1367.241667	699.5
1367.774585	698.0
1368.307448	696.5
1368.840255	698.25
1369.373006	701.0
1369.905701	699.25
1370.438341	702.25
1370.970925	701.25
1371.503454	698.0
1372.035926	700.0
1372.568344	695.5
1373.100705	697.5
1373.633011	697.5
1374.165261	698.0
1374.697456	699.0
1375.229595	699.0
1375.761678	701.5
1376.293705	697.75
1376.825677	698.0
1377.357594	697.25
1377.889455	696.75
1378.42126	699.75
1378.953009	696.0
1379.484703	695.25
1380.016342	700.75
1380.547924	698.5
1381.079452	696.0
1381.610923	696.75
1382.142339	698.5
1382.673699	697.0
1383.205004	700.25
1383.736253	698.0
1384.267447	698.75
1384.798585	700.5
1385.329668	697.75
1385.860695	699.5
1386.391666	702.5
1386.922582	704.25
1387.453442	698.5
1387.984247	703.5
1388.514996	734.5
1389.04569	937.75
1389.576328	1047.75
1390.10691	775.25
1390.637437	708.0
1391.167909	701.75
1391.698325	701.0
1392.228685	698.75
1392.75899	695.5
1393.28924	694.5
1393.819434	700.75
1394.349572	699.25
1394.879655	699.0
1395.409683	693.25
1395.939655	697.25
1396.469571	699.0
1396.999432	699.0
1397.529237	699.25
1398.058987	698.75
1398.588682	700.75
1399.118321	702.0
1399.647905	701.25
1400.177433	698.25
1400.706906	698.25
1401.236323	701.75
1401.765685	695.25
1402.294991	697.0
1402.824242	696.5
1403.353437	700.75
1403.882577	698.0
1404.411662	698.75
1404.940691	695.25
1405.469665	696.0
1405.998583	692.75
1406.527446	698.5
1407.056253	697.25
1407.585005	697.75
1408.113702	699.0
1408.642343	700.75
1409.170929	702.75
1409.69946	702.75
1410.227935	720.0
1410.756354	736.25
1411.284719	713.5
1411.813028	698.0
1412.341281	700.5
1412.869479	699.75
1413.397622	696.75
1413.92571	698.0
1414.453742	695.0
1414.981718	699.5
1415.50964	715.0
1416.037506	701.25
1416.565316	698.25
1417.093072	697.75
1417.620772	697.5
1418.148416	697.75
1418.676005	700.75
1419.203539	698.5
1419.731018	697.5
1420.258441	700.75
1420.785809	696.0
1421.313122	696.5
1421.840379	696.5
1422.367582	697.5
1422.894728	701.0
1423.42182	695.75
1423.948856	696.5
1424.475837	696.25
1425.002762	697.0
1425.529633	698.5
1426.056448	697.25
1426.583207	700.0
1427.109912	701.25
1427.636561	693.75
1428.163155	701.25
1428.689694	696.0
1429.216177	692.5
1429.742605	693.75
1430.268978	699.5
1430.795296	698.5
1431.321558	697.0
1431.847765	695.0
1432.373917	690.25
1432.900014	695.25
1433.426056	694.5
1433.952042	697.0
1434.477973	695.5
1435.003849	696.75
1435.529669	695.75
1436.055435	697.0
1436.581145	698.25
1437.1068	697.0
1437.632399	698.0
1438.157944	695.25
1438.683433	696.5
1439.208868	693.5
1439.734247	699.25
1440.25957	696.25
1440.784839	697.25
1441.310053	696.75
1441.835211	698.75
1442.360314	696.75
1442.885362	695.5
1443.410355	697.75
1443.935292	694.0
1444.460175	696.5
1444.985002	695.5
1445.509774	699.5
1446.034491	698.25
1446.559153	697.5
1447.08376	696.0
1447.608312	700.5
1448.132808	700.75
1448.65725	693.25
1449.181636	696.25
1449.705967	694.75
1450.230243	699.0
1450.754464	696.25
1451.27863	694.0
1451.802741	697.0
1452.326797	695.5
1452.850797	698.0
1453.374743	694.0
1453.898633	694.25
1454.422468	696.0
1454.946249	692.5
1455.469974	697.0
1455.993644	698.0
1456.517259	695.75
1457.040819	696.25
1457.564324	696.75
1458.087773	697.25
1458.611168	697.0
1459.134508	696.0
1459.657793	701.0
1460.181022	696.25
1460.704197	697.75
1461.227316	697.75
1461.750381	698.0
1462.27339	698.25
1462.796345	714.25
1463.319244	717.0
1463.842089	695.5
1464.364878	697.25
1464.887613	694.5
1465.410292	696.5
1465.932916	692.5
1466.455486	696.75
1466.978	694.75
1467.50046	695.5
1468.022864	692.75
1468.545214	694.0
1469.067508	692.75
1469.589748	697.5
1470.111932	699.75
1470.634062	697.0
1471.156136	697.25
1471.678156	694.0
1472.20012	701.75
1472.72203	695.25
1473.243885	697.5
1473.765685	695.5
1474.28743	699.0
1474.80912	700.0
1475.330755	694.75
1475.852335	696.0
1476.37386	698.25
1476.89533	695.5
1477.416745	696.0
1477.938106	695.75
1478.459411	690.25
1478.980662	697.25
1479.501857	692.25
1480.022998	695.75
1480.544084	696.25
1481.065115	693.75
1481.586091	695.25
1482.107012	696.0
1482.627878	697.25
1483.14869	689.75
1483.669446	696.25
1484.190148	694.25
1484.710794	694.75
1485.231386	696.75
1485.751923	695.25
1486.272406	694.75
1486.792833	693.0
1487.313205	690.5
1487.833523	693.75
1488.353786	692.5
1488.873994	699.0
1489.394147	690.75
1489.914245	696.25
1490.434288	698.25
1490.954277	696.5
1491.474211	693.5
1491.99409	694.5
1492.513914	698.25
1493.033683	697.5
1493.553398	696.0
1494.073057	692.0
1494.592662	693.5
1495.112212	693.5
1495.631708	692.0
1496.151148	694.25
1496.670534	693.75
1497.189865	690.75
1497.709141	695.0
1498.228362	696.5
1498.747529	693.25
1499.266641	695.75
1499.785698	703.75
1500.3047	691.25
1500.823648	697.0
1501.34254	689.25
1501.861379	697.5
1502.380162	695.75
1502.89889	694.75
1503.417564	694.5
1503.936183	691.25
1504.454748	695.75
1504.973257	692.25
1505.491712	693.25
1506.010112	693.5
1506.528458	695.75
1507.046748	695.75
1507.564984	692.0
1508.083166	693.75
1508.601292	693.5
1509.119364	695.75
1509.637381	695.25
1510.155344	694.75
1510.673252	700.25
1511.191105	693.75
1511.708903	689.5
1512.226647	695.25
1512.744336	694.75
1513.261971	693.0
1513.77955	691.75
1514.297076	694.25
1514.814546	691.25
1515.331962	695.5
1515.849323	697.0
1516.366629	694.75
1516.883881	695.25
1517.401078	694.75
1517.918221	693.75
1518.435309	699.25
1518.952342	697.75
1519.469321	693.0
1519.986245	690.25
1520.503114	689.75
1521.019929	698.0
1521.536689	694.5
1522.053395	692.75
1522.570046	694.25
1523.086642	691.75
1523.603184	695.0
1524.119671	690.25
1524.636103	695.75
1525.152481	696.75
1525.668805	702.75
1526.185073	709.75
1526.701288	698.5
1527.217447	695.25
1527.733552	691.5
1528.249603	695.5
1528.765599	696.5
1529.28154	694.5
1529.797427	693.0
1530.313259	694.0
1530.829037	696.75
1531.34476	695.5
1531.860429	697.75
1532.376043	692.0
1532.891602	693.0
1533.407107	693.25
1533.922558	693.25
1534.437954	691.5
1534.953295	697.75
1535.468582	695.5
1535.983815	696.75
1536.498993	693.75
1537.014116	696.5
1537.529185	689.75
1538.044199	694.0
1538.559159	694.25
1539.074064	694.75
1539.588915	694.25
1540.103712	691.5
1540.618454	694.25
1541.133141	697.75
1541.647774	693.75
1542.162353	691.25
1542.676877	694.75
1543.191346	694.25
1543.705761	693.75
1544.220122	695.0
1544.734428	694.0
1545.24868	695.75
1545.762877	694.75
1546.27702	691.25
1546.791109	695.75
1547.305143	694.75
1547.819122	693.25
1548.333047	695.75
1548.846918	692.25
1549.360734	693.25
1549.874496	693.5
1550.388204	694.25
1550.901857	691.25
1551.415455	693.5
1551.929	693.75
1552.442489	697.0
1552.955925	698.5
1553.469306	692.25
1553.982632	696.0
1554.495905	691.25
1555.009123	697.25
1555.522286	693.5
1556.035395	691.75
1556.54845	694.5
1557.06145	693.5
1557.574396	693.75
1558.087288	695.0
1558.600125	697.25
1559.112908	690.0
1559.625637	693.25
1560.138311	694.75
1560.650931	691.0
1561.163497	699.0
1561.676008	691.75
1562.188465	696.75
1562.700867	693.25
1563.213216	690.0
1563.725509	697.0
1564.237749	698.0
1564.749934	698.25
1565.262065	696.75
1565.774142	692.75
1566.286164	697.5
1566.798132	698.0
1567.310046	700.25
1567.821906	694.25
1568.333711	693.75
1568.845462	696.25
1569.357158	695.5
1569.868801	695.25
1570.380389	698.0
1570.891922	693.75
1571.403402	695.75
1571.914827	690.75
1572.426198	693.25
1572.937515	696.75
1573.448777	691.0
1573.959985	695.75
1574.471139	693.5
1574.982239	692.5
1575.493285	695.25
1576.004276	692.5
1576.515213	693.5
1577.026096	693.0
1577.536924	689.0
1578.047698	693.25
1578.558419	698.5
1579.069084	696.75
1579.579696	693.0
1580.090254	695.25
1580.600757	695.75
1581.111206	692.0
1581.621601	692.5
1582.131941	694.5
1582.642228	693.5
1583.15246	695.25
1583.662638	691.25
1584.172762	690.75
1584.682832	693.0
1585.192847	695.5
1585.702809	690.5
1586.212716	694.0
1586.722569	697.0
1587.232368	695.25
1587.742113	690.75
1588.251803	693.0
1588.76144	693.0
1589.271022	692.75
1589.78055	694.25
1590.290024	692.75
1590.799444	694.5
1591.30881	695.75
1591.818121	693.25
1592.327379	692.0
