1042.208489	686.25
1042.775002	686.25
1043.341458	692.5
1043.907855	690.0
1044.474195	689.75
1045.040476	688.0
1045.6067	688.0
1046.172866	687.5
1046.738974	688.0
1047.305024	688.0
1047.871015	686.0
1048.436949	685.75
1049.002825	689.25
1049.568644	686.0
1050.134404	687.25
1050.700106	685.75
1051.26575	682.75
1051.831337	687.5
1052.396865	685.75
1052.962336	681.75
1053.527749	682.5
1054.093103	685.0
1054.6584	684.5
1055.223639	680.25
1055.788821	683.0
1056.353944	681.25
1056.919009	687.0
1057.484017	683.25
1058.048967	680.25
1058.613858	677.25
1059.178692	681.75
1059.743468	682.75
1060.308187	679.0
1060.872847	680.25
1061.43745	678.25
1062.001994	684.0
1062.566481	682.5
1063.13091	682.5
1063.695281	679.25
1064.259595	681.25
1064.82385	681.0
1065.388048	680.75
1065.952188	678.75
1066.51627	680.0
1067.080295	680.0
1067.644261	679.0
1068.20817	683.0
1068.772021	678.25
1069.335814	677.0
1069.899549	686.0
1070.463227	680.5
1071.026847	676.25
1071.590409	680.25
1072.153913	680.5
1072.717359	678.5
1073.280748	677.25
1073.844079	676.5
1074.407352	678.5
1074.970568	677.25
1075.533726	680.5
1076.096826	680.25
1076.659868	679.75
1077.222853	678.25
1077.785779	679.0
1078.348648	678.75
1078.91146	680.5
1079.474214	678.0
1080.036909	679.5
1080.599548	681.0
1081.162128	681.75
1081.724651	680.5
1082.287116	683.0
1082.849524	681.0
1083.411873	678.5
1083.974165	678.75
1084.5364	679.75
1085.098577	679.75
1085.660696	678.5
1086.222757	680.0
1086.784761	678.25
1087.346707	681.0
1087.908595	677.5
1088.470426	680.25
1089.032199	680.5
1089.593914	679.75
1090.155572	678.5
1090.717172	679.5
1091.278715	679.25
1091.8402	678.5
1092.401627	678.75
1092.962997	678.5
1093.524309	678.0
1094.085563	679.75
1094.64676	677.25
1095.207899	685.75
1095.768981	679.0
1096.330005	680.25
1096.890971	690.5
1097.45188	675.75
1098.012732	679.75
1098.573525	678.5
1099.134261	676.75
1099.69494	677.0
1100.255561	677.25
1100.816124	679.75
1101.37663	678.0
1101.937078	678.75
1102.497469	680.25
1103.057802	677.5
1103.618078	681.5
1104.178296	680.0
1104.738456	679.75
1105.298559	681.5
1105.858605	677.75
1106.418593	677.0
1106.978523	680.5
1107.538396	683.25
1108.098212	681.25
1108.657969	677.0
1109.21767	679.0
1109.777313	682.25
1110.336898	679.5
1110.896426	682.5
1111.455896	679.5
1112.015309	679.75
1112.574665	682.25
1113.133963	681.5
1113.693203	678.25
1114.252386	678.75
1114.811512	678.25
1115.37058	677.5
1115.92959	679.0
1116.488544	677.5
1117.047439	680.25
1117.606278	682.0
1118.165058	678.25
1118.723782	678.25
1119.282448	678.75
1119.841056	681.5
1120.399607	676.0
1120.958101	677.75
1121.516537	680.0
1122.074916	675.5
1122.633237	673.75
1123.191501	678.75
1123.749708	679.0
1124.307857	676.5
1124.865949	679.25
1125.423984	683.75
1125.981961	676.75
1126.53988	679.25
1127.097742	682.5
1127.655547	677.75
1128.213295	680.0
1128.770985	676.5
1129.328618	675.0
1129.886193	680.5
1130.443711	679.0
1131.001172	678.75
1131.558575	679.0
1132.115921	678.5
1132.67321	676.75
1133.230441	677.25
1133.787615	679.0
1134.344732	678.75
1134.901792	678.5
1135.458794	676.5
1136.015738	673.5
1136.572626	680.25
1137.129456	675.25
1137.686229	679.0
1138.242944	681.75
1138.799602	680.5
1139.356203	680.0
1139.912747	683.0
1140.469233	678.0
1141.025662	678.25
1141.582034	680.25
1142.138348	680.0
1142.694606	681.0
1143.250806	679.25
1143.806948	676.25
1144.363034	678.5
1144.919062	678.0
1145.475033	680.0
1146.030946	680.75
1146.586803	677.25
1147.142602	680.0
1147.698344	678.5
1148.254029	681.25
1148.809656	685.25
1149.365227	677.25
1149.92074	680.25
1150.476195	677.5
1151.031594	678.5
1151.586936	680.5
1152.14222	680.75
1152.697447	678.75
1153.252617	674.5
1153.807729	679.25
1154.362785	679.25
1154.917783	680.0
1155.472724	682.75
1156.027608	677.0
1156.582435	679.5
1157.137204	679.25
1157.691917	678.75
1158.246572	681.25
1158.80117	679.75
1159.355711	679.25
1159.910195	678.25
1160.464621	679.0
1161.018991	677.0
1161.573303	679.5
1162.127558	678.75
1162.681756	680.75
1163.235897	678.75
1163.789981	678.75
1164.344008	679.5
1164.897978	677.25
1165.45189	681.0
1166.005745	679.0
1166.559544	681.5
1167.113285	679.0
1167.666969	679.75
1168.220596	680.0
1168.774166	679.5
1169.327679	678.0
1169.881135	683.0
1170.434533	679.5
1170.987875	679.0
1171.541159	676.75
1172.094387	679.5
1172.647557	683.0
1173.200671	677.25
1173.753727	677.0
1174.306726	679.5
1174.859668	682.5
1175.412554	680.25
1175.965382	678.75
1176.518153	680.75
1177.070867	679.0
1177.623524	683.25
1178.176124	679.0
1178.728667	680.75
1179.281153	682.5
1179.833582	683.5
1180.385954	679.0
1180.938269	678.75
1181.490527	682.5
1182.042728	682.0
1182.594872	677.75
1183.146959	679.5
1183.698989	678.5
1184.250962	677.0
1184.802878	680.25
1185.354737	678.75
1185.906539	680.0
1186.458285	681.5
1187.009973	681.5
1187.561604	679.0
1188.113178	679.0
1188.664696	677.75
1189.216156	678.0
1189.76756	681.0
1190.318906	679.0
1190.870196	680.25
1191.421429	680.0
1191.972604	679.75
1192.523723	679.0
1193.074785	703.5
1193.62579	681.0
1194.176738	677.75
1194.727629	677.25
1195.278464	682.75
1195.829241	680.0
1196.379962	679.0
1196.930625	679.5
1197.481232	682.25
1198.031782	681.0
1198.582275	677.25
1199.132711	681.0
1199.68309	681.5
1200.233413	679.25
1200.783678	678.75
1201.333887	684.25
1201.884039	681.25
1202.434134	679.5
1202.984172	682.25
1203.534153	676.75
1204.084077	683.25
1204.633945	680.5
1205.183756	684.25
1205.73351	675.75
1206.283207	678.25
1206.832847	682.75
1207.38243	681.0
1207.931957	679.25
1208.481427	682.25
1209.03084	677.25
1209.580196	684.0
1210.129496	682.0
1210.678738	680.25
1211.227924	679.25
1211.777053	680.75
1212.326126	682.25
1212.875141	680.25
1213.4241	683.25
1213.973002	679.25
1214.521847	681.75
1215.070636	679.0
1215.619367	683.0
1216.168042	681.75
1216.71666	679.25
1217.265222	682.5
1217.813726	679.0
1218.362174	681.0
1218.910566	679.0
1219.4589	681.25
1220.007178	684.25
1220.555399	682.25
1221.103563	682.0
1221.651671	683.75
1222.199722	683.0
1222.747716	683.0
1223.295653	682.5
1223.843534	681.75
1224.391358	680.75
1224.939126	680.25
1225.486836	682.75
1226.03449	682.5
1226.582088	682.0
1227.129628	683.75
1227.677112	684.5
1228.22454	680.75
1228.77191	683.5
1229.319224	681.0
1229.866482	682.5
1230.413682	682.25
1230.960826	678.75
1231.507914	685.0
1232.054945	682.0
1232.601919	684.75
1233.148836	682.5
1233.695697	685.75
1234.242501	682.75
1234.789249	683.0
1235.33594	680.25
1235.882574	683.75
1236.429152	682.75
1236.975673	682.25
1237.522138	686.25
1238.068545	684.25
1238.614897	686.75
1239.161191	684.75
1239.70743	685.75
1240.253611	686.25
1240.799736	685.75
1241.345805	683.5
1241.891816	685.0
1242.437772	684.25
1242.98367	684.25
1243.529512	684.0
1244.075298	683.75
1244.621027	683.25
1245.1667	680.75
1245.712315	685.5
1246.257875	686.75
1246.803378	688.0
1247.348824	685.0
1247.894214	687.75
1248.439547	683.5
1248.984824	692.25
1249.530044	689.75
1250.075208	685.0
1250.620315	684.75
1251.165365	688.5
1251.71036	689.0
1252.255297	687.25
1252.800178	689.25
1253.345003	687.0
1253.889771	690.25
1254.434483	683.75
1254.979138	689.25
1255.523737	687.25
1256.068279	690.0
1256.612765	689.25
1257.157194	689.0
1257.701567	686.75
1258.245884	688.5
1258.790143	692.75
1259.334347	691.75
1259.878494	700.25
1260.422585	689.25
1260.966619	690.5
1261.510596	692.5
1262.054518	698.75
1262.598383	701.0
1263.142191	703.25
1263.685943	713.75
1264.229639	727.75
1264.773278	748.25
1265.316861	753.75
1265.860387	734.5
1266.403857	710.25
1266.947271	703.5
1267.490628	697.5
1268.033929	697.75
1268.577173	693.75
1269.120361	694.25
1269.663493	692.25
1270.206568	688.0
1270.749587	693.25
1271.292549	689.25
1271.835456	686.75
1272.378305	694.0
1272.921099	691.5
1273.463836	690.75
1274.006517	694.5
1274.549141	688.0
1275.091709	689.75
1275.634221	690.75
1276.176676	689.75
1276.719075	689.75
1277.261418	694.75
1277.803704	693.0
1278.345935	697.75
1278.888108	694.75
1279.430226	696.0
1279.972287	700.5
1280.514292	702.5
1281.05624	697.25
1281.598133	709.25
1282.139969	718.75
1282.681748	738.0
1283.223472	775.0
1283.765139	858.25
1284.30675	1066.25
1284.848304	1488.5
1285.389803	1777.75
1285.931245	1365.0
1286.472631	950.0
1287.01396	784.5
1287.555233	737.25
1288.09645	716.5
1288.637611	713.75
1289.178716	712.0
1289.719764	699.5
1290.260756	702.0
1290.801692	698.5
1291.342572	695.25
1291.883395	695.25
1292.424162	692.75
1292.964873	693.0
1293.505528	690.75
1294.046126	691.25
1294.586669	693.0
1295.127155	692.0
1295.667585	691.75
1296.207958	692.5
1296.748276	693.75
1297.288537	688.25
1297.828743	687.25
1298.368892	690.75
1298.908984	687.5
1299.449021	688.5
1299.989002	688.0
1301.608606	707.25
1302.148362	689.0
1302.688062	686.75
1303.227705	688.25
1303.767293	685.25
1304.306824	689.0
1304.846299	686.75
1305.385718	688.5
1305.925081	693.25
1306.464388	685.5
1307.003639	687.5
1307.542833	688.75
1308.081972	686.0
1308.621054	687.75
1309.16008	687.75
1309.699051	690.25
1310.237965	686.0
1310.776823	683.75
1311.315625	690.5
1311.85437	687.25
1312.39306	686.5
1312.931694	684.5
1313.470271	685.0
1314.008793	686.0
1314.547258	689.75
1315.085668	687.5
1315.624021	687.0
1316.162318	685.0
1316.70056	684.5
1317.238745	689.5
1317.776874	684.5
1318.314947	684.75
1318.852964	688.0
1319.390925	686.0
1319.92883	684.0
1320.466679	684.75
1321.004472	687.0
1321.542209	684.75
1322.07989	685.75
1322.617515	685.25
1323.155084	687.5
1323.692597	690.25
1324.230054	683.5
1324.767455	684.0
1325.3048	684.25
1325.842089	690.0
1326.379322	686.0
1326.916499	685.5
1327.45362	687.25
1327.990685	683.5
1328.527694	685.75
1329.064647	687.75
1329.601544	685.25
1330.138386	686.5
1330.675171	682.25
1331.2119	685.0
1331.748574	687.25
1332.285191	687.25
1332.821753	684.5
1333.358258	681.75
1333.894708	682.75
1334.431102	683.75
1334.967439	684.5
1335.503721	686.25
1336.039947	680.75
1336.576117	683.25
1337.112232	686.25
1337.64829	685.25
1338.184292	681.0
1338.720239	684.0
1339.256129	684.25
1339.791964	685.25
1340.327743	683.5
1340.863466	683.75
1341.399133	687.25
1341.934744	686.5
1342.470299	685.75
1343.005799	687.25
1343.541243	683.25
1344.07663	684.5
1344.611962	687.75
1345.147238	685.25
1345.682458	679.5
1346.217623	682.5
1346.752731	685.25
1347.287784	686.0
1347.822781	687.25
1348.357722	685.0
1348.892607	688.25
1349.427437	682.75
1349.96221	686.25
1350.496928	685.75
1351.03159	682.75
1351.566196	688.75
1352.100746	686.75
1352.635241	684.25
1353.16968	686.25
1353.704063	682.75
1354.23839	686.0
1354.772661	687.75
1355.306877	686.0
1355.841037	691.0
1356.375141	683.0
1356.909189	686.5
1357.443182	685.0
1357.977118	687.75
1358.510999	683.5
1359.044825	685.5
1359.578594	688.75
1360.112308	686.25
1360.645966	687.25
1361.179568	684.5
1361.713115	690.0
1362.246606	688.5
1362.780041	685.25
1363.31342	686.25
1363.846744	684.75
1364.380012	688.25
1364.913224	688.75
1365.446381	693.25
1365.979482	691.5
1366.512527	690.0
1367.045516	690.25
1367.57845	691.75
1368.111328	690.25
1368.644151	684.5
1369.176917	690.75
1369.709628	695.0
1370.242284	712.0
1370.774884	720.25
1371.307428	700.75
1371.839916	691.75
1372.372349	693.25
1372.904726	690.75
1373.437047	690.25
1373.969313	688.75
1374.501523	688.0
1375.033678	691.5
1375.565776	689.25
1376.09782	689.75
1376.629807	691.0
1377.161739	686.75
1377.693615	692.25
1378.225436	694.0
1378.757201	691.0
1379.288911	691.0
1379.820565	693.5
1380.352163	694.0
1380.883706	695.75
1381.415193	697.75
1381.946624	696.25
1382.478	697.5
1383.009321	703.25
1383.540585	705.0
1384.071795	707.75
1384.602948	706.5
1385.134046	719.75
1385.665089	725.25
1386.196076	748.75
1386.727007	786.0
1387.257883	865.0
1387.788703	1144.25
1388.319468	2006.5
1388.850177	2798.25
1389.38083	1773.75
1389.911429	1001.75
1390.441971	804.75
1390.972458	754.0
1391.50289	725.75
1392.033266	714.75
1392.563586	706.5
1393.093851	704.25
1393.624061	706.25
1394.154214	697.75
1394.684313	696.5
1395.214356	695.5
1395.744343	698.0
1396.274275	695.5
1396.804152	691.75
1397.333973	694.25
1397.863738	689.75
1398.393448	689.5
1398.923103	689.0
1399.452702	690.75
1399.982246	692.0
1400.511734	692.75
1401.041167	692.0
1401.570544	692.25
1402.099866	691.0
1402.629132	692.0
1403.158343	691.75
1403.687498	687.25
1404.216598	692.25
1404.745643	691.25
1405.274632	694.25
1405.803566	690.75
1406.332444	694.75
1406.861267	697.5
1407.390035	699.5
1407.918747	702.5
1408.447404	714.0
1408.976005	731.75
1409.504551	772.75
1410.033041	807.25
1410.561476	799.0
1411.089856	746.25
1411.618181	715.25
1412.14645	699.25
1412.674663	698.5
1413.202821	690.25
1413.730924	689.0
1414.258972	690.0
1414.786964	688.0
1415.314901	698.75
1415.842782	688.75
1416.370608	687.0
1416.898379	683.75
1417.426094	685.25
1417.953754	687.0
1418.481359	687.25
1419.008908	687.0
1419.536402	685.75
1420.063841	686.5
1420.591225	686.5
1421.118553	686.5
1421.645826	685.25
1422.173043	685.5
1422.700205	684.75
1423.227312	683.25
1423.754364	683.0
1424.28136	683.5
1424.808301	689.5
1425.335187	687.0
1425.862017	690.5
1426.388792	690.0
1426.915512	690.5
1427.442177	686.75
1427.968786	683.5
1428.49534	684.0
1429.021839	685.25
1429.548282	680.25
1430.074671	684.0
1430.601004	682.5
1431.127281	683.5
1431.653504	682.5
1432.179671	685.25
1432.705783	684.25
1433.23184	682.75
1433.757842	683.75
1434.283788	682.75
1434.809679	686.0
1435.335515	681.5
1435.861296	682.25
1436.387022	680.25
1436.912692	683.75
1437.438307	683.0
1437.963867	683.75
1438.489372	684.25
1439.014821	681.0
1439.540216	684.0
1440.065555	679.25
1440.590839	681.5
1441.116068	681.25
1441.641241	681.0
1442.16636	683.0
1442.691423	684.5
1443.216431	679.25
1443.741384	678.0
1444.266282	677.75
1444.791125	682.5
1445.315912	680.25
1445.840645	677.5
1446.365322	682.0
1446.889944	680.25
1447.414511	679.25
1447.939023	680.25
1448.463479	679.25
1448.987881	678.5
1449.512228	680.75
1450.036519	683.25
1450.560755	682.0
1451.084936	680.25
1451.609062	678.25
1452.133133	679.25
1452.657149	680.25
1453.18111	681.5
1453.705016	680.25
1454.228866	679.0
1454.752662	680.75
1455.276402	680.75
1455.800088	679.0
1456.323718	679.5
1456.847293	681.5
1457.370813	675.5
1457.894278	682.5
1458.417689	680.75
1458.941044	677.75
1459.464344	679.5
1459.987588	677.0
1460.510778	678.75
1461.033913	679.0
1461.556993	679.5
1462.080018	676.5
1462.602987	679.0
1463.125902	687.75
1463.648762	680.0
1464.171567	676.75
1464.694316	674.75
1465.217011	675.75
1465.739651	676.25
1466.262235	677.5
1466.784765	679.25
1467.30724	681.75
1467.829659	677.5
1468.352024	681.25
1468.874334	679.0
1469.396589	676.0
1469.918788	679.75
1470.440933	677.25
1470.963023	678.0
1471.485058	679.25
1472.007038	680.5
1472.528963	679.5
1473.050833	677.25
1473.572648	677.25
1474.094408	680.5
1474.616113	676.25
1475.137763	677.0
1475.659358	680.0
1476.180899	676.75
1476.702384	677.75
1477.223815	679.0
1477.74519	676.75
1478.266511	676.25
1478.787777	677.0
1479.308988	677.5
1479.830144	679.25
1480.351245	680.0
1480.872291	675.0
1481.393282	675.75
1481.914218	677.5
1482.4351	677.25
1482.955926	676.0
1483.476698	678.25
1483.997415	679.25
1484.518077	678.25
1485.038684	683.25
1485.559236	680.25
1486.079734	677.25
1486.600176	681.5
1487.120564	680.0
1487.640896	677.5
1488.161174	675.0
1488.681398	679.0
1489.201566	676.75
1489.721679	674.5
1490.241738	679.25
1490.761742	678.5
1491.281691	674.25
1491.801585	676.75
1492.321424	677.25
1492.841208	676.5
1493.360938	678.5
1493.880613	679.0
1494.400233	675.25
1494.919798	677.5
1495.439309	672.5
1495.958764	677.5
1496.478165	678.0
1496.997511	677.75
1497.516803	681.75
1498.036039	679.5
1498.555221	680.5
1499.074348	675.75
1499.59342	684.75
1500.112438	676.5
1500.6314	678.0
1501.150308	680.5
1501.669161	675.5
1502.18796	675.0
1502.706704	679.0
1503.225393	674.0
1503.744027	674.75
1504.262606	676.75
1504.781131	676.25
1505.299601	679.0
1505.818016	675.25
1506.336377	676.25
1506.854683	676.75
1507.372934	676.75
1507.89113	676.25
1508.409272	677.5
1508.927359	678.0
1509.445391	679.5
1509.963369	675.0
1510.481292	687.75
1510.99916	680.0
1511.516974	675.0
1512.034733	673.75
1512.552437	679.75
1513.070086	678.0
1513.587681	675.25
1514.105221	678.25
1514.622707	677.5
1515.140138	679.75
1515.657514	679.75
1516.174836	677.5
1516.692102	674.25
1517.209315	674.25
1517.726472	677.0
1518.243575	678.25
1518.760624	674.25
1519.277617	679.25
1519.794557	679.5
1520.311441	677.75
1520.828271	679.0
1521.345046	679.25
1521.861767	678.75
1522.378433	679.25
1522.895044	680.0
1523.411601	677.25
1523.928103	676.25
1524.444551	677.25
1524.960944	677.0
1525.477282	682.75
1525.993566	682.5
1526.509795	682.25
1527.02597	679.5
1527.54209	676.0
1528.058156	680.5
1528.574167	676.25
1529.090123	678.0
1529.606025	674.75
1530.121872	675.25
1530.637665	674.75
1531.153403	677.5
1531.669087	680.5
1532.184716	677.25
1532.700291	677.0
1533.215811	675.75
1533.731276	678.75
1534.246687	676.5
1534.762044	677.5
1535.277346	679.75
1535.792593	674.25
1536.307786	680.25
1536.822924	677.75
1537.338008	674.5
1537.853038	672.75
1538.368013	675.5
1538.882933	673.25
1539.397799	678.25
1539.91261	674.75
1540.427367	678.25
1540.94207	674.25
1541.456718	675.0
1541.971311	674.5
1542.48585	675.75
1543.000335	676.75
1543.514765	678.5
1544.029141	673.75
1544.543462	677.0
1545.057729	677.25
1545.571941	680.0
1546.086099	679.5
1546.600202	674.25
1547.114251	677.5
1547.628246	677.25
1548.142186	676.5
1548.656072	677.25
1549.169903	675.75
1549.68368	681.25
1550.197402	675.75
1550.71107	676.25
1551.224684	678.0
1551.738243	676.0
1552.251748	676.5
1552.765198	676.25
1553.278594	677.25
1553.791936	674.75
1554.305223	676.75
1554.818456	677.75
1555.331634	673.75
1555.844758	676.25
1556.357828	678.75
1556.870843	678.25
1557.383804	680.75
1557.896711	675.75
1558.409563	679.5
1558.922361	676.5
1559.435105	676.0
1559.947794	677.25
1560.460429	678.5
1560.973009	675.75
1561.485535	678.25
1561.998007	676.5
1562.510425	680.0
1563.022788	677.75
1563.535097	675.25
1564.047351	677.0
1564.559551	678.25
1565.071697	680.75
1565.583789	678.5
1566.095826	675.0
1566.607809	674.5
1567.119738	677.0
1567.631612	678.0
1568.143432	677.5
1568.655198	673.75
1569.16691	678.0
1569.678567	679.0
1570.19017	677.5
1570.701719	677.5
1571.213213	675.5
1571.724653	678.5
1572.236039	678.25
1572.747371	674.25
1573.258648	678.0
1573.769871	675.0
1574.28104	679.5
1574.792155	676.75
1575.303215	676.5
1575.814221	675.0
1576.325173	675.0
1576.836071	676.75
1577.346914	679.0
1577.857703	679.0
1578.368438	676.75
1578.879119	679.0
1579.389746	678.0
1579.900318	675.0
1580.410836	674.75
1580.9213	676.5
1581.43171	678.0
1581.942065	677.5
1582.452366	676.25
1582.962614	678.0
1583.472807	676.75
1583.982945	682.0
1584.49303	678.25
1585.00306	678.25
1585.513037	673.25
1586.022959	678.0
1586.532827	676.75
1587.04264	676.0
1587.5524	672.75
1588.062105	678.75
1588.571757	674.75
1589.081354	674.25
1589.590897	676.0
1590.100386	677.0
1590.60982	678.25
1591.119201	676.25
1591.628527	676.25
1592.1378	676.75
