-1.199477246E+03	 6.710000000E+02
-1.193820308E+03	 6.700000000E+02
-1.188166625E+03	 6.720000000E+02
-1.182516195E+03	 6.680000000E+02
-1.176869015E+03	 6.640000000E+02
-1.171225082E+03	 6.660000000E+02
-1.165584394E+03	 6.610000000E+02
-1.159946947E+03	 6.680000000E+02
-1.154312740E+03	 6.650000000E+02
-1.148681769E+03	 6.740000000E+02
-1.143054031E+03	 6.640000000E+02
-1.137429524E+03	 6.590000000E+02
-1.131808245E+03	 6.670000000E+02
-1.126190192E+03	 6.570000000E+02
-1.120575360E+03	 6.680000000E+02
-1.114963749E+03	 6.660000000E+02
-1.109355355E+03	 6.600000000E+02
-1.103750175E+03	 6.610000000E+02
-1.098148206E+03	 6.680000000E+02
-1.092549446E+03	 6.650000000E+02
-1.086953893E+03	 6.620000000E+02
-1.081361543E+03	 6.590000000E+02
-1.075772393E+03	 6.630000000E+02
-1.070186442E+03	 6.610000000E+02
-1.064603685E+03	 6.690000000E+02
-1.059024122E+03	 6.620000000E+02
-1.053447748E+03	 6.620000000E+02
-1.047874562E+03	 6.610000000E+02
-1.042304560E+03	 6.600000000E+02
-1.036737739E+03	 6.610000000E+02
-1.031174098E+03	 6.610000000E+02
-1.025613633E+03	 6.600000000E+02
-1.020056343E+03	 6.590000000E+02
-1.014502223E+03	 6.600000000E+02
-1.008951271E+03	 6.570000000E+02
-1.003403486E+03	 6.610000000E+02
-9.978588630E+02	 6.650000000E+02
-9.923174008E+02	 6.620000000E+02
-9.867790964E+02	 6.600000000E+02
-9.812439472E+02	 6.650000000E+02
-9.757119503E+02	 6.680000000E+02
-9.701831033E+02	 6.590000000E+02
-9.646574035E+02	 6.610000000E+02
-9.591348482E+02	 6.590000000E+02
-9.536154348E+02	 6.620000000E+02
-9.480991606E+02	 6.580000000E+02
-9.425860231E+02	 6.650000000E+02
-9.370760196E+02	 6.630000000E+02
-9.315691475E+02	 6.620000000E+02
-9.260654041E+02	 6.730000000E+02
-9.205647868E+02	 6.590000000E+02
-9.150672931E+02	 6.620000000E+02
-9.095729203E+02	 6.670000000E+02
-9.040816659E+02	 6.580000000E+02
-8.985935271E+02	 6.600000000E+02
-8.931085014E+02	 6.640000000E+02
-8.876265863E+02	 6.590000000E+02
-8.821477790E+02	 6.550000000E+02
-8.766720771E+02	 6.610000000E+02
-8.711994779E+02	 6.560000000E+02
-8.657299788E+02	 6.610000000E+02
-8.602635773E+02	 6.560000000E+02
-8.548002708E+02	 6.600000000E+02
-8.493400567E+02	 6.620000000E+02
-8.438829325E+02	 6.610000000E+02
-8.384288955E+02	 6.630000000E+02
-8.329779432E+02	 6.660000000E+02
-8.275300731E+02	 6.560000000E+02
-8.220852825E+02	 6.620000000E+02
-8.166435690E+02	 6.610000000E+02
-8.112049299E+02	 6.630000000E+02
-8.057693628E+02	 6.610000000E+02
-8.003368650E+02	 6.610000000E+02
-7.949074340E+02	 6.650000000E+02
-7.894810674E+02	 6.590000000E+02
-7.840577624E+02	 6.570000000E+02
-7.786375167E+02	 6.590000000E+02
-7.732203277E+02	 6.600000000E+02
-7.678061928E+02	 6.600000000E+02
-7.623951095E+02	 6.630000000E+02
-7.569870753E+02	 6.590000000E+02
-7.515820877E+02	 6.640000000E+02
-7.461801442E+02	 6.620000000E+02
-7.407812421E+02	 6.600000000E+02
-7.353853792E+02	 6.620000000E+02
-7.299925527E+02	 6.600000000E+02
-7.246027603E+02	 6.560000000E+02
-7.192159994E+02	 6.600000000E+02
-7.138322675E+02	 6.610000000E+02
-7.084515621E+02	 6.630000000E+02
-7.030738807E+02	 6.590000000E+02
-6.976992209E+02	 6.610000000E+02
-6.923275801E+02	 6.610000000E+02
-6.869589558E+02	 6.610000000E+02
-6.815933456E+02	 6.660000000E+02
-6.762307471E+02	 6.590000000E+02
-6.708711576E+02	 6.590000000E+02
-6.655145748E+02	 6.700000000E+02
-6.601609961E+02	 6.600000000E+02
-6.548104192E+02	 6.600000000E+02
-6.494628415E+02	 6.620000000E+02
-6.441182605E+02	 6.640000000E+02
-6.387766739E+02	 6.610000000E+02
-6.334380791E+02	 6.610000000E+02
-6.281024737E+02	 6.590000000E+02
-6.227698553E+02	 6.630000000E+02
-6.174402213E+02	 6.580000000E+02
-6.121135695E+02	 6.570000000E+02
-6.067898972E+02	 6.590000000E+02
-6.014692021E+02	 6.630000000E+02
-5.961514817E+02	 6.600000000E+02
-5.908367336E+02	 6.610000000E+02
-5.855249553E+02	 6.580000000E+02
-5.802161445E+02	 6.570000000E+02
-5.749102987E+02	 6.580000000E+02
-5.696074155E+02	 6.580000000E+02
-5.643074924E+02	 6.640000000E+02
-5.590105271E+02	 6.630000000E+02
-5.537165171E+02	 6.610000000E+02
-5.484254600E+02	 6.590000000E+02
-5.431373533E+02	 6.640000000E+02
-5.378521948E+02	 6.520000000E+02
-5.325699819E+02	 6.570000000E+02
-5.272907124E+02	 6.590000000E+02
-5.220143836E+02	 6.600000000E+02
-5.167409934E+02	 6.610000000E+02
-5.114705392E+02	 6.590000000E+02
-5.062030188E+02	 6.640000000E+02
-5.009384296E+02	 6.620000000E+02
-4.956767693E+02	 6.580000000E+02
-4.904180356E+02	 6.630000000E+02
-4.851622260E+02	 6.640000000E+02
-4.799093381E+02	 6.590000000E+02
-4.746593696E+02	 6.620000000E+02
-4.694123182E+02	 6.590000000E+02
-4.641681813E+02	 6.630000000E+02
-4.589269567E+02	 6.640000000E+02
-4.536886421E+02	 6.570000000E+02
-4.484532349E+02	 6.600000000E+02
-4.432207329E+02	 6.580000000E+02
-4.379911337E+02	 6.580000000E+02
-4.327644350E+02	 6.620000000E+02
-4.275406344E+02	 6.600000000E+02
-4.223197295E+02	 6.580000000E+02
-4.171017180E+02	 6.650000000E+02
-4.118865975E+02	 6.590000000E+02
-4.066743658E+02	 6.600000000E+02
-4.014650204E+02	 6.590000000E+02
-3.962585590E+02	 6.600000000E+02
-3.910549793E+02	 6.610000000E+02
-3.858542789E+02	 6.580000000E+02
-3.806564555E+02	 6.580000000E+02
-3.754615068E+02	 6.610000000E+02
-3.702694305E+02	 6.600000000E+02
-3.650802242E+02	 6.570000000E+02
-3.598938856E+02	 6.550000000E+02
-3.547104123E+02	 6.580000000E+02
-3.495298022E+02	 6.660000000E+02
-3.443520527E+02	 6.600000000E+02
-3.391771617E+02	 6.570000000E+02
-3.340051269E+02	 6.620000000E+02
-3.288359458E+02	 6.590000000E+02
-3.236696162E+02	 6.610000000E+02
-3.185061359E+02	 6.590000000E+02
-3.133455024E+02	 6.610000000E+02
-3.081877135E+02	 6.570000000E+02
-3.030327670E+02	 6.610000000E+02
-2.978806604E+02	 6.580000000E+02
-2.927313915E+02	 6.560000000E+02
-2.875849581E+02	 6.610000000E+02
-2.824413578E+02	 6.580000000E+02
-2.773005883E+02	 6.580000000E+02
-2.721626474E+02	 6.610000000E+02
-2.670275328E+02	 6.580000000E+02
-2.618952422E+02	 6.590000000E+02
-2.567657734E+02	 6.590000000E+02
-2.516391239E+02	 6.590000000E+02
-2.465152917E+02	 6.590000000E+02
-2.413942744E+02	 6.590000000E+02
-2.362760697E+02	 6.590000000E+02
-2.311606754E+02	 6.620000000E+02
-2.260480892E+02	 6.580000000E+02
-2.209383088E+02	 6.590000000E+02
-2.158313321E+02	 6.610000000E+02
-2.107271566E+02	 6.580000000E+02
-2.056257803E+02	 6.620000000E+02
-2.005272008E+02	 6.560000000E+02
-1.954314159E+02	 6.590000000E+02
-1.903384233E+02	 6.670000000E+02
-1.852482208E+02	 6.620000000E+02
-1.801608062E+02	 6.590000000E+02
-1.750761772E+02	 6.610000000E+02
-1.699943315E+02	 6.650000000E+02
-1.649152670E+02	 6.610000000E+02
-1.598389813E+02	 6.630000000E+02
-1.547654723E+02	 6.600000000E+02
-1.496947378E+02	 6.610000000E+02
-1.446267754E+02	 6.600000000E+02
-1.395615831E+02	 6.600000000E+02
-1.344991585E+02	 6.620000000E+02
-1.294394994E+02	 6.640000000E+02
-1.243826036E+02	 6.590000000E+02
-1.193284690E+02	 6.580000000E+02
-1.142770932E+02	 6.590000000E+02
-1.092284741E+02	 6.600000000E+02
-1.041826095E+02	 6.590000000E+02
-9.913949706E+01	 6.650000000E+02
-9.409913471E+01	 6.570000000E+02
-8.906152019E+01	 6.660000000E+02
-8.402665132E+01	 6.600000000E+02
-7.899452587E+01	 6.610000000E+02
-7.396514167E+01	 6.630000000E+02
-6.893849651E+01	 6.580000000E+02
-6.391458819E+01	 6.590000000E+02
-5.889341453E+01	 6.600000000E+02
-5.387497334E+01	 6.630000000E+02
-4.885926242E+01	 6.600000000E+02
-4.384627960E+01	 6.660000000E+02
-3.883602269E+01	 6.590000000E+02
-3.382848950E+01	 6.630000000E+02
-2.882367786E+01	 6.570000000E+02
-2.382158558E+01	 6.570000000E+02
-1.882221051E+01	 6.640000000E+02
-1.382555045E+01	 6.640000000E+02
-8.831603238E+00	 7.300000000E+02
-3.840366707E+00	 1.440000000E+03
 1.148161312E+00	 1.428000000E+03
 6.133982984E+00	 7.800000000E+02
 1.111710047E+01	 6.670000000E+02
 1.609751594E+01	 6.600000000E+02
 2.107523155E+01	 6.580000000E+02
 2.605024945E+01	 6.610000000E+02
 3.102257181E+01	 6.600000000E+02
 3.599220076E+01	 6.630000000E+02
 4.095913848E+01	 6.630000000E+02
 4.592338710E+01	 6.630000000E+02
 5.088494877E+01	 6.670000000E+02
 5.584382564E+01	 6.900000000E+02
 6.080001985E+01	 9.070000000E+02
 6.575353355E+01	 1.564000000E+03
 7.070436887E+01	 1.955000000E+03
 7.565252795E+01	 1.925000000E+03
 8.059801293E+01	 1.849000000E+03
 8.554082594E+01	 1.811000000E+03
 9.048096911E+01	 1.754000000E+03
 9.541844457E+01	 1.763000000E+03
 1.003532545E+02	 1.719000000E+03
 1.052854009E+02	 1.711000000E+03
 1.102148860E+02	 1.754000000E+03
 1.151417119E+02	 1.715000000E+03
 1.200658807E+02	 1.704000000E+03
 1.249873945E+02	 1.677000000E+03
 1.299062555E+02	 1.669000000E+03
 1.348224658E+02	 1.653000000E+03
 1.397360274E+02	 1.658000000E+03
 1.446469425E+02	 1.652000000E+03
 1.495552132E+02	 1.671000000E+03
 1.544608416E+02	 1.647000000E+03
 1.593638298E+02	 1.643000000E+03
 1.642641799E+02	 1.641000000E+03
 1.691618940E+02	 1.624000000E+03
 1.740569743E+02	 1.588000000E+03
 1.789494227E+02	 1.558000000E+03
 1.838392415E+02	 1.576000000E+03
 1.887264326E+02	 1.583000000E+03
 1.936109983E+02	 1.584000000E+03
 1.984929405E+02	 1.571000000E+03
 2.033722614E+02	 1.596000000E+03
 2.082489630E+02	 1.575000000E+03
 2.131230475E+02	 1.672000000E+03
 2.179945169E+02	 1.721000000E+03
 2.228633733E+02	 1.690000000E+03
 2.277296187E+02	 1.653000000E+03
 2.325932554E+02	 1.659000000E+03
 2.374542852E+02	 1.634000000E+03
 2.423127104E+02	 1.534000000E+03
 2.471685330E+02	 1.514000000E+03
 2.520217550E+02	 1.515000000E+03
 2.568723785E+02	 1.508000000E+03
 2.617204056E+02	 1.499000000E+03
 2.665658383E+02	 1.525000000E+03
 2.714086788E+02	 1.509000000E+03
 2.762489290E+02	 1.517000000E+03
 2.810865910E+02	 1.523000000E+03
 2.859216670E+02	 1.531000000E+03
 2.907541588E+02	 1.671000000E+03
 2.955840687E+02	 1.868000000E+03
 3.004113986E+02	 2.026000000E+03
 3.052361506E+02	 1.874000000E+03
 3.100583267E+02	 1.732000000E+03
 3.148779291E+02	 1.670000000E+03
 3.196949596E+02	 1.645000000E+03
 3.245094205E+02	 1.661000000E+03
 3.293213137E+02	 1.611000000E+03
 3.341306412E+02	 1.630000000E+03
 3.389374051E+02	 1.669000000E+03
 3.437416074E+02	 1.587000000E+03
 3.485432503E+02	 1.594000000E+03
 3.533423356E+02	 1.594000000E+03
 3.581388654E+02	 1.554000000E+03
 3.629328418E+02	 1.585000000E+03
 3.677242668E+02	 1.601000000E+03
 3.725131423E+02	 1.558000000E+03
 3.772994705E+02	 1.561000000E+03
 3.820832534E+02	 1.588000000E+03
 3.868644929E+02	 1.601000000E+03
 3.916431911E+02	 1.567000000E+03
 3.964193501E+02	 1.547000000E+03
 4.011929717E+02	 1.567000000E+03
 4.059640581E+02	 1.655000000E+03
 4.107326112E+02	 1.699000000E+03
 4.154986331E+02	 1.716000000E+03
 4.202621258E+02	 1.665000000E+03
 4.250230912E+02	 1.629000000E+03
 4.297815314E+02	 1.708000000E+03
 4.345374483E+02	 1.753000000E+03
 4.392908441E+02	 1.694000000E+03
 4.440417206E+02	 1.583000000E+03
 4.487900799E+02	 1.605000000E+03
 4.535359239E+02	 1.532000000E+03
 4.582792547E+02	 1.568000000E+03
 4.630200743E+02	 1.551000000E+03
 4.677583846E+02	 1.585000000E+03
 4.724941877E+02	 1.539000000E+03
 4.772274854E+02	 1.610000000E+03
 4.819582799E+02	 1.691000000E+03
 4.866865731E+02	 1.556000000E+03
 4.914123669E+02	 1.551000000E+03
 4.961356634E+02	 1.561000000E+03
 5.008564646E+02	 1.529000000E+03
 5.055747723E+02	 1.533000000E+03
 5.102905886E+02	 1.531000000E+03
 5.150039155E+02	 1.516000000E+03
 5.197147549E+02	 1.527000000E+03
 5.244231088E+02	 1.542000000E+03
 5.291289792E+02	 1.545000000E+03
 5.338323680E+02	 1.535000000E+03
 5.385332772E+02	 1.616000000E+03
 5.432317088E+02	 1.592000000E+03
 5.479276647E+02	 1.535000000E+03
 5.526211469E+02	 1.523000000E+03
 5.573121574E+02	 1.487000000E+03
 5.620006980E+02	 1.499000000E+03
 5.666867708E+02	 1.517000000E+03
 5.713703777E+02	 1.566000000E+03
 5.760515207E+02	 1.666000000E+03
 5.807302017E+02	 1.765000000E+03
 5.854064227E+02	 1.756000000E+03
 5.900801856E+02	 1.742000000E+03
 5.947514923E+02	 1.811000000E+03
 5.994203448E+02	 1.966000000E+03
 6.040867451E+02	 1.995000000E+03
 6.087506951E+02	 1.871000000E+03
 6.134121966E+02	 1.661000000E+03
 6.180712518E+02	 1.551000000E+03
 6.227278624E+02	 1.491000000E+03
 6.273820305E+02	 1.463000000E+03
 6.320337579E+02	 1.382000000E+03
 6.366830466E+02	 1.391000000E+03
 6.413298986E+02	 1.381000000E+03
 6.459743157E+02	 1.377000000E+03
 6.506162998E+02	 1.377000000E+03
 6.552558530E+02	 1.342000000E+03
 6.598929771E+02	 1.374000000E+03
 6.645276740E+02	 1.387000000E+03
 6.691599457E+02	 1.371000000E+03
 6.737897940E+02	 1.378000000E+03
 6.784172210E+02	 1.360000000E+03
 6.830422285E+02	 1.359000000E+03
 6.876648184E+02	 1.382000000E+03
 6.922849926E+02	 1.367000000E+03
 6.969027531E+02	 1.373000000E+03
 7.015181017E+02	 1.362000000E+03
 7.061310404E+02	 1.377000000E+03
 7.107415711E+02	 1.354000000E+03
 7.153496956E+02	 1.356000000E+03
 7.199554159E+02	 1.393000000E+03
 7.245587338E+02	 1.397000000E+03
 7.291596513E+02	 1.351000000E+03
 7.337581703E+02	 1.361000000E+03
 7.383542927E+02	 1.391000000E+03
 7.429480203E+02	 1.383000000E+03
 7.475393550E+02	 1.376000000E+03
 7.521282988E+02	 1.424000000E+03
 7.567148535E+02	 1.413000000E+03
 7.612990210E+02	 1.439000000E+03
 7.658808033E+02	 1.484000000E+03
 7.704602021E+02	 1.489000000E+03
 7.750372193E+02	 1.491000000E+03
 7.796118570E+02	 1.515000000E+03
 7.841841168E+02	 1.542000000E+03
 7.887540007E+02	 1.535000000E+03
 7.933215107E+02	 1.650000000E+03
 7.978866484E+02	 1.735000000E+03
 8.024494159E+02	 1.833000000E+03
 8.070098150E+02	 2.192000000E+03
 8.115678476E+02	 2.967000000E+03
 8.161235155E+02	 4.631000000E+03
 8.206768206E+02	 6.691000000E+03
 8.252277648E+02	 6.120000000E+03
 8.297763499E+02	 4.334000000E+03
 8.343225778E+02	 3.542000000E+03
 8.388664504E+02	 3.619000000E+03
 8.434079695E+02	 4.715000000E+03
 8.479471369E+02	 7.303000000E+03
 8.524839546E+02	 1.026800000E+04
 8.570184244E+02	 9.374000000E+03
 8.615505480E+02	 6.116000000E+03
 8.660803275E+02	 3.849000000E+03
 8.706077646E+02	 2.889000000E+03
 8.751328612E+02	 2.680000000E+03
 8.796556192E+02	 2.672000000E+03
 8.841760403E+02	 2.383000000E+03
 8.886941264E+02	 1.930000000E+03
 8.932098794E+02	 1.751000000E+03
 8.977233010E+02	 1.599000000E+03
 9.022343933E+02	 1.584000000E+03
 9.067431578E+02	 1.574000000E+03
 9.112495967E+02	 1.591000000E+03
 9.157537115E+02	 1.603000000E+03
 9.202555042E+02	 1.605000000E+03
 9.247549767E+02	 1.560000000E+03
 9.292521306E+02	 1.543000000E+03
 9.337469680E+02	 1.607000000E+03
 9.382394905E+02	 1.659000000E+03
 9.427297000E+02	 1.738000000E+03
 9.472175984E+02	 1.891000000E+03
 9.517031874E+02	 2.279000000E+03
 9.561864690E+02	 2.553000000E+03
 9.606674448E+02	 2.553000000E+03
 9.651461167E+02	 2.312000000E+03
 9.696224866E+02	 1.995000000E+03
 9.740965562E+02	 1.754000000E+03
 9.785683274E+02	 1.622000000E+03
 9.830378019E+02	 1.532000000E+03
 9.875049816E+02	 1.487000000E+03
 9.919698683E+02	 1.504000000E+03
 9.964324638E+02	 1.482000000E+03
 1.000892770E+03	 1.434000000E+03
 1.005350788E+03	 1.421000000E+03
 1.009806521E+03	 1.367000000E+03
 1.014259970E+03	 1.392000000E+03
 1.018711136E+03	 1.387000000E+03
 1.023160022E+03	 1.369000000E+03
 1.027606630E+03	 1.390000000E+03
 1.032050960E+03	 1.354000000E+03
 1.036493016E+03	 1.370000000E+03
 1.040932799E+03	 1.404000000E+03
 1.045370309E+03	 1.365000000E+03
 1.049805551E+03	 1.333000000E+03
 1.054238524E+03	 1.302000000E+03
 1.058669232E+03	 1.294000000E+03
 1.063097675E+03	 1.275000000E+03
 1.067523855E+03	 1.249000000E+03
 1.071947775E+03	 1.257000000E+03
 1.076369436E+03	 1.251000000E+03
 1.080788839E+03	 1.241000000E+03
 1.085205988E+03	 1.252000000E+03
 1.089620882E+03	 1.190000000E+03
 1.094033525E+03	 1.210000000E+03
 1.098443918E+03	 1.214000000E+03
 1.102852062E+03	 1.210000000E+03
 1.107257960E+03	 1.179000000E+03
 1.111661613E+03	 1.209000000E+03
 1.116063023E+03	 1.186000000E+03
 1.120462191E+03	 1.194000000E+03
 1.124859120E+03	 1.160000000E+03
 1.129253812E+03	 1.176000000E+03
 1.133646267E+03	 1.152000000E+03
 1.138036489E+03	 1.165000000E+03
 1.142424477E+03	 1.139000000E+03
 1.146810235E+03	 1.175000000E+03
 1.151193764E+03	 1.152000000E+03
 1.155575066E+03	 1.127000000E+03
 1.159954143E+03	 1.108000000E+03
 1.164330995E+03	 1.141000000E+03
 1.168705626E+03	 1.141000000E+03
 1.173078037E+03	 1.131000000E+03
 1.177448229E+03	 1.121000000E+03
 1.181816204E+03	 1.106000000E+03
 1.186181964E+03	 1.095000000E+03
 1.190545511E+03	 1.119000000E+03
 1.194906847E+03	 1.080000000E+03
 1.199265972E+03	 1.099000000E+03
 1.203622890E+03	 1.100000000E+03
 1.207977601E+03	 1.092000000E+03
 1.212330108E+03	 1.081000000E+03
 1.216680412E+03	 1.097000000E+03
 1.221028515E+03	 1.092000000E+03
 1.225374418E+03	 1.105000000E+03
 1.229718124E+03	 1.091000000E+03
 1.234059633E+03	 1.087000000E+03
 1.238398949E+03	 1.085000000E+03
 1.242736072E+03	 1.078000000E+03
 1.247071004E+03	 1.077000000E+03
 1.251403747E+03	 1.068000000E+03
 1.255734303E+03	 1.091000000E+03
 1.260062673E+03	 1.076000000E+03
 1.264388859E+03	 1.103000000E+03
 1.268712863E+03	 1.064000000E+03
 1.273034686E+03	 1.077000000E+03
 1.277354331E+03	 1.080000000E+03
 1.281671798E+03	 1.100000000E+03
 1.285987090E+03	 1.182000000E+03
 1.290300209E+03	 1.082000000E+03
 1.294611155E+03	 1.068000000E+03
 1.298919931E+03	 1.060000000E+03
 1.303226539E+03	 1.071000000E+03
 1.307530979E+03	 1.082000000E+03
 1.311833255E+03	 1.064000000E+03
 1.316133366E+03	 1.071000000E+03
 1.320431316E+03	 1.056000000E+03
 1.324727106E+03	 1.047000000E+03
 1.329020738E+03	 1.081000000E+03
 1.333312213E+03	 1.062000000E+03
 1.337601532E+03	 1.055000000E+03
 1.341888699E+03	 1.045000000E+03
 1.346173713E+03	 1.067000000E+03
 1.350456578E+03	 1.067000000E+03
 1.354737294E+03	 1.060000000E+03
 1.359015864E+03	 1.047000000E+03
 1.363292289E+03	 1.054000000E+03
 1.367566570E+03	 1.061000000E+03
 1.371838710E+03	 1.053000000E+03
 1.376108710E+03	 1.069000000E+03
 1.380376571E+03	 1.049000000E+03
 1.384642296E+03	 1.106000000E+03
 1.388905886E+03	 1.215000000E+03
 1.393167343E+03	 1.095000000E+03
 1.397426668E+03	 1.042000000E+03
 1.401683863E+03	 1.057000000E+03
 1.405938930E+03	 1.060000000E+03
 1.410191870E+03	 1.080000000E+03
 1.414442686E+03	 1.096000000E+03
 1.418691378E+03	 1.057000000E+03
 1.422937948E+03	 1.062000000E+03
 1.427182398E+03	 1.065000000E+03
 1.431424730E+03	 1.072000000E+03
 1.435664946E+03	 1.057000000E+03
 1.439903046E+03	 1.054000000E+03
 1.444139033E+03	 1.054000000E+03
 1.448372908E+03	 1.058000000E+03
 1.452604673E+03	 1.060000000E+03
 1.456834329E+03	 1.063000000E+03
 1.461061879E+03	 1.079000000E+03
 1.465287324E+03	 1.077000000E+03
 1.469510665E+03	 1.067000000E+03
 1.473731904E+03	 1.048000000E+03
 1.477951043E+03	 1.051000000E+03
 1.482168083E+03	 1.050000000E+03
 1.486383026E+03	 1.056000000E+03
 1.490595874E+03	 1.050000000E+03
 1.494806628E+03	 1.049000000E+03
 1.499015290E+03	 1.038000000E+03
 1.503221862E+03	 1.041000000E+03
 1.507426345E+03	 1.060000000E+03
 1.511628740E+03	 1.059000000E+03
 1.515829050E+03	 1.051000000E+03
 1.520027276E+03	 1.063000000E+03
 1.524223419E+03	 1.057000000E+03
 1.528417482E+03	 1.059000000E+03
 1.532609465E+03	 1.045000000E+03
 1.536799371E+03	 1.046000000E+03
 1.540987202E+03	 1.058000000E+03
 1.545172957E+03	 1.050000000E+03
 1.549356640E+03	 1.050000000E+03
 1.553538252E+03	 1.073000000E+03
 1.557717795E+03	 1.055000000E+03
 1.561895270E+03	 1.060000000E+03
 1.566070678E+03	 1.062000000E+03
 1.570244022E+03	 1.040000000E+03
 1.574415302E+03	 1.079000000E+03
 1.578584522E+03	 1.064000000E+03
 1.582751681E+03	 1.038000000E+03
 1.586916782E+03	 1.045000000E+03
 1.591079826E+03	 1.033000000E+03
 1.595240815E+03	 1.053000000E+03
 1.599399751E+03	 1.075000000E+03
 1.603556635E+03	 1.050000000E+03
 1.607711468E+03	 1.046000000E+03
 1.611864253E+03	 1.035000000E+03
 1.616014991E+03	 1.035000000E+03
 1.620163683E+03	 1.044000000E+03
 1.624310331E+03	 1.038000000E+03
 1.628454936E+03	 1.040000000E+03
 1.632597501E+03	 1.063000000E+03
 1.636738026E+03	 1.026000000E+03
 1.640876514E+03	 1.058000000E+03
 1.645012966E+03	 1.053000000E+03
 1.649147383E+03	 1.041000000E+03
 1.653279767E+03	 1.043000000E+03
 1.657410120E+03	 1.024000000E+03
 1.661538442E+03	 1.033000000E+03
 1.665664737E+03	 1.027000000E+03
 1.669789005E+03	 1.039000000E+03
 1.673911248E+03	 1.043000000E+03
 1.678031467E+03	 1.032000000E+03
 1.682149664E+03	 1.052000000E+03
 1.686265841E+03	 1.013000000E+03
 1.690379998E+03	 1.017000000E+03
 1.694492139E+03	 1.054000000E+03
 1.698602263E+03	 1.017000000E+03
 1.702710373E+03	 1.047000000E+03
 1.706816471E+03	 1.029000000E+03
 1.710920557E+03	 1.023000000E+03
 1.715022634E+03	 1.050000000E+03
 1.719122703E+03	 1.058000000E+03
 1.723220765E+03	 1.045000000E+03
 1.727316822E+03	 1.054000000E+03
 1.731410876E+03	 1.057000000E+03
 1.735502928E+03	 1.039000000E+03
 1.739592979E+03	 1.025000000E+03
 1.743681032E+03	 1.052000000E+03
 1.747767087E+03	 1.041000000E+03
 1.751851147E+03	 1.021000000E+03
 1.755933212E+03	 1.021000000E+03
 1.760013285E+03	 1.035000000E+03
 1.764091366E+03	 1.030000000E+03
 1.768167458E+03	 1.024000000E+03
 1.772241562E+03	 1.022000000E+03
 1.776313679E+03	 1.025000000E+03
 1.780383811E+03	 1.043000000E+03
 1.784451959E+03	 1.015000000E+03
 1.788518125E+03	 9.990000000E+02
 1.792582311E+03	 1.028000000E+03
 1.796644517E+03	 1.013000000E+03
 1.800704747E+03	 1.032000000E+03
 1.804763000E+03	 9.990000000E+02
 1.808819278E+03	 1.019000000E+03
 1.812873584E+03	 1.021000000E+03
 1.816925918E+03	 1.015000000E+03
 1.820976282E+03	 1.036000000E+03
 1.825024678E+03	 1.030000000E+03
 1.829071107E+03	 1.039000000E+03
 1.833115570E+03	 1.030000000E+03
 1.837158069E+03	 1.016000000E+03
 1.841198606E+03	 1.036000000E+03
 1.845237182E+03	 1.002000000E+03
 1.849273798E+03	 1.012000000E+03
 1.853308456E+03	 1.020000000E+03
 1.857341158E+03	 1.017000000E+03
 1.861371905E+03	 1.016000000E+03
 1.865400698E+03	 1.014000000E+03
 1.869427539E+03	 1.011000000E+03
 1.873452430E+03	 1.007000000E+03
 1.877475371E+03	 9.990000000E+02
 1.881496365E+03	 1.039000000E+03
 1.885515413E+03	 1.014000000E+03
 1.889532516E+03	 1.027000000E+03
 1.893547675E+03	 1.016000000E+03
 1.897560893E+03	 9.850000000E+02
 1.901572171E+03	 1.005000000E+03
 1.905581510E+03	 1.010000000E+03
 1.909588912E+03	 1.010000000E+03
 1.913594378E+03	 1.015000000E+03
 1.917597910E+03	 1.010000000E+03
 1.921599508E+03	 1.012000000E+03
 1.925599176E+03	 1.017000000E+03
 1.929596913E+03	 1.011000000E+03
 1.933592721E+03	 1.035000000E+03
 1.937586603E+03	 1.031000000E+03
 1.941578559E+03	 1.018000000E+03
 1.945568591E+03	 1.041000000E+03
 1.949556700E+03	 1.011000000E+03
 1.953542888E+03	 1.015000000E+03
 1.957527156E+03	 1.022000000E+03
 1.961509505E+03	 1.003000000E+03
 1.965489938E+03	 1.028000000E+03
 1.969468455E+03	 1.025000000E+03
 1.973445059E+03	 1.004000000E+03
 1.977419749E+03	 1.038000000E+03
 1.981392529E+03	 1.018000000E+03
 1.985363398E+03	 1.014000000E+03
 1.989332360E+03	 1.011000000E+03
 1.993299414E+03	 1.001000000E+03
 1.997264563E+03	 1.024000000E+03
 2.001227808E+03	 1.013000000E+03
 2.005189151E+03	 1.012000000E+03
 2.009148592E+03	 1.004000000E+03
 2.013106134E+03	 1.006000000E+03
 2.017061777E+03	 1.028000000E+03
 2.021015524E+03	 1.020000000E+03
 2.024967375E+03	 1.015000000E+03
 2.028917331E+03	 1.002000000E+03
 2.032865396E+03	 1.013000000E+03
 2.036811569E+03	 1.031000000E+03
 2.040755852E+03	 1.023000000E+03
 2.044698247E+03	 9.920000000E+02
 2.048638755E+03	 1.012000000E+03
 2.052577377E+03	 9.940000000E+02
 2.056514116E+03	 1.039000000E+03
 2.060448971E+03	 9.830000000E+02
 2.064381945E+03	 1.001000000E+03
 2.068313039E+03	 1.005000000E+03
 2.072242255E+03	 1.017000000E+03
 2.076169593E+03	 1.011000000E+03
 2.080095056E+03	 1.030000000E+03
 2.084018644E+03	 1.016000000E+03
 2.087940359E+03	 9.860000000E+02
 2.091860203E+03	 9.970000000E+02
 2.095778177E+03	 1.009000000E+03
 2.099694281E+03	 1.023000000E+03
 2.103608519E+03	 1.014000000E+03
 2.107520890E+03	 9.990000000E+02
 2.111431396E+03	 1.005000000E+03
 2.115340039E+03	 9.800000000E+02
 2.119246821E+03	 1.023000000E+03
 2.123151742E+03	 1.006000000E+03
 2.127054803E+03	 9.950000000E+02
 2.130956007E+03	 1.012000000E+03
 2.134855354E+03	 9.820000000E+02
 2.138752847E+03	 9.940000000E+02
 2.142648486E+03	 9.790000000E+02
 2.146542272E+03	 9.990000000E+02
 2.150434207E+03	 9.840000000E+02
 2.154324293E+03	 1.004000000E+03
 2.158212531E+03	 1.020000000E+03
 2.162098922E+03	 9.930000000E+02
 2.165983467E+03	 9.920000000E+02
 2.169866168E+03	 1.005000000E+03
 2.173747026E+03	 1.015000000E+03
 2.177626043E+03	 9.860000000E+02
 2.181503220E+03	 9.750000000E+02
 2.185378558E+03	 9.990000000E+02
 2.189252059E+03	 9.880000000E+02
 2.193123723E+03	 9.930000000E+02
 2.196993553E+03	 1.006000000E+03
 2.200861550E+03	 9.930000000E+02
 2.204727714E+03	 9.970000000E+02
 2.208592048E+03	 9.920000000E+02
 2.212454552E+03	 9.710000000E+02
 2.216315229E+03	 9.660000000E+02
 2.220174078E+03	 9.860000000E+02
 2.224031103E+03	 1.005000000E+03
 2.227886303E+03	 9.910000000E+02
 2.231739681E+03	 9.880000000E+02
 2.235591237E+03	 1.028000000E+03
 2.239440973E+03	 9.820000000E+02
 2.243288890E+03	 1.004000000E+03
 2.247134990E+03	 9.920000000E+02
 2.250979274E+03	 1.020000000E+03
 2.254821744E+03	 9.740000000E+02
 2.258662399E+03	 9.860000000E+02
 2.262501243E+03	 9.960000000E+02
 2.266338275E+03	 1.000000000E+03
 2.270173499E+03	 9.770000000E+02
 2.274006913E+03	 9.800000000E+02
 2.277838521E+03	 9.860000000E+02
 2.281668324E+03	 9.820000000E+02
 2.285496322E+03	 9.790000000E+02
 2.289322517E+03	 9.730000000E+02
 2.293146910E+03	 9.820000000E+02
 2.296969503E+03	 9.970000000E+02
 2.300790297E+03	 9.710000000E+02
 2.304609293E+03	 9.850000000E+02
 2.308426492E+03	 9.950000000E+02
 2.312241897E+03	 9.780000000E+02
 2.316055507E+03	 9.920000000E+02
 2.319867324E+03	 9.920000000E+02
 2.323677350E+03	 9.870000000E+02
 2.327485586E+03	 9.750000000E+02
 2.331292034E+03	 9.930000000E+02
 2.335096693E+03	 9.930000000E+02
 2.338899567E+03	 9.660000000E+02
 2.342700655E+03	 9.690000000E+02
 2.346499960E+03	 1.014000000E+03
 2.350297482E+03	 9.970000000E+02
 2.354093223E+03	 9.850000000E+02
 2.357887184E+03	 9.800000000E+02
 2.361679366E+03	 9.910000000E+02
 2.365469771E+03	 1.010000000E+03
 2.369258400E+03	 1.013000000E+03
 2.373045254E+03	 1.010000000E+03
 2.376830334E+03	 1.000000000E+03
 2.380613642E+03	 9.890000000E+02
 2.384395179E+03	 9.960000000E+02
 2.388174946E+03	 9.970000000E+02
 2.391952945E+03	 1.006000000E+03
 2.395729176E+03	 9.780000000E+02
 2.399503641E+03	 1.006000000E+03
 2.403276341E+03	 1.040000000E+03
 2.407047277E+03	 1.025000000E+03
 2.410816451E+03	 1.024000000E+03
 2.414583864E+03	 1.022000000E+03
 2.418349517E+03	 1.042000000E+03
 2.422113412E+03	 1.063000000E+03
 2.425875549E+03	 1.064000000E+03
 2.429635929E+03	 1.092000000E+03
 2.433394555E+03	 1.140000000E+03
 2.437151427E+03	 1.138000000E+03
 2.440906547E+03	 1.106000000E+03
 2.444659915E+03	 1.095000000E+03
 2.448411533E+03	 1.073000000E+03
 2.452161402E+03	 1.055000000E+03
 2.455909524E+03	 1.035000000E+03
 2.459655899E+03	 1.006000000E+03
 2.463400529E+03	 1.037000000E+03
 2.467143415E+03	 1.040000000E+03
 2.470884558E+03	 1.030000000E+03
 2.474623960E+03	 1.032000000E+03
 2.478361622E+03	 1.033000000E+03
 2.482097544E+03	 1.028000000E+03
 2.485831728E+03	 1.038000000E+03
 2.489564175E+03	 1.026000000E+03
 2.493294887E+03	 1.015000000E+03
 2.497023865E+03	 1.052000000E+03
 2.500751109E+03	 1.036000000E+03
 2.504476622E+03	 1.019000000E+03
 2.508200403E+03	 1.018000000E+03
 2.511922455E+03	 1.008000000E+03
 2.515642779E+03	 1.005000000E+03
 2.519361376E+03	 1.011000000E+03
 2.523078246E+03	 1.019000000E+03
 2.526793392E+03	 1.004000000E+03
 2.530506813E+03	 1.027000000E+03
 2.534218513E+03	 9.980000000E+02
 2.537928491E+03	 9.940000000E+02
 2.541636749E+03	 1.012000000E+03
 2.545343288E+03	 9.830000000E+02
 2.549048109E+03	 1.005000000E+03
 2.552751214E+03	 1.007000000E+03
 2.556452603E+03	 1.012000000E+03
 2.560152278E+03	 9.800000000E+02
 2.563850239E+03	 9.910000000E+02
 2.567546489E+03	 1.010000000E+03
 2.571241028E+03	 1.027000000E+03
 2.574933857E+03	 9.960000000E+02
 2.578624978E+03	 1.004000000E+03
 2.582314391E+03	 1.001000000E+03
 2.586002099E+03	 9.820000000E+02
 2.589688101E+03	 9.830000000E+02
 2.593372399E+03	 9.900000000E+02
 2.597054995E+03	 9.890000000E+02
 2.600735888E+03	 9.840000000E+02
 2.604415082E+03	 9.880000000E+02
 2.608092576E+03	 9.890000000E+02
 2.611768372E+03	 9.860000000E+02
 2.615442471E+03	 1.004000000E+03
 2.619114873E+03	 9.910000000E+02
 2.622785582E+03	 9.960000000E+02
 2.626454596E+03	 9.980000000E+02
 2.630121918E+03	 9.970000000E+02
 2.633787548E+03	 1.019000000E+03
 2.637451488E+03	 1.017000000E+03
 2.641113739E+03	 9.870000000E+02
 2.644774302E+03	 1.018000000E+03
 2.648433178E+03	 9.940000000E+02
 2.652090368E+03	 9.890000000E+02
 2.655745874E+03	 9.920000000E+02
 2.659399696E+03	 9.850000000E+02
 2.663051835E+03	 1.002000000E+03
 2.666702293E+03	 9.720000000E+02
 2.670351071E+03	 9.920000000E+02
 2.673998169E+03	 9.830000000E+02
 2.677643590E+03	 1.007000000E+03
 2.681287333E+03	 9.970000000E+02
 2.684929401E+03	 9.940000000E+02
 2.688569793E+03	 1.005000000E+03
 2.692208513E+03	 9.910000000E+02
 2.695845559E+03	 9.830000000E+02
 2.699480934E+03	 9.870000000E+02
 2.703114639E+03	 9.910000000E+02
 2.706746674E+03	 1.010000000E+03
 2.710377041E+03	 9.710000000E+02
 2.714005741E+03	 1.007000000E+03
 2.717632774E+03	 9.940000000E+02
 2.721258143E+03	 9.920000000E+02
 2.724881848E+03	 9.920000000E+02
 2.728503889E+03	 9.950000000E+02
 2.732124269E+03	 9.920000000E+02
 2.735742989E+03	 9.790000000E+02
 2.739360048E+03	 9.850000000E+02
 2.742975449E+03	 9.980000000E+02
 2.746589193E+03	 1.003000000E+03
 2.750201280E+03	 9.890000000E+02
 2.753811711E+03	 9.630000000E+02
 2.757420488E+03	 1.011000000E+03
 2.761027612E+03	 1.002000000E+03
 2.764633084E+03	 1.001000000E+03
 2.768236904E+03	 1.004000000E+03
 2.771839074E+03	 9.930000000E+02
 2.775439595E+03	 1.010000000E+03
 2.779038468E+03	 9.980000000E+02
 2.782635694E+03	 1.002000000E+03
 2.786231274E+03	 9.880000000E+02
 2.789825209E+03	 1.004000000E+03
 2.793417500E+03	 1.006000000E+03
 2.797008149E+03	 1.014000000E+03
 2.800597155E+03	 9.920000000E+02
 2.804184520E+03	 9.990000000E+02
 2.807770246E+03	 9.880000000E+02
 2.811354333E+03	 9.960000000E+02
 2.814936782E+03	 9.960000000E+02
 2.818517594E+03	 9.870000000E+02
 2.822096771E+03	 9.990000000E+02
 2.825674313E+03	 9.960000000E+02
 2.829250221E+03	 9.890000000E+02
 2.832824497E+03	 1.014000000E+03
 2.836397141E+03	 1.000000000E+03
 2.839968154E+03	 9.870000000E+02
 2.843537537E+03	 9.990000000E+02
 2.847105292E+03	 1.026000000E+03
 2.850671419E+03	 9.960000000E+02
 2.854235920E+03	 9.950000000E+02
 2.857798795E+03	 1.027000000E+03
 2.861360045E+03	 9.920000000E+02
 2.864919672E+03	 1.009000000E+03
 2.868477676E+03	 1.003000000E+03
 2.872034058E+03	 9.960000000E+02
 2.875588819E+03	 9.820000000E+02
 2.879141961E+03	 9.920000000E+02
 2.882693484E+03	 1.018000000E+03
 2.886243390E+03	 9.940000000E+02
 2.889791678E+03	 1.010000000E+03
 2.893338351E+03	 9.880000000E+02
 2.896883409E+03	 1.007000000E+03
 2.900426853E+03	 9.970000000E+02
 2.903968684E+03	 9.980000000E+02
 2.907508903E+03	 9.990000000E+02
 2.911047511E+03	 1.022000000E+03
 2.914584509E+03	 1.005000000E+03
 2.918119899E+03	 1.025000000E+03
 2.921653680E+03	 1.024000000E+03
 2.925185854E+03	 1.003000000E+03
 2.928716421E+03	 1.012000000E+03
 2.932245384E+03	 1.007000000E+03
 2.935772742E+03	 9.960000000E+02
 2.939298497E+03	 1.022000000E+03
 2.942822650E+03	 1.011000000E+03
 2.946345201E+03	 1.018000000E+03
 2.949866152E+03	 1.029000000E+03
 2.953385503E+03	 1.033000000E+03
 2.956903255E+03	 1.044000000E+03
 2.960419410E+03	 1.037000000E+03
 2.963933968E+03	 1.027000000E+03
 2.967446931E+03	 1.020000000E+03
 2.970958298E+03	 1.025000000E+03
 2.974468071E+03	 1.017000000E+03
 2.977976252E+03	 9.850000000E+02
 2.981482840E+03	 1.010000000E+03
 2.984987837E+03	 9.850000000E+02
 2.988491243E+03	 9.940000000E+02
 2.991993061E+03	 1.020000000E+03
 2.995493290E+03	 9.980000000E+02
 2.998991931E+03	 1.010000000E+03
 3.002488986E+03	 1.010000000E+03
 3.005984455E+03	 1.017000000E+03
 3.009478339E+03	 1.007000000E+03
 3.012970639E+03	 1.000000000E+03
 3.016461356E+03	 9.930000000E+02
 3.019950491E+03	 9.990000000E+02
 3.023438044E+03	 9.990000000E+02
 3.026924018E+03	 1.005000000E+03
 3.030408412E+03	 1.005000000E+03
 3.033891227E+03	 9.940000000E+02
 3.037372464E+03	 1.019000000E+03
 3.040852125E+03	 1.008000000E+03
 3.044330210E+03	 1.005000000E+03
 3.047806720E+03	 1.012000000E+03
 3.051281655E+03	 1.013000000E+03
 3.054755018E+03	 1.010000000E+03
 3.058226808E+03	 1.016000000E+03
 3.061697026E+03	 1.006000000E+03
 3.065165674E+03	 1.023000000E+03
 3.068632751E+03	 1.020000000E+03
 3.072098260E+03	 1.033000000E+03
 3.075562201E+03	 1.057000000E+03
 3.079024574E+03	 1.042000000E+03
 3.082485381E+03	 1.018000000E+03
 3.085944623E+03	 1.017000000E+03
 3.089402300E+03	 1.029000000E+03
 3.092858413E+03	 1.016000000E+03
 3.096312963E+03	 1.008000000E+03
 3.099765950E+03	 1.012000000E+03
 3.103217377E+03	 9.950000000E+02
 3.106667243E+03	 1.003000000E+03
 3.110115549E+03	 1.015000000E+03
 3.113562297E+03	 1.012000000E+03
 3.117007487E+03	 9.950000000E+02
 3.120451119E+03	 1.021000000E+03
 3.123893195E+03	 9.820000000E+02
 3.127333716E+03	 1.000000000E+03
 3.130772682E+03	 1.008000000E+03
 3.134210094E+03	 9.990000000E+02
 3.137645953E+03	 9.970000000E+02
 3.141080260E+03	 9.970000000E+02
 3.144513016E+03	 1.015000000E+03
 3.147944221E+03	 9.850000000E+02
 3.151373876E+03	 9.960000000E+02
 3.154801983E+03	 9.910000000E+02
 3.158228541E+03	 1.021000000E+03
 3.161653551E+03	 1.002000000E+03
 3.165077016E+03	 9.970000000E+02
 3.168498934E+03	 1.011000000E+03
 3.171919308E+03	 9.980000000E+02
 3.175338137E+03	 1.007000000E+03
 3.178755423E+03	 1.007000000E+03
 3.182171166E+03	 1.003000000E+03
 3.185585368E+03	 1.004000000E+03
 3.188998029E+03	 9.920000000E+02
 3.192409149E+03	 1.013000000E+03
 3.195818730E+03	 9.980000000E+02
 3.199226772E+03	 1.003000000E+03
 3.202633276E+03	 1.006000000E+03
 3.206038244E+03	 9.750000000E+02
 3.209441674E+03	 1.007000000E+03
 3.212843570E+03	 1.005000000E+03
 3.216243930E+03	 1.012000000E+03
 3.219642756E+03	 9.710000000E+02
 3.223040049E+03	 1.012000000E+03
 3.226435810E+03	 1.006000000E+03
 3.229830038E+03	 9.980000000E+02
 3.233222736E+03	 9.830000000E+02
 3.236613903E+03	 1.016000000E+03
 3.240003541E+03	 1.018000000E+03
 3.243391650E+03	 1.001000000E+03
 3.246778231E+03	 9.870000000E+02
 3.250163284E+03	 1.001000000E+03
 3.253546811E+03	 1.008000000E+03
 3.256928812E+03	 9.980000000E+02
 3.260309288E+03	 9.890000000E+02
 3.263688240E+03	 9.920000000E+02
 3.267065668E+03	 1.003000000E+03
 3.270441573E+03	 9.730000000E+02
