1042.414189	704.75
1042.980685	706.0
1043.547124	704.0
1044.113505	702.75
1044.679828	703.0
1045.246093	699.75
1045.8123	704.75
1046.378449	702.0
1046.94454	700.75
1047.510573	697.75
1048.076548	702.0
1048.642465	699.0
1049.208325	699.75
1049.774126	700.75
1050.339869	696.25
1050.905555	698.75
1051.471183	701.75
1052.036752	697.75
1052.602264	702.5
1053.167718	694.5
1053.733114	692.25
1054.298452	699.75
1054.863733	692.25
1055.428955	694.0
1055.994119	695.25
1056.559226	696.5
1057.124275	693.0
1057.689266	694.0
1058.254199	693.5
1058.819074	690.75
1059.383891	696.25
1059.94865	697.25
1060.513352	694.75
1061.077996	695.0
1061.642582	694.25
1062.20711	699.5
1062.77158	697.75
1063.335992	691.25
1063.900347	690.0
1064.464643	692.25
1065.028882	695.25
1065.593063	692.75
1066.157187	693.25
1066.721252	696.25
1067.28526	694.5
1067.84921	693.75
1068.413102	692.75
1068.976936	697.75
1069.540713	697.25
1070.104431	700.75
1070.668092	693.0
1071.231696	695.0
1071.795241	693.5
1072.358729	695.25
1072.922159	695.5
1073.485531	692.0
1074.048845	692.75
1074.612102	694.75
1075.175301	692.75
1075.738442	695.5
1076.301525	695.5
1076.864551	700.5
1077.427519	697.25
1077.990429	697.5
1078.553281	696.0
1079.116076	694.75
1079.678813	700.0
1080.241492	694.0
1080.804114	701.75
1081.366678	698.25
1081.929184	701.5
1082.491633	703.25
1083.054024	708.5
1083.616357	703.0
1084.178632	703.75
1084.74085	703.0
1085.30301	704.25
1085.865113	703.5
1086.427158	707.25
1086.989145	706.5
1087.551074	707.25
1088.112946	715.5
1088.67476	715.75
1089.236517	710.0
1089.798216	715.5
1090.359857	715.25
1090.92144	715.5
1091.482966	718.0
1092.044435	716.0
1092.605845	716.5
1093.167199	722.75
1093.728494	723.75
1094.289732	718.5
1094.850912	715.75
1095.412035	716.75
1095.9731	716.25
1096.534107	707.25
1097.095057	717.25
1097.65595	712.25
1098.216784	710.0
1098.777561	706.25
1099.338281	705.25
1099.898943	705.0
1100.459547	703.25
1101.020094	696.75
1101.580584	701.5
1102.141015	696.0
1102.701389	695.0
1103.261706	695.5
1103.821965	695.5
1104.382167	695.75
1104.942311	692.0
1105.502397	694.5
1106.062426	697.75
1106.622398	696.75
1107.182312	694.0
1107.742168	691.0
1108.301967	690.5
1108.861708	692.0
1109.421392	691.75
1109.981019	691.0
1110.540587	693.0
1111.100099	686.5
1111.659553	688.5
1112.218949	695.25
1112.778288	689.25
1113.33757	688.0
1113.896794	689.5
1114.45596	689.75
1115.015069	691.0
1115.574121	688.0
1116.133115	688.75
1116.692052	689.5
1117.250931	689.75
1117.809753	689.75
1118.368517	683.5
1118.927224	688.0
1119.485873	688.0
1120.044465	684.25
1120.603	687.5
1121.161477	686.0
1121.719897	684.25
1122.278259	687.25
1122.836564	687.25
1123.394812	685.0
1123.953002	688.25
1124.511135	687.25
1125.06921	682.0
1125.627228	684.25
1126.185189	686.25
1126.743092	688.75
1127.300938	689.25
1127.858726	686.25
1128.416457	684.75
1128.974131	686.75
1129.531748	685.75
1130.089307	684.25
1130.646808	686.25
1131.204252	686.5
1131.761639	685.25
1132.318969	684.0
1132.876241	687.0
1133.433456	685.5
1133.990614	687.0
1134.547714	686.0
1135.104757	688.75
1135.661743	688.25
1136.218671	685.0
1136.775542	686.75
1137.332356	685.75
1137.889112	686.25
1138.445811	682.75
1139.002453	688.0
1139.559037	688.25
1140.115565	685.5
1140.672035	685.5
1141.228447	684.0
1141.784803	682.75
1142.341101	685.5
1142.897342	685.5
1143.453525	687.25
1144.009651	685.25
1144.565721	682.25
1145.121732	683.25
1145.677687	688.0
1146.233584	687.25
1146.789424	684.25
1147.345207	685.0
1147.900933	691.25
1148.456601	689.75
1149.012212	683.75
1149.567766	689.75
1150.123263	682.25
1150.678702	687.5
1151.234085	683.75
1151.78941	686.25
1152.344678	683.75
1152.899888	683.25
1153.455042	687.5
1154.010138	682.5
1154.565177	686.75
1155.120159	685.25
1155.675084	686.0
1156.229951	688.0
1156.784762	687.75
1157.339515	684.75
1157.894211	685.5
1158.44885	685.25
1159.003432	680.5
1159.557956	684.75
1160.112424	684.0
1160.666834	689.25
1161.221187	686.75
1161.775483	685.0
1162.329722	685.25
1162.883904	684.5
1163.438029	684.5
1163.992096	690.5
1164.546107	681.5
1165.10006	685.25
1165.653956	683.0
1166.207795	688.75
1166.761577	683.75
1167.315302	684.0
1167.86897	687.5
1168.422581	686.25
1168.976134	684.0
1169.529631	682.0
1170.08307	684.75
1170.636453	685.0
1171.189778	685.75
1171.743046	685.5
1172.296257	683.5
1172.849412	684.25
1173.402509	681.5
1173.955549	683.5
1174.508532	686.75
1175.061458	682.25
1175.614327	682.0
1176.167138	685.75
1176.719893	685.5
1177.272591	685.75
1177.825232	686.25
1178.377816	685.75
1178.930342	682.5
1179.482812	685.75
1180.035225	686.75
1180.587581	681.75
1181.139879	685.0
1181.692121	684.25
1182.244306	683.5
1182.796434	689.5
1183.348504	687.25
1183.900518	684.0
1184.452475	681.75
1185.004375	684.0
1185.556218	686.75
1186.108004	685.5
1186.659733	684.75
1187.211405	682.75
1187.76302	686.5
1188.314578	684.0
1188.866079	687.0
1189.417523	682.5
1189.96891	683.0
1190.520241	682.0
1191.071514	687.0
1191.622731	683.0
1192.17389	686.25
1192.724993	685.0
1193.276039	702.75
1193.827027	685.0
1194.377959	686.0
1194.928834	683.25
1195.479653	688.0
1196.030414	682.25
1196.581118	684.75
1197.131766	684.0
1197.682356	681.25
1198.23289	684.5
1198.783367	684.25
1199.333786	687.75
1199.88415	681.25
1200.434456	685.25
1200.984705	684.75
1201.534898	685.75
1202.085033	686.75
1202.635112	683.25
1203.185134	684.0
1203.735099	685.0
1204.285007	683.5
1204.834859	684.0
1205.384653	682.5
1205.934391	684.25
1206.484072	682.25
1207.033696	686.0
1207.583263	680.0
1208.132774	687.25
1208.682228	682.5
1209.231624	684.25
1209.780965	681.5
1210.330248	684.75
1210.879474	683.5
1211.428644	683.75
1211.977757	686.0
1212.526813	686.0
1213.075813	683.5
1213.624755	681.25
1214.173641	682.25
1214.72247	687.25
1215.271242	682.75
1215.819958	683.75
1216.368617	685.5
1216.917219	685.0
1217.465764	684.5
1218.014253	687.0
1218.562685	686.0
1219.11106	685.0
1219.659378	683.25
1220.20764	684.25
1220.755845	683.0
1221.303993	682.25
1221.852085	683.25
1222.400119	684.25
1222.948097	683.0
1223.496019	688.25
1224.043883	686.5
1224.591691	682.0
1225.139443	682.75
1225.687137	687.5
1226.234775	686.0
1226.782357	683.5
1227.329881	684.5
1227.877349	684.5
1228.42476	686.0
1228.972115	682.0
1229.519413	683.0
1230.066654	684.0
1230.613839	683.25
1231.160967	688.0
1231.708038	684.25
1232.255053	682.5
1232.802011	682.5
1233.348912	682.0
1233.895757	683.25
1234.442545	683.75
1234.989277	688.5
1235.535951	684.0
1236.08257	685.0
1236.629131	688.5
1237.175636	684.5
1237.722085	679.0
1238.268477	686.25
1238.814812	682.0
1239.361091	686.0
1239.907313	683.75
1240.453478	683.5
1240.999587	685.75
1241.54564	684.5
1242.091636	682.75
1242.637575	685.5
1243.183457	679.5
1243.729284	682.25
1244.275053	681.5
1244.820766	679.25
1245.366423	680.75
1245.912022	683.25
1246.457566	683.75
1247.003053	681.75
1247.548483	685.0
1248.093857	681.0
1248.639174	687.0
1249.184435	682.25
1249.729639	687.75
1250.274787	685.25
1250.819878	684.75
1251.364912	686.25
1251.909891	682.75
1252.454812	684.5
1252.999677	683.25
1253.544486	684.75
1254.089238	680.0
1254.633934	682.25
1255.178573	687.0
1255.723156	684.75
1256.267682	682.25
1256.812152	685.75
1257.356565	681.5
1257.900922	681.75
1258.445223	682.25
1258.989467	681.0
1259.533654	684.25
1260.077785	688.0
1260.62186	687.5
1261.165878	679.75
1261.70984	686.75
1262.253745	687.5
1262.797594	686.25
1263.341386	686.0
1263.885123	682.5
1264.428802	681.25
1264.972425	684.25
1265.515992	684.0
1266.059503	687.5
1266.602957	685.5
1267.146354	681.75
1267.689696	684.25
1268.23298	684.75
1268.776209	685.25
1269.319381	683.5
1269.862497	681.25
1270.405556	686.5
1270.948559	681.75
1271.491506	681.5
1272.034396	685.25
1272.57723	682.0
1273.120007	683.0
1273.662728	679.75
1274.205393	681.25
1274.748002	678.25
1275.290554	685.25
1275.83305	684.75
1276.375489	684.25
1276.917872	680.75
1277.460199	684.5
1278.00247	683.5
1278.544684	685.75
1279.086842	681.5
1279.628943	685.75
1280.170989	685.0
1280.712978	685.5
1281.25491	682.25
1281.796787	685.0
1282.338607	684.0
1282.880371	686.25
1283.422078	684.5
1283.963729	684.75
1284.505324	685.5
1285.046863	683.75
1285.588345	683.75
1286.129772	695.75
1286.671142	712.0
1287.212455	692.0
1287.753713	686.0
1288.294914	679.0
1288.836059	683.75
1289.377147	683.25
1289.91818	686.5
1290.459156	681.5
1291.000076	684.5
1291.54094	680.25
1292.081747	684.75
1292.622499	680.75
1293.163194	685.5
1293.703833	685.25
1294.244415	682.25
1294.784942	680.5
1295.325412	680.5
1295.865826	687.25
1296.406184	679.5
1296.946486	683.5
1297.486731	682.5
1298.026921	683.25
1298.567054	683.25
1299.107131	685.5
1299.647152	682.75
1300.187116	682.75
1300.727025	683.25
1301.266877	684.25
1301.806673	683.0
1302.346413	683.75
1302.886097	683.25
1303.425725	684.75
1303.965297	683.5
1304.504812	680.25
1305.044272	681.5
1305.583675	683.75
1306.123022	682.5
1306.662313	683.0
1307.201548	685.25
1307.740727	684.5
1308.279849	688.25
1308.818916	685.75
1309.357926	686.5
1309.896881	683.25
1310.435779	685.75
1310.974621	683.0
1311.513407	682.75
1312.052137	686.0
1312.590811	685.5
1313.129429	685.5
1313.667991	683.75
1314.206497	683.0
1314.744946	680.75
1315.28334	680.0
1315.821678	683.25
1316.359959	686.0
1316.898184	680.75
1317.436354	682.25
1317.974467	683.25
1318.512525	683.75
1319.050526	684.5
1319.588471	684.25
1320.12636	687.0
1320.664194	681.0
1321.201971	682.25
1321.739692	684.5
1322.277357	680.75
1322.814967	683.25
1323.35252	687.25
1323.890017	686.0
1324.427458	684.0
1324.964843	683.0
1325.502173	680.0
1326.039446	686.0
1326.576663	681.5
1327.113824	684.5
1327.65093	684.0
1328.187979	687.5
1328.724972	682.5
1329.26191	684.75
1329.798791	682.5
1330.335617	678.5
1330.872386	683.0
1331.4091	686.5
1331.945758	684.25
1332.48236	684.25
1333.018905	678.25
1333.555395	681.5
1334.091829	681.25
1334.628207	679.75
1335.164529	681.25
1335.700796	681.75
1336.237006	682.5
1336.77316	683.25
1337.309259	682.0
1337.845301	681.5
1338.381288	686.0
1338.917219	680.5
1339.453094	679.5
1339.988913	681.0
1340.524676	682.25
1341.060383	685.75
1341.596034	682.5
1342.13163	684.5
1342.66717	685.75
1343.202653	681.25
1343.738081	680.75
1344.273453	681.25
1344.80877	687.5
1345.34403	682.25
1345.879235	686.25
1346.414383	683.5
1346.949476	680.25
1347.484513	684.5
1348.019494	685.0
1348.55442	681.25
1349.089289	684.0
1349.624103	683.25
1350.158861	682.75
1350.693563	683.25
1351.228209	684.0
1351.7628	680.0
1352.297334	680.25
1352.831813	683.75
1353.366236	680.75
1353.900604	685.25
1354.434915	680.0
1354.969171	679.75
1355.503371	683.0
1356.037515	683.75
1356.571604	682.0
1357.105636	683.75
1357.639613	683.0
1358.173535	685.25
1358.7074	685.0
1359.24121	682.25
1359.774964	678.5
1360.308662	679.0
1360.842304	683.25
1361.375891	681.75
1361.909422	681.5
1362.442897	684.25
1362.976317	683.0
1363.50968	681.25
1364.042989	685.25
1364.576241	682.5
1365.109438	678.25
1365.642579	684.25
1366.175664	682.0
1366.708693	683.0
1367.241667	682.75
1367.774585	681.5
1368.307448	682.0
1368.840255	684.25
1369.373006	682.5
1369.905701	681.25
1370.438341	686.0
1370.970925	682.25
1371.503454	683.0
1372.035926	681.5
1372.568344	684.75
1373.100705	681.25
1373.633011	685.5
1374.165261	681.5
1374.697456	684.0
1375.229595	681.75
1375.761678	683.5
1376.293705	683.0
1376.825677	682.0
1377.357594	682.0
1377.889455	686.25
1378.42126	688.0
1378.953009	681.75
1379.484703	680.75
1380.016342	685.0
1380.547924	678.0
1381.079452	684.5
1381.610923	685.0
1382.142339	681.25
1382.673699	683.0
1383.205004	680.5
1383.736253	683.5
1384.267447	684.75
1384.798585	684.25
1385.329668	684.0
1385.860695	680.25
1386.391666	683.75
1386.922582	683.75
1387.453442	680.75
1387.984247	685.0
1388.514996	681.0
1389.04569	696.5
1389.576328	734.5
1390.10691	692.25
1390.637437	687.5
1391.167909	684.25
1391.698325	681.25
1392.228685	685.75
1392.75899	679.5
1393.28924	684.25
1393.819434	686.5
1394.349572	684.75
1394.879655	679.75
1395.409683	683.25
1395.939655	682.5
1396.469571	683.5
1396.999432	684.0
1397.529237	681.5
1398.058987	683.5
1398.588682	681.75
1399.118321	683.75
1399.647905	680.75
1400.177433	684.0
1400.706906	681.5
1401.236323	682.75
1401.765685	686.75
1402.294991	682.5
1402.824242	688.0
1403.353437	681.0
1403.882577	682.25
1404.411662	686.75
1404.940691	682.5
1405.469665	683.25
1405.998583	679.75
1406.527446	684.0
1407.056253	685.0
1407.585005	682.25
1408.113702	684.0
1408.642343	683.5
1409.170929	683.0
1409.69946	682.5
1410.227935	684.25
1410.756354	688.25
1411.284719	682.0
1411.813028	681.75
1412.341281	681.0
1412.869479	682.5
1413.397622	683.5
1413.92571	682.75
1414.453742	684.5
1414.981718	683.0
1415.50964	693.0
1416.037506	681.5
1416.565316	683.0
1417.093072	683.75
1417.620772	683.0
1418.148416	681.5
1418.676005	681.75
1419.203539	685.0
1419.731018	681.0
1420.258441	685.0
1420.785809	680.25
1421.313122	688.25
1421.840379	681.25
1422.367582	680.25
1422.894728	681.75
1423.42182	683.75
1423.948856	684.75
1424.475837	685.25
1425.002762	684.5
1425.529633	680.5
1426.056448	683.5
1426.583207	682.25
1427.109912	686.75
1427.636561	684.5
1428.163155	682.0
1428.689694	683.75
1429.216177	682.75
1429.742605	681.75
1430.268978	682.75
1430.795296	682.75
1431.321558	684.75
1431.847765	685.0
1432.373917	682.0
1432.900014	683.25
1433.426056	683.0
1433.952042	683.0
1434.477973	681.75
1435.003849	682.5
1435.529669	683.25
1436.055435	682.25
1436.581145	682.5
1437.1068	684.25
1437.632399	683.75
1438.157944	684.5
1438.683433	684.0
1439.208868	682.5
1439.734247	680.5
1440.25957	681.0
1440.784839	685.5
1441.310053	681.5
1441.835211	684.25
1442.360314	687.0
1442.885362	683.25
1443.410355	682.5
1443.935292	684.5
1444.460175	685.25
1444.985002	685.25
1445.509774	682.75
1446.034491	685.0
1446.559153	685.0
1447.08376	682.75
1447.608312	684.25
1448.132808	680.25
1448.65725	683.0
1449.181636	686.75
1449.705967	681.25
1450.230243	684.75
1450.754464	684.75
1451.27863	683.25
1451.802741	683.0
1452.326797	683.75
1452.850797	680.5
1453.374743	684.75
1453.898633	682.0
1454.422468	685.0
1454.946249	679.5
1455.469974	682.5
1455.993644	683.75
1456.517259	678.5
1457.040819	683.5
1457.564324	683.0
1458.087773	681.5
1458.611168	684.5
1459.134508	681.5
1459.657793	687.0
1460.181022	681.0
1460.704197	681.0
1461.227316	686.0
1461.750381	679.75
1462.27339	688.5
1462.796345	704.0
1463.842089	687.0
1464.364878	684.75
1464.887613	685.0
1465.410292	682.5
1465.932916	682.25
1466.455486	684.0
1466.978	684.75
1467.50046	682.0
1468.022864	684.75
1468.545214	679.75
1469.067508	685.5
1469.589748	680.25
1470.111932	681.25
1470.634062	681.0
1471.156136	682.25
1471.678156	681.25
1472.20012	680.75
1472.72203	682.25
1473.243885	685.0
1473.765685	681.5
1474.28743	683.0
1474.80912	680.5
1475.330755	683.0
1475.852335	684.5
1476.37386	682.75
1476.89533	680.5
1477.416745	686.0
1477.938106	680.5
1478.459411	680.75
1478.980662	683.5
1479.501857	684.25
1480.022998	682.25
1480.544084	682.25
1481.065115	683.0
1481.586091	684.25
1482.107012	686.5
1482.627878	683.5
1483.14869	685.0
1483.669446	683.75
1484.190148	682.75
1484.710794	683.75
1485.231386	681.0
1485.751923	681.25
1486.272406	681.75
1486.792833	680.5
1487.313205	678.0
1487.833523	684.25
1488.353786	679.25
1488.873994	686.25
1489.394147	685.5
1489.914245	682.75
1490.434288	684.75
1490.954277	680.25
1491.474211	683.0
1491.99409	679.0
1492.513914	683.0
1493.033683	684.5
1493.553398	682.5
1494.073057	680.75
1494.592662	686.5
1495.112212	681.75
1495.631708	681.0
1496.151148	682.5
1496.670534	683.0
1497.189865	681.0
1497.709141	683.5
1498.228362	681.75
1498.747529	682.0
1499.266641	680.0
1499.785698	689.0
1500.3047	680.75
1500.823648	683.25
1501.34254	678.75
1501.861379	681.5
1502.380162	683.75
1502.89889	685.0
1503.417564	683.5
1503.936183	681.5
1504.454748	684.0
1504.973257	678.75
1505.491712	682.5
1506.010112	678.75
1506.528458	682.25
1507.046748	683.25
1507.564984	678.75
1508.083166	682.25
1508.601292	681.5
1509.119364	679.25
1509.637381	681.0
1510.155344	681.0
1510.673252	692.0
1511.191105	682.75
1511.708903	684.0
1512.226647	684.75
1512.744336	682.75
1513.261971	679.0
1513.77955	680.75
1514.297076	682.25
1514.814546	682.75
1515.331962	681.0
1515.849323	682.5
1516.366629	683.5
1516.883881	682.75
1517.401078	683.5
1517.918221	682.25
1518.435309	681.75
1518.952342	680.5
1519.469321	681.75
1519.986245	681.0
1520.503114	680.75
1521.019929	682.25
1521.536689	684.75
1522.053395	684.25
1522.570046	682.5
1523.086642	682.75
1523.603184	680.75
1524.119671	680.75
1524.636103	684.5
1525.152481	683.25
1525.668805	692.75
1526.185073	712.25
1526.701288	696.0
1527.217447	684.25
1527.733552	679.75
1528.249603	679.5
1528.765599	681.5
1529.28154	682.25
1529.797427	683.25
1530.313259	682.5
1530.829037	682.75
1531.34476	683.5
1531.860429	686.0
1532.376043	684.25
1532.891602	680.75
1533.407107	681.25
1533.922558	684.0
1534.437954	679.0
1534.953295	680.0
1535.468582	684.75
1535.983815	682.75
1536.498993	683.0
1537.014116	680.5
1537.529185	682.75
1538.044199	682.75
1538.559159	683.5
1539.074064	681.0
1539.588915	682.75
1540.103712	678.25
1540.618454	680.25
1541.133141	685.0
1541.647774	682.25
1542.162353	682.5
1542.676877	682.25
1543.191346	683.0
1543.705761	681.25
1544.220122	684.0
1544.734428	681.25
1545.24868	684.5
1545.762877	680.75
1546.27702	683.25
1546.791109	683.0
1547.305143	680.75
1547.819122	681.75
1548.333047	685.0
1548.846918	681.25
1549.360734	685.5
1549.874496	680.5
1550.388204	683.0
1550.901857	686.75
1551.415455	680.75
1551.929	682.0
1552.442489	681.5
1552.955925	681.5
1553.469306	683.0
1553.982632	682.25
1554.495905	682.25
1555.009123	685.75
1555.522286	685.25
1556.035395	686.0
1556.54845	684.5
1557.06145	679.5
1557.574396	683.25
1558.087288	685.0
1558.600125	686.25
1559.112908	684.0
1559.625637	685.0
1560.138311	685.0
1560.650931	684.25
1561.163497	685.5
1561.676008	684.0
1562.188465	684.25
1562.700867	682.5
1563.213216	684.25
1563.725509	686.0
1564.237749	684.75
1564.749934	687.75
1565.262065	686.25
1565.774142	685.25
1566.286164	685.5
1566.798132	687.0
1567.310046	683.75
1567.821906	686.5
1568.333711	685.5
1568.845462	683.25
1569.357158	680.5
1569.868801	689.25
1570.380389	688.5
1570.891922	688.0
1571.403402	682.75
1571.914827	684.25
1572.426198	684.5
1572.937515	681.5
1573.448777	684.5
1573.959985	683.0
1574.471139	682.25
1574.982239	682.75
1575.493285	682.25
1576.004276	673.75
1576.515213	682.25
1577.026096	683.75
1577.536924	682.5
1578.047698	684.0
1578.558419	681.5
1579.069084	682.25
1579.579696	682.5
1580.090254	682.75
1580.600757	684.0
1581.111206	683.25
1581.621601	684.25
1582.131941	684.25
1582.642228	681.75
1583.15246	679.75
1583.662638	679.75
1584.172762	683.25
1584.682832	685.25
1585.192847	682.5
1585.702809	677.75
1586.212716	685.25
1586.722569	684.5
1587.232368	680.0
1587.742113	681.75
1588.251803	678.5
1588.76144	682.0
1589.271022	678.25
1589.78055	682.5
1590.290024	686.5
1590.799444	682.5
1591.30881	679.0
1591.818121	681.75
1592.327379	682.25
