1042.414189	704.0
1042.980685	705.5
1043.547124	701.0
1044.113505	702.25
1044.679828	703.5
1045.246093	699.75
1045.8123	701.25
1046.378449	696.25
1046.94454	700.0
1047.510573	696.0
1048.076548	700.5
1048.642465	699.5
1049.208325	700.25
1049.774126	697.75
1050.339869	698.25
1050.905555	695.75
1051.471183	694.0
1052.036752	690.5
1052.602264	692.75
1053.167718	692.75
1053.733114	692.25
1054.298452	695.75
1054.863733	693.75
1055.428955	687.75
1055.994119	688.25
1056.559226	693.25
1057.124275	688.25
1057.689266	690.0
1058.254199	692.25
1058.819074	685.25
1059.383891	685.5
1059.94865	687.5
1060.513352	687.75
1061.077996	688.75
1061.642582	690.0
1062.20711	689.5
1062.77158	689.75
1063.335992	691.5
1063.900347	689.25
1064.464643	685.25
1065.028882	685.75
1065.593063	688.75
1066.157187	686.75
1066.721252	689.0
1067.28526	686.75
1067.84921	688.25
1068.413102	684.25
1068.976936	688.75
1069.540713	686.75
1070.104431	698.25
1070.668092	687.0
1071.231696	687.75
1071.795241	688.75
1072.358729	688.25
1072.922159	689.0
1073.485531	690.0
1074.048845	687.25
1074.612102	686.5
1075.175301	686.5
1075.738442	687.25
1076.301525	684.0
1076.864551	686.25
1077.427519	684.75
1077.990429	684.0
1078.553281	685.0
1079.116076	681.0
1079.678813	682.75
1080.241492	687.25
1080.804114	687.5
1081.366678	686.75
1081.929184	684.25
1082.491633	685.5
1083.054024	685.0
1083.616357	682.25
1084.178632	687.5
1084.74085	686.75
1085.30301	689.0
1085.865113	686.25
1086.427158	687.75
1086.989145	687.0
1087.551074	684.75
1088.112946	686.75
1088.67476	686.5
1089.236517	685.5
1089.798216	689.25
1090.359857	684.5
1090.92144	686.5
1091.482966	687.5
1092.044435	686.75
1092.605845	686.25
1093.167199	685.75
1093.728494	683.0
1094.289732	685.75
1094.850912	684.25
1095.412035	687.5
1095.9731	687.75
1096.534107	682.5
1097.095057	693.0
1097.65595	685.25
1098.216784	683.0
1098.777561	681.5
1099.338281	687.75
1099.898943	685.0
1100.459547	687.0
1101.020094	684.5
1101.580584	683.5
1102.141015	683.25
1102.701389	685.5
1103.261706	688.25
1103.821965	683.75
1104.382167	685.5
1104.942311	687.0
1105.502397	684.75
1106.062426	684.75
1106.622398	686.25
1107.182312	683.5
1107.742168	687.75
1108.301967	685.0
1108.861708	685.0
1109.421392	684.0
1109.981019	687.25
1110.540587	686.0
1111.100099	685.25
1111.659553	687.5
1112.218949	684.25
1112.778288	688.25
1113.33757	685.5
1113.896794	685.5
1114.45596	686.75
1115.015069	687.25
1115.574121	684.0
1116.133115	684.25
1116.692052	685.0
1117.250931	687.25
1117.809753	684.75
1118.368517	684.0
1118.927224	684.0
1119.485873	683.0
1120.044465	687.75
1120.603	683.25
1121.161477	685.75
1121.719897	687.25
1122.278259	685.25
1122.836564	685.5
1123.394812	683.0
1123.953002	685.0
1124.511135	681.5
1125.06921	685.5
1125.627228	688.75
1126.185189	686.0
1126.743092	684.75
1127.300938	687.5
1127.858726	683.75
1128.416457	686.0
1128.974131	686.5
1129.531748	682.25
1130.089307	689.75
1130.646808	688.25
1131.204252	686.0
1131.761639	685.5
1132.318969	685.75
1132.876241	684.5
1133.433456	683.75
1133.990614	684.75
1134.547714	687.25
1135.104757	685.5
1135.661743	688.0
1136.218671	682.75
1136.775542	685.25
1137.332356	684.5
1137.889112	685.75
1138.445811	685.25
1139.002453	686.75
1139.559037	683.75
1140.115565	687.5
1140.672035	681.75
1141.228447	685.0
1141.784803	686.5
1142.341101	687.25
1142.897342	686.25
1143.453525	687.0
1144.009651	683.25
1144.565721	686.0
1145.121732	686.5
1145.677687	687.5
1146.233584	685.75
1146.789424	687.0
1147.345207	687.25
1147.900933	686.25
1148.456601	690.25
1149.012212	687.0
1149.567766	688.0
1150.123263	685.0
1150.678702	687.0
1151.234085	687.0
1151.78941	685.25
1152.344678	685.75
1152.899888	687.25
1153.455042	684.25
1154.010138	686.25
1154.565177	687.5
1155.120159	680.0
1155.675084	685.0
1156.229951	685.0
1156.784762	685.75
1157.339515	687.75
1157.894211	685.25
1158.44885	683.25
1159.003432	682.5
1159.557956	689.75
1160.112424	684.0
1160.666834	686.0
1161.221187	685.0
1161.775483	685.75
1162.329722	686.0
1162.883904	685.5
1163.438029	688.75
1163.992096	685.75
1164.546107	687.5
1165.10006	689.25
1165.653956	685.5
1166.207795	686.0
1166.761577	686.5
1167.315302	685.5
1167.86897	688.0
1168.422581	686.25
1168.976134	687.5
1169.529631	687.75
1170.08307	688.0
1170.636453	685.5
1171.189778	687.5
1171.743046	685.75
1172.296257	682.25
1172.849412	685.5
1173.402509	680.25
1173.955549	687.25
1174.508532	688.75
1175.061458	684.25
1175.614327	682.25
1176.167138	687.25
1176.719893	687.25
1177.272591	683.0
1177.825232	686.75
1178.377816	683.25
1178.930342	682.75
1179.482812	681.25
1180.035225	681.75
1180.587581	684.0
1181.139879	682.5
1181.692121	681.75
1182.244306	684.75
1182.796434	686.5
1183.348504	683.25
1183.900518	683.75
1184.452475	681.75
1185.004375	689.5
1185.556218	684.5
1186.108004	687.5
1186.659733	687.0
1187.211405	685.25
1187.76302	684.75
1188.314578	683.25
1188.866079	684.5
1189.417523	684.5
1189.96891	683.25
1190.520241	684.0
1191.071514	684.75
1191.622731	684.25
1192.17389	685.0
1192.724993	684.75
1193.276039	708.25
1193.827027	684.75
1194.377959	680.0
1194.928834	685.5
1195.479653	685.25
1196.030414	685.25
1196.581118	685.5
1197.131766	682.25
1197.682356	683.5
1198.23289	682.25
1198.783367	685.0
1199.333786	681.25
1199.88415	684.25
1200.434456	688.75
1200.984705	683.0
1201.534898	683.25
1202.085033	682.75
1202.635112	680.75
1203.185134	685.5
1203.735099	685.25
1204.285007	684.75
1204.834859	683.0
1205.384653	685.25
1205.934391	683.75
1206.484072	681.75
1207.033696	685.25
1207.583263	685.75
1208.132774	684.25
1208.682228	682.0
1209.231624	684.25
1209.780965	681.25
1210.330248	687.0
1210.879474	685.25
1211.428644	683.25
1211.977757	684.0
1212.526813	684.0
1213.075813	685.0
1213.624755	681.0
1214.173641	686.0
1214.72247	684.5
1215.271242	682.0
1215.819958	682.5
1216.368617	683.5
1216.917219	683.0
1217.465764	690.25
1218.014253	681.25
1218.562685	683.25
1219.11106	686.0
1219.659378	687.75
1220.20764	686.75
1220.755845	682.25
1221.303993	684.25
1221.852085	686.0
1222.400119	689.5
1222.948097	685.25
1223.496019	683.5
1224.043883	681.0
1224.591691	685.75
1225.139443	686.5
1225.687137	684.5
1226.234775	681.75
1226.782357	681.75
1227.329881	688.0
1227.877349	685.0
1228.42476	688.0
1228.972115	682.5
1229.519413	686.75
1230.066654	686.0
1230.613839	687.25
1231.160967	688.5
1231.708038	686.25
1232.255053	682.25
1232.802011	686.5
1233.348912	687.25
1233.895757	681.25
1234.442545	687.0
1234.989277	688.25
1235.535951	683.0
1236.08257	685.25
1236.629131	686.25
1237.175636	685.5
1237.722085	685.0
1238.268477	687.25
1238.814812	684.75
1239.361091	686.25
1239.907313	686.0
1240.453478	686.25
1240.999587	682.0
1241.54564	686.25
1242.091636	682.5
1242.637575	688.5
1243.183457	682.75
1243.729284	685.0
1244.275053	684.75
1244.820766	685.25
1245.366423	686.5
1245.912022	684.0
1246.457566	690.75
1247.003053	684.0
1247.548483	682.75
1248.093857	686.25
1248.639174	689.25
1249.184435	685.75
1249.729639	686.25
1250.274787	689.25
1250.819878	687.5
1251.364912	685.75
1251.909891	689.0
1252.454812	685.25
1252.999677	688.25
1253.544486	684.0
1254.089238	680.25
1254.633934	683.25
1255.178573	685.75
1255.723156	685.0
1256.267682	686.75
1256.812152	684.75
1257.356565	686.5
1257.900922	687.25
1258.445223	687.75
1258.989467	688.0
1259.533654	687.75
1260.077785	692.0
1260.62186	688.0
1261.165878	685.0
1261.70984	685.75
1262.253745	690.5
1262.797594	687.0
1263.341386	688.0
1263.885123	695.5
1264.428802	693.75
1264.972425	694.5
1265.515992	697.5
1266.059503	691.5
1266.602957	690.75
1267.146354	690.25
1267.689696	689.25
1268.23298	691.25
1268.776209	685.0
1269.319381	688.75
1269.862497	689.25
1270.405556	688.5
1270.948559	687.5
1271.491506	686.75
1272.034396	689.25
1272.57723	693.5
1273.120007	691.75
1273.662728	688.75
1274.205393	684.25
1274.748002	685.75
1275.290554	690.0
1275.83305	689.5
1276.375489	686.5
1276.917872	688.75
1277.460199	686.75
1278.00247	684.75
1278.544684	688.5
1279.086842	690.5
1279.628943	687.0
1280.170989	688.5
1280.712978	690.25
1281.25491	691.75
1281.796787	694.25
1282.338607	694.5
1282.880371	705.75
1283.422078	720.5
1283.963729	752.75
1284.505324	804.0
1285.046863	816.75
1285.588345	765.5
1286.129772	730.0
1286.671142	700.25
1287.212455	696.75
1287.753713	694.75
1288.294914	696.0
1288.836059	689.25
1289.377147	690.0
1289.91818	691.5
1290.459156	689.75
1291.000076	691.0
1291.54094	691.5
1292.081747	691.75
1292.622499	692.25
1293.163194	687.25
1293.703833	688.0
1294.244415	685.25
1294.784942	692.25
1295.325412	686.75
1295.865826	690.75
1296.406184	685.75
1296.946486	692.25
1297.486731	689.75
1298.026921	686.0
1298.567054	691.25
1299.107131	688.25
1299.647152	689.0
1300.187116	691.5
1300.727025	685.75
1301.266877	689.75
1301.806673	687.75
1302.346413	691.0
1302.886097	685.5
1303.425725	689.75
1303.965297	688.25
1304.504812	688.25
1305.044272	690.75
1305.583675	689.75
1306.123022	688.75
1306.662313	688.0
1307.201548	683.75
1307.740727	690.25
1308.279849	683.25
1308.818916	690.0
1309.357926	686.0
1309.896881	683.75
1310.435779	686.0
1310.974621	687.25
1311.513407	684.25
1312.052137	690.75
1312.590811	686.25
1313.129429	686.75
1313.667991	685.0
1314.206497	685.0
1314.744946	684.0
1315.28334	683.75
1315.821678	683.5
1316.359959	685.25
1316.898184	685.0
1317.436354	684.5
1317.974467	686.5
1318.512525	683.25
1319.050526	687.0
1319.588471	684.25
1320.12636	680.25
1320.664194	684.25
1321.201971	685.25
1321.739692	684.75
1322.277357	683.0
1322.814967	687.0
1323.35252	685.25
1323.890017	690.25
1324.427458	687.0
1324.964843	684.25
1325.502173	684.75
1326.039446	687.75
1326.576663	684.25
1327.113824	683.5
1327.65093	686.75
1328.187979	686.0
1328.724972	686.75
1329.26191	687.25
1329.798791	684.0
1330.335617	683.25
1330.872386	686.25
1331.4091	685.25
1331.945758	687.5
1332.48236	684.0
1333.018905	688.25
1333.555395	687.5
1334.091829	686.25
1334.628207	683.75
1335.164529	684.5
1335.700796	683.25
1336.237006	686.5
1336.77316	684.0
1337.309259	688.25
1337.845301	685.0
1338.381288	687.5
1338.917219	682.25
1339.453094	688.75
1339.988913	683.0
1340.524676	687.5
1341.060383	685.0
1341.596034	684.75
1342.13163	687.0
1342.66717	686.25
1343.202653	687.75
1343.738081	684.75
1344.273453	685.75
1344.80877	686.25
1345.34403	688.75
1345.879235	687.25
1346.414383	682.75
1346.949476	686.5
1347.484513	685.25
1348.019494	685.5
1348.55442	685.0
1349.089289	686.5
1349.624103	682.5
1350.158861	687.5
1350.693563	684.0
1351.228209	684.0
1351.7628	687.0
1352.297334	684.25
1352.831813	687.75
1353.366236	687.25
1353.900604	686.25
1354.434915	685.5
1354.969171	688.25
1355.503371	684.0
1356.037515	686.5
1356.571604	683.25
1357.105636	685.0
1357.639613	687.25
1358.173535	691.0
1358.7074	687.5
1359.24121	684.5
1359.774964	688.5
1360.308662	683.5
1360.842304	685.5
1361.375891	684.75
1361.909422	683.75
1362.442897	687.75
1362.976317	686.25
1363.50968	687.5
1364.042989	687.5
1364.576241	690.5
1365.109438	686.5
1365.642579	684.0
1366.175664	689.25
1366.708693	689.25
1367.241667	683.25
1367.774585	684.0
1368.307448	685.5
1368.840255	685.5
1369.373006	683.75
1369.905701	687.5
1370.438341	692.25
1370.970925	689.75
1371.503454	688.25
1372.035926	687.0
1372.568344	690.25
1373.100705	683.25
1373.633011	690.0
1374.165261	687.5
1374.697456	686.25
1375.229595	685.5
1375.761678	682.0
1376.293705	689.75
1376.825677	687.0
1377.357594	685.25
1377.889455	692.25
1378.42126	687.25
1378.953009	687.25
1379.484703	685.5
1380.016342	685.5
1380.547924	690.0
1381.079452	688.25
1381.610923	688.25
1382.142339	690.5
1382.673699	691.75
1383.205004	689.5
1383.736253	690.25
1384.267447	692.75
1384.798585	690.75
1385.329668	691.75
1385.860695	700.0
1386.391666	701.5
1386.922582	713.5
1387.453442	749.5
1387.984247	859.75
1388.514996	961.75
1389.04569	863.25
1389.576328	747.25
1390.10691	706.0
1390.637437	700.75
1391.167909	697.0
1391.698325	693.0
1392.228685	692.5
1392.75899	688.5
1393.28924	690.5
1393.819434	691.5
1394.349572	691.75
1394.879655	685.25
1395.409683	688.25
1395.939655	686.25
1396.469571	692.5
1396.999432	685.75
1397.529237	684.75
1398.058987	691.0
1398.588682	686.25
1399.118321	687.5
1399.647905	688.0
1400.177433	687.25
1400.706906	687.5
1401.236323	689.0
1401.765685	686.25
1402.294991	690.0
1402.824242	690.25
1403.353437	687.0
1403.882577	688.75
1404.411662	686.75
1404.940691	689.5
1405.469665	689.0
1405.998583	692.0
1406.527446	686.25
1407.056253	687.75
1407.585005	693.75
1408.113702	697.5
1408.642343	690.5
1409.170929	700.75
1409.69946	701.25
1410.227935	703.0
1410.756354	696.0
1411.284719	695.25
1411.813028	690.5
1412.341281	691.0
1412.869479	687.75
1413.397622	687.25
1413.92571	684.75
1414.453742	685.25
1414.981718	687.25
1415.50964	699.5
1416.037506	687.0
1416.565316	685.5
1417.093072	691.5
1417.620772	685.5
1418.148416	687.75
1418.676005	684.25
1419.203539	686.0
1419.731018	688.5
1420.258441	685.5
1420.785809	686.5
1421.313122	685.0
1421.840379	685.25
1422.367582	688.5
1422.894728	687.75
1423.42182	687.25
1423.948856	685.25
1424.475837	683.75
1425.002762	684.75
1425.529633	687.25
1426.056448	683.25
1426.583207	684.0
1427.109912	683.0
1427.636561	687.5
1428.163155	684.25
1428.689694	681.5
1429.216177	685.25
1429.742605	688.0
1430.268978	690.0
1430.795296	685.5
1431.321558	685.25
1431.847765	684.0
1432.373917	688.25
1432.900014	683.5
1433.426056	685.5
1433.952042	689.75
1434.477973	688.0
1435.003849	684.5
1435.529669	685.5
1436.055435	684.25
1436.581145	689.0
1437.1068	685.75
1437.632399	689.0
1438.157944	688.5
1438.683433	688.25
1439.208868	685.75
1439.734247	687.75
1440.25957	684.25
1440.784839	687.5
1441.310053	686.25
1441.835211	685.0
1442.360314	683.75
1442.885362	683.5
1443.410355	685.5
1443.935292	686.5
1444.460175	688.75
1444.985002	687.25
1445.509774	683.5
1446.034491	685.75
1446.559153	685.0
1447.08376	685.25
1447.608312	688.75
1448.132808	686.0
1448.65725	688.0
1449.181636	686.25
1449.705967	688.75
1450.230243	686.75
1450.754464	688.25
1451.27863	686.75
1451.802741	686.5
1452.326797	683.5
1452.850797	684.0
1453.374743	680.5
1453.898633	685.25
1454.422468	689.25
1454.946249	686.75
1455.469974	685.25
1455.993644	682.25
1456.517259	687.0
1457.040819	690.0
1457.564324	688.75
1458.087773	687.5
1458.611168	683.75
1459.134508	687.75
1459.657793	686.25
1460.181022	692.75
1460.704197	690.5
1461.227316	689.25
1461.750381	690.25
1462.27339	692.25
1462.796345	709.5
1463.319244	721.75
1463.842089	692.75
1464.364878	685.25
1464.887613	685.25
1465.410292	683.25
1465.932916	688.5
1466.455486	689.25
1466.978	685.75
1467.50046	688.75
1468.022864	688.75
1468.545214	689.75
1469.067508	685.25
1469.589748	687.25
1470.111932	687.75
1470.634062	685.25
1471.156136	686.25
1471.678156	688.5
1472.20012	687.0
1472.72203	687.0
1473.243885	688.75
1473.765685	691.0
1474.28743	687.75
1474.80912	691.5
1475.330755	688.0
1475.852335	689.0
1476.37386	686.5
1476.89533	684.75
1477.416745	687.25
1477.938106	685.75
1478.459411	683.75
1478.980662	686.75
1479.501857	688.75
1480.022998	684.25
1480.544084	688.5
1481.065115	687.75
1481.586091	685.25
1482.107012	684.0
1482.627878	686.25
1483.14869	684.25
1483.669446	684.25
1484.190148	686.75
1484.710794	685.25
1485.231386	684.75
1485.751923	685.75
1486.272406	686.25
1486.792833	688.25
1487.313205	687.75
1487.833523	685.5
1488.353786	685.0
1488.873994	683.5
1489.394147	685.25
1489.914245	687.75
1490.434288	690.25
1490.954277	691.25
1491.474211	687.75
1491.99409	685.75
1492.513914	689.0
1493.033683	687.75
1493.553398	687.5
1494.073057	686.5
1494.592662	690.0
1495.112212	684.25
1495.631708	689.0
1496.151148	686.75
1496.670534	688.5
1497.189865	687.75
1497.709141	688.25
1498.228362	689.75
1498.747529	684.0
1499.266641	688.25
1499.785698	696.0
1500.3047	688.25
1500.823648	688.0
1501.34254	687.0
1501.861379	685.5
1502.380162	686.5
1502.89889	686.25
1503.417564	684.5
1503.936183	686.75
1504.454748	683.75
1504.973257	686.25
1505.491712	686.25
1506.010112	684.5
1506.528458	685.25
1507.046748	683.75
1507.564984	685.5
1508.083166	682.5
1508.601292	687.75
1509.119364	686.0
1509.637381	686.25
1510.155344	682.5
1510.673252	699.75
1511.191105	685.25
1511.708903	683.0
1512.226647	682.75
1512.744336	693.75
1513.261971	685.5
1513.77955	686.0
1514.297076	686.5
1514.814546	688.0
1515.331962	686.25
1515.849323	684.5
1516.366629	688.0
1516.883881	688.25
1517.401078	690.0
1517.918221	685.25
1518.435309	687.75
1518.952342	691.5
1519.469321	689.5
1519.986245	686.5
1520.503114	686.75
1521.019929	688.75
1521.536689	685.75
1522.053395	687.5
1522.570046	687.0
1523.086642	684.0
1523.603184	684.75
1524.119671	686.5
1524.636103	685.0
1525.152481	684.75
1525.668805	696.75
1526.701288	700.25
1527.217447	685.5
1527.733552	681.75
1528.249603	686.5
1528.765599	685.0
1529.28154	687.25
1529.797427	686.25
1530.313259	687.5
1530.829037	683.5
1531.34476	688.25
1531.860429	685.75
1532.376043	685.75
1532.891602	686.5
1533.407107	682.5
1533.922558	687.0
1534.437954	689.25
1534.953295	686.5
1535.468582	687.0
1535.983815	687.75
1536.498993	688.5
1537.014116	687.75
1537.529185	686.75
1538.044199	686.0
1538.559159	687.75
1539.074064	692.75
1539.588915	690.0
1540.103712	690.5
1540.618454	690.25
1541.133141	686.75
1541.647774	687.0
1542.162353	685.75
1542.676877	686.0
1543.191346	686.5
1543.705761	689.75
1544.220122	688.25
1544.734428	693.5
1545.24868	690.0
1545.762877	688.75
1546.27702	688.75
1546.791109	687.5
1547.305143	688.0
1547.819122	686.25
1548.333047	683.75
1548.846918	687.25
1549.360734	688.0
1549.874496	693.0
1550.388204	687.25
1550.901857	689.25
1551.415455	686.25
1551.929	685.25
1552.442489	691.0
1552.955925	689.25
1553.469306	689.75
1553.982632	691.75
1554.495905	686.25
1555.009123	688.75
1555.522286	686.25
1556.035395	687.25
1556.54845	689.75
1557.06145	691.75
1557.574396	686.25
1558.087288	685.25
1558.600125	695.0
1559.112908	689.5
1559.625637	687.5
1560.138311	687.25
1560.650931	690.5
1561.163497	689.0
1561.676008	689.0
1562.188465	692.25
1562.700867	687.5
1563.213216	691.25
1563.725509	692.0
1564.237749	688.5
1564.749934	688.0
1565.262065	689.75
1565.774142	691.0
1566.286164	690.75
1566.798132	692.75
1567.310046	692.5
1567.821906	695.25
1568.333711	692.75
1568.845462	696.0
1569.357158	692.75
1569.868801	692.25
1570.380389	685.25
1570.891922	691.0
1571.403402	692.25
1571.914827	689.25
1572.426198	689.5
1572.937515	692.5
1573.448777	689.75
1573.959985	686.5
1574.471139	689.25
1574.982239	688.5
1575.493285	692.5
1576.004276	691.5
1576.515213	685.75
1577.026096	688.5
1577.536924	690.25
1578.047698	691.5
1578.558419	687.25
1579.069084	692.25
1579.579696	698.25
1580.090254	689.75
1580.600757	693.0
1581.111206	691.75
1581.621601	691.25
1582.131941	694.0
1582.642228	691.75
1583.15246	688.5
1583.662638	690.5
1584.172762	691.5
1584.682832	690.0
1585.192847	691.75
1585.702809	692.0
1586.212716	691.25
1586.722569	693.0
1587.232368	689.0
1587.742113	690.25
1588.251803	688.25
1588.76144	690.25
1589.271022	689.25
1589.78055	687.75
1590.290024	694.25
1590.799444	691.0
1591.30881	689.0
1591.818121	688.75
1592.327379	689.75
