1042.452273	680.4000244
1043.018714	681.2000122
1043.585098	683.4000244
1044.151424	683.2000122
1044.717692	682.4000244
1045.283903	685.0
1045.850056	678.7999878
1046.416151	680.0
1046.982188	678.0
1047.548167	681.4000244
1048.114089	676.5999756
1048.679953	676.2000122
1049.24576	679.5999756
1049.811509	679.5999756
1050.3772	681.4000244
1050.942833	680.0
1051.508408	678.5999756
1052.073926	681.0
1052.639387	679.2000122
1053.204789	678.5999756
1053.770134	680.0
1054.335421	677.4000244
1054.900651	677.2000122
1055.465823	678.2000122
1056.030937	676.5999756
1056.595993	675.2000122
1057.160992	679.7999878
1057.725934	675.4000244
1058.290817	677.0
1058.855643	673.7999878
1059.420411	673.7999878
1059.985122	680.0
1060.549775	676.4000244
1061.114371	676.2000122
1061.678908	672.5999756
1062.243389	675.7999878
1062.807811	677.7999878
1063.372176	675.5999756
1063.936483	677.7999878
1064.500733	673.5999756
1065.064925	676.5999756
1065.62906	676.7999878
1066.193137	675.2000122
1066.757156	675.2000122
1067.321118	674.0
1067.885022	679.0
1068.448869	675.0
1069.012658	678.4000244
1069.57639	673.5999756
1070.140063	681.5999756
1070.70368	677.2000122
1071.267239	676.0
1071.83074	674.7999878
1072.394184	679.0
1072.95757	675.2000122
1073.520899	676.2000122
1074.08417	677.7999878
1074.647383	678.2000122
1075.21054	675.5999756
1075.773638	676.2000122
1076.336679	675.0
1076.899663	674.7999878
1077.462589	675.4000244
1078.025457	673.7999878
1078.588268	676.4000244
1079.151022	675.7999878
1079.713718	675.5999756
1080.276356	675.0
1080.838937	676.2000122
1081.401461	677.7999878
1081.963927	675.5999756
1082.526336	679.4000244
1083.088687	675.2000122
1083.650981	673.4000244
1084.213217	678.0
1084.775396	677.4000244
1085.337517	676.2000122
1085.899581	675.7999878
1086.461587	676.5999756
1087.023536	675.4000244
1087.585428	676.4000244
1088.147262	677.2000122
1088.709039	677.4000244
1089.270758	676.5999756
1089.83242	675.2000122
1090.394024	672.7999878
1090.955571	674.7999878
1091.517061	677.7999878
1092.078493	676.4000244
1092.639868	677.7999878
1093.201185	677.7999878
1093.762445	677.4000244
1094.323648	675.7999878
1094.884793	671.5999756
1095.445881	685.0
1096.006911	675.2000122
1096.567884	676.5999756
1097.1288	679.2000122
1097.689659	674.4000244
1098.25046	677.4000244
1098.811203	676.0
1099.37189	676.0
1099.932518	679.4000244
1100.49309	675.5999756
1101.053604	678.5999756
1101.614061	674.0
1102.174461	676.5999756
1102.734803	675.5999756
1103.295088	679.2000122
1103.855316	678.7999878
1104.415486	674.2000122
1104.975599	677.4000244
1105.535655	675.5999756
1106.095653	675.2000122
1106.655594	677.7999878
1107.215478	676.7999878
1107.775305	675.7999878
1108.335074	678.2000122
1108.894786	677.0
1109.45444	678.4000244
1110.014038	678.2000122
1110.573578	675.4000244
1111.133061	682.4000244
1111.692486	677.7999878
1112.251854	681.2000122
1112.811165	678.7999878
1113.370419	677.2000122
1113.929616	676.4000244
1114.488755	679.5999756
1115.047837	677.0
1115.606862	680.5999756
1116.16583	680.0
1116.72474	676.2000122
1117.283593	678.7999878
1117.842389	679.7999878
1118.401128	676.7999878
1118.959809	678.7999878
1119.518433	677.7999878
1120.077	674.7999878
1120.63551	676.4000244
1121.193963	674.7999878
1121.752358	674.0
1122.310697	675.0
1122.868978	679.2000122
1123.427202	676.7999878
1123.985368	677.4000244
1124.543478	676.7999878
1125.10153	676.0
1125.659526	678.2000122
1126.217464	674.7999878
1126.775345	676.2000122
1127.333168	675.2000122
1127.890935	674.5999756
1128.448644	672.4000244
1129.006297	677.7999878
1129.563892	673.4000244
1130.12143	678.4000244
1130.678911	674.7999878
1131.236335	677.0
1131.793701	678.4000244
1132.351011	675.4000244
1132.908263	675.5999756
1133.465458	675.4000244
1134.022597	678.0
1134.579678	676.5999756
1135.136702	679.0
1135.693669	674.2000122
1136.250578	675.4000244
1136.807431	675.2000122
1137.364227	674.5999756
1137.920965	674.4000244
1138.477647	672.7999878
1139.034271	675.2000122
1139.590839	676.0
1140.147349	677.5999756
1140.703802	672.4000244
1141.260198	676.0
1141.816537	677.2000122
1142.37282	674.5999756
1142.929045	674.7999878
1143.485213	676.0
1144.041323	674.7999878
1144.597377	674.7999878
1145.153374	676.4000244
1145.709314	675.2000122
1146.265197	674.2000122
1146.821023	673.5999756
1147.376792	675.0
1147.932503	673.4000244
1148.488158	677.0
1149.043756	671.5999756
1149.599297	676.7999878
1150.154781	676.7999878
1150.710207	676.2000122
1151.265577	673.2000122
1151.82089	675.0
1152.376146	675.7999878
1152.931345	676.5999756
1153.486487	674.2000122
1154.041572	675.0
1154.5966	677.0
1155.151571	676.5999756
1155.706485	675.0
1156.261342	675.4000244
1156.816142	676.0
1157.370885	677.4000244
1157.925572	675.0
1158.480201	676.2000122
1159.034774	676.7999878
1159.589289	677.0
1160.143748	675.2000122
1160.698149	674.5999756
1161.252494	674.2000122
1161.806782	677.0
1162.361013	676.2000122
1162.915187	678.5999756
1163.469304	674.2000122
1164.023364	673.0
1164.577368	679.5999756
1165.131314	676.4000244
1165.685204	676.0
1166.239036	675.5999756
1166.792812	676.7999878
1167.346531	675.0
1167.900193	674.0
1168.453798	677.0
1169.007347	674.5999756
1169.560838	677.2000122
1170.114273	677.4000244
1170.66765	676.4000244
1171.220971	677.4000244
1171.774235	677.2000122
1172.327443	675.4000244
1172.880593	676.5999756
1173.433687	675.7999878
1173.986723	676.4000244
1174.539703	679.2000122
1175.092626	673.5999756
1175.645493	677.4000244
1176.198302	676.7999878
1176.751055	677.2000122
1177.303751	674.7999878
1177.85639	676.0
1178.408972	674.7999878
1178.961498	676.7999878
1179.513966	678.0
1180.066378	674.4000244
1180.618733	676.4000244
1181.171032	678.2000122
1181.723273	674.7999878
1182.275458	677.5999756
1182.827586	677.0
1183.379657	678.0
1183.931672	676.7999878
1184.48363	676.0
1185.035531	679.4000244
1185.587375	681.4000244
1186.139162	673.4000244
1186.690893	678.2000122
1187.242567	680.5999756
1187.794184	678.2000122
1188.345745	680.2000122
1188.897249	677.2000122
1189.448696	673.4000244
1190.000086	676.2000122
1190.55142	676.2000122
1191.102697	677.2000122
1191.653918	674.7999878
1192.205081	674.4000244
1192.756188	673.7999878
1193.307238	694.7999878
1193.858232	679.4000244
1194.409169	675.4000244
1194.960049	676.4000244
1195.510872	670.4000244
1196.061639	676.5999756
1196.612349	677.2000122
1197.163003	673.7999878
1197.713599	675.5999756
1198.264139	676.7999878
1198.814623	674.0
1199.36505	676.2000122
1199.91542	676.0
1200.465734	675.7999878
1201.01599	674.7999878
1201.566191	676.4000244
1202.116334	675.5999756
1202.666421	675.5999756
1203.216452	676.0
1203.766425	677.0
1204.316343	680.2000122
1204.866203	674.2000122
1205.416007	679.0
1205.965754	675.7999878
1206.515445	674.5999756
1207.065079	680.0
1207.614657	677.0
1208.164177	674.7999878
1208.713642	675.4000244
1209.26305	678.5999756
1209.812401	676.5999756
1210.361695	678.2000122
1210.910933	675.4000244
1211.460115	671.7999878
1212.00924	678.0
1212.558308	675.4000244
1213.10732	678.2000122
1213.656275	676.4000244
1214.205174	677.5999756
1214.754016	679.5999756
1215.302801	676.0
1215.85153	679.5999756
1216.400203	677.5999756
1216.948819	678.5999756
1217.497378	680.0
1218.045881	676.5999756
1218.594327	678.4000244
1219.142717	677.7999878
1219.691051	676.0
1220.239327	677.4000244
1220.787548	679.0
1221.335712	674.4000244
1221.883819	676.5999756
1222.43187	680.2000122
1222.979864	682.0
1223.527802	678.5999756
1224.075683	676.0
1224.623508	676.2000122
1225.171277	681.7999878
1225.718989	675.5999756
1226.266644	678.7999878
1226.814243	676.4000244
1227.361786	679.7999878
1227.909272	678.5999756
1228.456702	675.2000122
1229.004075	676.0
1229.551392	679.0
1230.098652	675.2000122
1230.645856	676.0
1231.193003	683.0
1231.740094	680.4000244
1232.287129	677.2000122
1232.834107	674.2000122
1233.381029	680.0
1233.927894	679.7999878
1234.474703	677.2000122
1235.021455	681.7999878
1235.568151	676.4000244
1236.114791	680.7999878
1236.661374	676.5999756
1237.207901	678.5999756
1237.754372	679.4000244
1238.300786	678.5999756
1238.847144	677.7999878
1239.393445	674.7999878
1239.93969	676.5999756
1240.485879	678.0
1241.032011	680.2000122
1241.578087	679.5999756
1242.124106	681.2000122
1242.67007	676.4000244
1243.215976	678.4000244
1243.761827	677.5999756
1244.307621	679.5999756
1244.853359	678.7999878
1245.39904	678.0
1245.944665	681.0
1246.490234	675.7999878
1247.035746	680.4000244
1247.581203	683.7999878
1248.126602	678.5999756
1248.671946	678.5999756
1249.217233	680.2000122
1249.762464	681.0
1250.307638	680.2000122
1250.852757	678.7999878
1251.397819	679.2000122
1251.942824	679.4000244
1252.487774	681.7999878
1253.032667	679.0
1253.577503	681.7999878
1254.122284	680.0
1254.667008	679.2000122
1255.211676	675.0
1255.756288	680.7999878
1256.300843	678.4000244
1256.845342	677.5999756
1257.389785	681.2000122
1257.934172	683.4000244
1258.478502	679.7999878
1259.022776	681.5999756
1259.566994	681.0
1260.111156	695.7999878
1260.655261	685.2000122
1261.199311	686.2000122
1261.743304	687.4000244
1262.28724	684.4000244
1262.831121	691.4000244
1263.374945	695.0
1263.918713	695.7999878
1264.462425	695.4000244
1265.006081	693.7999878
1265.54968	684.2000122
1266.093223	682.4000244
1266.636711	681.2000122
1267.180141	680.5999756
1267.723516	682.4000244
1268.266835	679.7999878
1268.810097	681.4000244
1269.353303	683.4000244
1269.896453	679.4000244
1270.439547	679.4000244
1270.982584	677.7999878
1271.525566	680.4000244
1272.068491	682.2000122
1272.61136	680.0
1273.154173	683.0
1273.69693	682.4000244
1274.239631	682.0
1274.782275	681.0
1275.324864	681.5999756
1275.867396	680.2000122
1276.409872	684.0
1276.952292	682.4000244
1277.494656	683.4000244
1278.036964	681.0
1278.579215	686.7999878
1279.121411	687.0
1279.66355	686.7999878
1280.205634	688.7999878
1280.747661	697.2000122
1281.289632	701.7999878
1281.831547	719.5999756
1282.373406	745.5999756
1282.915209	807.2000122
1283.456955	884.2000122
1283.998646	953.4000244
1284.540281	928.4000244
1285.081859	828.5999756
1285.623381	753.0
1286.164848	715.2000122
1286.706258	698.4000244
1287.247612	694.5999756
1287.788911	688.4000244
1288.330153	689.4000244
1288.871339	690.4000244
1289.412469	685.5999756
1289.953543	686.5999756
1290.494561	683.0
1291.035523	684.2000122
1291.576428	684.0
1292.117278	686.2000122
1292.658072	684.4000244
1293.19881	681.2000122
1293.739492	682.2000122
1294.280118	685.4000244
1294.820687	681.2000122
1295.361201	683.7999878
1295.901659	683.0
1296.442061	682.5999756
1296.982406	683.0
1297.522696	681.0
1298.06293	679.5999756
1298.603108	681.5999756
1299.143229	684.5999756
1299.683295	683.2000122
1300.223305	681.5999756
1300.763259	680.4000244
1301.303157	681.5999756
1301.842999	679.4000244
1302.382785	681.2000122
1302.922515	680.5999756
1303.462189	679.2000122
1304.001807	681.2000122
1304.541369	680.7999878
1305.080875	682.0
1305.620326	678.4000244
1306.15972	677.5999756
1306.699058	676.7999878
1307.238341	680.4000244
1307.777567	681.5999756
1308.316738	678.4000244
1308.855853	679.2000122
1309.394912	679.2000122
1309.933915	681.4000244
1310.472862	679.2000122
1311.011753	682.4000244
1311.550588	679.2000122
1312.089367	681.7999878
1312.62809	679.5999756
1313.166758	681.7999878
1313.70537	679.5999756
1314.243925	680.4000244
1314.782425	681.0
1315.320869	678.0
1315.859257	677.7999878
1316.397589	679.5999756
1316.935866	678.0
1317.474086	677.5999756
1318.012251	679.4000244
1318.55036	679.2000122
1319.088413	678.5999756
1319.62641	676.0
1320.164351	676.5999756
1320.702236	681.2000122
1321.240066	679.4000244
1321.777839	680.7999878
1322.315557	679.2000122
1322.853219	678.2000122
1323.390826	676.0
1323.928376	681.5999756
1324.465871	678.4000244
1325.003309	677.0
1325.540692	681.2000122
1326.07802	680.7999878
1326.615291	678.5999756
1327.152506	678.5999756
1327.689666	678.5999756
1328.22677	679.2000122
1328.763818	679.4000244
1329.300811	677.4000244
1329.837747	680.0
1330.374628	676.7999878
1330.911453	676.7999878
1331.448222	676.7999878
1331.984936	676.2000122
1332.521594	678.7999878
1333.058196	678.4000244
1333.594742	680.4000244
1334.131232	679.2000122
1334.667667	680.7999878
1335.204046	679.4000244
1335.740369	679.5999756
1336.276637	676.4000244
1336.812848	679.5999756
1337.349004	678.0
1337.885105	678.2000122
1338.421149	679.7999878
1338.957138	674.7999878
1339.493071	680.5999756
1340.028949	679.0
1340.56477	675.5999756
1341.100536	677.4000244
1341.636246	680.0
1342.171901	679.0
1342.7075	682.2000122
1343.243043	675.0
1343.77853	679.5999756
1344.313962	679.2000122
1344.849338	680.5999756
1345.384659	678.5999756
1345.919923	673.4000244
1346.455133	679.4000244
1346.990286	681.0
1347.525384	680.4000244
1348.060426	678.5999756
1348.595412	676.0
1349.130343	680.0
1349.665218	676.4000244
1350.200037	679.7999878
1350.734801	678.7999878
1351.269509	678.2000122
1351.804162	677.5999756
1352.338758	678.7999878
1352.8733	679.5999756
1353.407785	680.4000244
1353.942215	676.0
1354.476589	677.0
1355.010908	679.2000122
1355.545171	678.7999878
1356.079379	681.0
1356.61353	679.2000122
1357.147627	677.5999756
1357.681667	679.5999756
1358.215652	677.4000244
1358.749582	676.5999756
1359.283456	679.7999878
1359.817274	681.4000244
1360.351037	680.5999756
1360.884744	678.7999878
1361.418395	678.0
1361.951991	679.2000122
1362.485531	682.4000244
1363.019016	678.4000244
1363.552445	685.0
1364.085819	682.0
1364.619137	682.7999878
1365.1524	684.0
1365.685607	685.0
1366.218758	683.5999756
1366.751854	678.5999756
1367.284894	681.2000122
1367.817879	680.4000244
1368.350808	679.4000244
1368.883682	684.2000122
1369.4165	686.4000244
1369.949263	692.7999878
1370.48197	690.0
1371.014622	684.0
1371.547218	681.0
1372.079758	680.0
1372.612244	680.7999878
1373.144673	681.5999756
1373.677047	683.2000122
1374.209366	680.4000244
1374.741629	682.4000244
1375.273836	683.2000122
1375.805989	684.4000244
1376.338085	682.0
1376.870126	682.7999878
1377.402112	681.7999878
1377.934042	683.4000244
1378.465917	680.7999878
1378.997736	685.5999756
1379.5295	681.0
1380.061208	686.2000122
1380.592861	683.5999756
1381.124459	685.7999878
1381.656	686.7999878
1382.187487	688.5999756
1382.718918	685.4000244
1383.250294	690.7999878
1383.781614	692.5999756
1384.312879	696.4000244
1384.844088	699.7999878
1385.375242	710.5999756
1385.90634	725.7999878
1386.437383	775.2000122
1386.968371	879.0
1387.499303	1084.400024
1388.03018	1256.0
1388.561001	1093.400024
1389.091767	862.7999878
1389.622478	751.2000122
1390.153133	719.2000122
1390.683733	703.4000244
1391.214277	697.0
1391.744766	693.2000122
1392.2752	690.7999878
1392.805578	686.4000244
1393.335901	685.2000122
1393.866168	685.0
1394.396381	686.2000122
1394.926537	682.7999878
1395.456639	684.4000244
1395.986685	683.5999756
1396.516675	682.0
1397.046611	685.7999878
1397.576491	681.5999756
1398.106315	682.2000122
1398.636084	684.0
1399.165798	685.0
1399.695457	685.2000122
1400.22506	684.7999878
1400.754608	681.5999756
1401.284101	681.0
1401.813538	682.4000244
1402.34292	683.0
1402.872247	682.4000244
1403.401518	683.2000122
1403.930734	682.0
1404.459895	682.0
1404.989	683.7999878
1405.51805	685.0
1406.047045	682.2000122
1406.575984	688.7999878
1407.104869	689.4000244
1407.633697	689.2000122
1408.162471	691.4000244
1408.691189	699.5999756
1409.219852	705.5999756
1409.74846	706.4000244
1410.277013	701.2000122
1410.80551	695.5999756
1411.333952	686.4000244
1411.862339	685.5999756
1412.39067	682.4000244
1412.918946	684.2000122
1413.447167	681.2000122
1413.975333	683.0
1414.503444	678.4000244
1415.031499	680.2000122
1415.559499	691.7999878
1416.087444	678.2000122
1416.615333	681.0
1417.143167	678.7999878
1417.670947	680.4000244
1418.19867	679.0
1418.726339	674.5999756
1419.253952	676.4000244
1419.781511	682.7999878
1420.309014	678.2000122
1420.836461	677.0
1421.363854	681.2000122
1421.891191	682.5999756
1422.418474	677.0
1422.945701	678.7999878
1423.472872	681.0
1423.999989	679.7999878
1424.52705	676.5999756
1425.054057	675.2000122
1425.581008	677.4000244
1426.107904	675.7999878
1426.634745	683.7999878
1428.741556	681.0
1429.268121	676.5999756
1429.794631	680.4000244
1430.321085	678.4000244
1430.847485	679.7999878
1431.373829	681.5999756
1431.900118	675.7999878
1432.426353	676.5999756
1432.952532	680.5999756
1433.478655	679.4000244
1434.004724	673.5999756
1434.530738	680.7999878
1435.056696	677.7999878
1435.5826	679.2000122
1436.108448	678.2000122
1436.634241	676.7999878
1437.159979	677.0
1437.685662	679.2000122
1438.21129	678.0
1438.736863	680.0
1439.262381	676.0
1439.787843	675.5999756
1440.313251	677.5999756
1440.838603	678.7999878
1441.3639	677.5999756
1441.889143	677.5999756
1442.41433	677.7999878
1442.939462	675.5999756
1443.464539	677.7999878
1443.989561	675.2000122
1444.514528	678.0
1445.03944	678.5999756
1445.564297	681.0
1446.089099	676.2000122
1446.613846	678.0
1447.138537	679.7999878
1447.663174	679.5999756
1448.187756	681.4000244
1448.712282	676.4000244
1449.236754	678.2000122
1449.761171	676.7999878
1450.285532	675.4000244
1450.809839	675.2000122
1451.33409	679.7999878
1451.858287	675.7999878
1452.382428	680.0
1452.906515	678.2000122
1453.430546	681.4000244
1453.954523	675.4000244
1454.478444	673.4000244
1455.002311	677.4000244
1455.526123	678.0
1456.049879	676.2000122
1456.573581	677.0
1457.097227	675.4000244
1457.620819	679.7999878
1458.144356	679.4000244
1458.667837	676.0
1459.191264	682.5999756
1459.714636	679.2000122
1460.237952	677.0
1460.761214	673.5999756
1461.284421	679.7999878
1461.807573	679.5999756
1462.33067	679.4000244
1462.853712	680.5999756
1463.376699	681.2000122
1463.899632	677.0
1464.422509	679.0
1464.945331	678.4000244
1465.468099	677.7999878
1465.990811	680.0
1466.513469	678.7999878
1467.036071	677.4000244
1467.558619	678.0
1468.081112	677.7999878
1468.60355	675.5999756
1469.125933	677.2000122
1469.648261	679.2000122
1470.170534	676.7999878
1470.692752	676.4000244
1471.214916	676.5999756
1471.737024	676.7999878
1472.259078	674.7999878
1472.781077	676.2000122
1473.303021	677.5999756
1473.82491	676.2000122
1474.346744	672.4000244
1474.868523	675.5999756
1475.390248	677.2000122
1475.911917	675.7999878
1476.433532	676.5999756
1476.955092	678.7999878
1477.476597	675.4000244
1477.998047	676.7999878
1478.519442	677.4000244
1479.040783	676.7999878
1479.562068	676.2000122
1480.083299	677.0
1480.604475	678.7999878
1481.125596	677.2000122
1481.646663	675.2000122
1482.167674	674.4000244
1482.688631	676.2000122
1483.209533	677.7999878
1483.73038	677.7999878
1484.251172	674.7999878
1484.771909	674.7999878
1485.292592	676.0
1485.81322	678.4000244
1486.333793	675.2000122
1486.854311	673.7999878
1487.374775	675.5999756
1487.895183	677.4000244
1488.415537	676.7999878
1488.935836	672.5999756
1489.456081	675.2000122
1489.97627	676.2000122
1490.496405	677.4000244
1491.016485	675.5999756
1491.536511	674.2000122
1492.056481	677.4000244
1492.576397	675.2000122
1493.096258	679.5999756
1493.616064	674.7999878
1494.135816	676.2000122
1494.655513	674.5999756
1495.175155	672.7999878
1495.694742	673.7999878
1496.214274	677.4000244
1496.733752	674.7999878
1497.253175	674.2000122
1497.772544	676.2000122
1498.291858	674.4000244
1498.811116	677.7999878
1499.330321	676.2000122
1499.84947	681.0
1500.368565	676.2000122
1500.887605	673.2000122
1501.406591	675.7999878
1501.925521	677.5999756
1502.444397	673.7999878
1502.963219	676.4000244
1503.481985	672.5999756
1504.000697	675.0
1504.519355	676.2000122
1505.037957	673.2000122
1505.556505	674.7999878
1506.074999	674.0
1506.593437	674.5999756
1507.111821	673.2000122
1507.63015	674.7999878
1508.148425	679.2000122
1508.666645	677.2000122
1509.18481	675.7999878
1509.702921	674.5999756
1510.220977	676.2000122
1510.738979	680.4000244
1511.256925	675.7999878
1511.774817	674.4000244
1512.292655	676.0
1512.810438	672.5999756
1513.328166	675.5999756
1513.84584	674.7999878
1514.363459	675.7999878
1514.881023	674.5999756
1515.398533	676.5999756
1515.915988	674.4000244
1516.433389	673.7999878
1516.950734	673.4000244
1517.468026	674.7999878
1517.985263	676.4000244
1518.502445	677.0
1519.019572	674.4000244
1519.536645	677.4000244
1520.053664	675.5999756
1520.570628	678.5999756
1521.087537	677.5999756
1521.604392	676.7999878
1522.121192	674.0
1522.637937	675.7999878
1523.154628	676.0
1523.671265	673.7999878
1524.187847	677.7999878
1524.704374	674.0
1525.220847	675.0
1525.737265	674.7999878
1526.253629	678.2000122
1526.769938	676.7999878
1527.286192	672.0
1527.802392	669.2000122
1528.318538	675.2000122
1528.834629	669.5999756
1529.350666	676.7999878
1529.866648	675.5999756
1530.382575	672.0
1530.898448	674.5999756
1531.414266	677.0
1531.93003	675.4000244
1532.44574	671.5999756
1532.961395	675.7999878
1533.476995	676.0
1533.992541	676.5999756
1534.508033	670.7999878
1535.02347	678.5999756
1535.538852	673.0
1536.05418	675.2000122
1536.569454	674.5999756
1537.084673	674.4000244
1537.599837	677.4000244
1538.114947	676.7999878
1538.630003	674.5999756
1539.145004	673.5999756
1539.659951	674.5999756
1540.174843	674.0
1540.689681	677.4000244
1541.204465	675.4000244
1541.719194	677.7999878
1542.233868	673.0
1542.748488	676.5999756
1543.263054	674.0
1543.777565	674.7999878
1544.292022	672.0
1544.806424	672.7999878
1545.320772	674.7999878
1545.835066	674.5999756
1546.349305	674.4000244
1546.863489	676.4000244
1547.37762	671.7999878
1547.891696	675.4000244
1548.405717	678.7999878
1548.919684	677.5999756
1549.433597	676.2000122
1549.947455	676.5999756
1550.461259	677.5999756
1550.975009	675.4000244
1551.488704	677.2000122
1552.002345	674.7999878
1552.515931	675.0
1553.029463	676.4000244
1553.542941	675.5999756
1554.056364	678.7999878
1554.569733	673.5999756
1555.083048	672.0
1555.596308	673.4000244
1556.109514	675.5999756
1556.622665	675.2000122
1557.135762	673.2000122
1557.648805	676.2000122
1558.161794	675.4000244
1558.674728	675.2000122
1559.187608	672.4000244
1559.700433	673.5999756
1560.213205	674.7999878
1560.725921	675.5999756
1561.238584	675.5999756
1561.751192	674.0
1562.263746	675.7999878
1562.776246	673.7999878
1563.288691	676.5999756
1563.801082	676.4000244
1564.313419	674.2000122
1564.825701	677.4000244
1565.337929	676.4000244
1565.850103	676.2000122
1566.362223	674.5999756
1566.874288	676.2000122
1567.386299	675.4000244
1567.898256	677.5999756
1568.410158	675.4000244
1568.922007	674.5999756
1569.4338	675.5999756
1569.94554	677.7999878
1570.457226	676.5999756
1570.968857	677.2000122
1571.480434	675.0
1571.991956	677.5999756
1572.503425	677.2000122
1573.014839	674.4000244
1573.526199	674.7999878
1574.037505	672.2000122
1574.548756	674.7999878
1575.059953	675.5999756
1575.571096	674.4000244
1576.082185	677.2000122
1576.59322	675.0
1577.1042	674.2000122
1577.615126	675.4000244
1578.125998	676.5999756
1578.636816	673.5999756
1579.14758	675.5999756
1579.658289	674.4000244
1580.168944	675.4000244
1580.679545	676.7999878
1581.190092	674.2000122
1581.700585	676.7999878
1582.211023	678.0
1582.721407	676.7999878
1583.231737	677.0
1583.742013	675.0
1584.252235	677.2000122
1584.762403	678.0
1585.272516	674.7999878
1585.782575	673.5999756
1586.292581	675.2000122
1586.802532	679.7999878
1587.312428	675.0
1587.822271	673.5999756
1588.33206	679.0
1588.841794	674.4000244
1589.351474	674.5999756
1589.8611	674.7999878
1590.370672	674.7999878
1590.88019	677.0
1591.389654	675.5999756
1591.899064	673.7999878
1592.408419	672.5999756
