1042.452273	681.7999878
1043.018714	681.0
1043.585098	681.2000122
1044.151424	685.5999756
1044.717692	681.0
1045.283903	676.7999878
1045.850056	678.5999756
1046.416151	679.4000244
1046.982188	682.7999878
1047.548167	679.2000122
1048.114089	678.2000122
1048.679953	675.7999878
1049.24576	676.4000244
1049.811509	676.5999756
1050.3772	676.2000122
1050.942833	676.2000122
1051.508408	678.5999756
1052.073926	677.0
1052.639387	677.2000122
1053.204789	678.5999756
1053.770134	676.4000244
1054.335421	678.2000122
1054.900651	678.4000244
1055.465823	674.5999756
1056.030937	677.0
1056.595993	678.0
1057.160992	678.2000122
1057.725934	677.0
1058.290817	675.4000244
1058.855643	678.0
1059.420411	674.2000122
1059.985122	676.4000244
1060.549775	674.4000244
1061.114371	676.0
1061.678908	675.5999756
1062.243389	678.7999878
1062.807811	676.2000122
1063.372176	680.7999878
1063.936483	676.2000122
1064.500733	675.2000122
1065.064925	677.7999878
1065.62906	675.5999756
1066.193137	674.2000122
1066.757156	674.5999756
1067.321118	679.2000122
1067.885022	677.0
1068.448869	673.0
1069.012658	680.2000122
1069.57639	676.2000122
1070.140063	683.0
1070.70368	678.2000122
1071.267239	676.0
1071.83074	675.0
1072.394184	677.2000122
1072.95757	674.4000244
1073.520899	674.7999878
1074.08417	674.0
1074.647383	674.4000244
1075.21054	673.0
1075.773638	672.7999878
1076.336679	676.5999756
1076.899663	676.5999756
1077.462589	676.7999878
1078.025457	674.5999756
1078.588268	673.5999756
1079.151022	675.0
1079.713718	677.2000122
1080.276356	673.4000244
1080.838937	673.4000244
1081.401461	675.2000122
1081.963927	674.0
1082.526336	678.2000122
1083.088687	678.4000244
1083.650981	675.5999756
1084.213217	678.4000244
1084.775396	674.2000122
1085.337517	677.4000244
1085.899581	674.4000244
1086.461587	673.2000122
1087.023536	675.2000122
1087.585428	677.0
1088.147262	674.0
1088.709039	676.7999878
1089.270758	674.4000244
1089.83242	674.0
1090.394024	672.5999756
1090.955571	677.0
1091.517061	674.7999878
1092.078493	676.7999878
1092.639868	673.7999878
1093.201185	672.4000244
1093.762445	673.5999756
1094.323648	675.2000122
1094.884793	677.7999878
1095.445881	687.5999756
1096.006911	675.4000244
1096.567884	677.5999756
1097.1288	680.0
1097.689659	675.7999878
1098.25046	674.5999756
1098.811203	674.2000122
1099.37189	676.4000244
1099.932518	674.2000122
1100.49309	676.5999756
1101.053604	676.7999878
1101.614061	674.7999878
1102.174461	677.5999756
1102.734803	676.0
1103.295088	673.7999878
1103.855316	672.7999878
1104.415486	677.0
1104.975599	674.7999878
1105.535655	675.7999878
1106.095653	680.0
1106.655594	678.2000122
1107.215478	675.0
1107.775305	678.2000122
1108.335074	681.0
1108.894786	675.7999878
1109.45444	679.4000244
1110.014038	678.0
1110.573578	679.2000122
1111.133061	679.4000244
1111.692486	679.5999756
1112.251854	682.5999756
1112.811165	677.7999878
1113.370419	675.4000244
1113.929616	679.0
1114.488755	676.0
1115.047837	678.2000122
1115.606862	677.0
1116.16583	681.2000122
1116.72474	680.0
1117.283593	677.7999878
1117.842389	676.5999756
1118.401128	678.5999756
1118.959809	674.2000122
1119.518433	677.5999756
1120.077	676.0
1120.63551	676.2000122
1121.193963	674.0
1121.752358	675.0
1122.310697	671.5999756
1122.868978	674.5999756
1123.427202	673.5999756
1123.985368	676.7999878
1124.543478	672.2000122
1125.10153	675.7999878
1125.659526	673.0
1126.217464	678.0
1126.775345	673.0
1127.333168	674.7999878
1127.890935	675.7999878
1128.448644	673.7999878
1129.006297	676.5999756
1129.563892	673.0
1130.12143	671.4000244
1130.678911	671.2000122
1131.236335	674.7999878
1131.793701	675.7999878
1132.351011	675.2000122
1132.908263	673.4000244
1133.465458	674.7999878
1134.022597	677.2000122
1134.579678	676.2000122
1135.136702	675.4000244
1135.693669	674.4000244
1136.250578	673.7999878
1136.807431	675.4000244
1137.364227	672.4000244
1137.920965	673.5999756
1138.477647	673.5999756
1139.034271	673.5999756
1139.590839	673.4000244
1140.147349	671.4000244
1140.703802	670.5999756
1141.260198	676.2000122
1141.816537	674.7999878
1142.37282	672.5999756
1142.929045	673.7999878
1143.485213	675.4000244
1144.041323	678.0
1144.597377	676.2000122
1145.153374	674.0
1145.709314	674.5999756
1146.265197	678.2000122
1146.821023	674.7999878
1147.376792	678.5999756
1147.932503	673.5999756
1148.488158	674.2000122
1149.043756	673.5999756
1149.599297	674.0
1150.154781	676.5999756
1150.710207	674.5999756
1151.265577	674.0
1151.82089	674.5999756
1152.376146	674.7999878
1152.931345	674.7999878
1153.486487	673.0
1154.041572	673.0
1154.5966	674.4000244
1155.151571	676.2000122
1155.706485	677.0
1156.261342	674.4000244
1156.816142	675.7999878
1157.370885	676.4000244
1157.925572	674.7999878
1158.480201	673.5999756
1159.034774	675.2000122
1159.589289	674.7999878
1160.143748	673.0
1160.698149	676.5999756
1161.252494	674.5999756
1161.806782	675.5999756
1162.361013	676.4000244
1162.915187	676.4000244
1163.469304	676.2000122
1164.023364	678.0
1164.577368	675.5999756
1165.131314	675.5999756
1165.685204	676.0
1166.239036	674.2000122
1166.792812	674.7999878
1167.346531	674.5999756
1167.900193	675.5999756
1168.453798	675.7999878
1169.007347	673.2000122
1169.560838	674.2000122
1170.114273	675.5999756
1170.66765	674.2000122
1171.220971	676.5999756
1171.774235	674.0
1172.327443	678.0
1172.880593	678.5999756
1173.433687	674.4000244
1173.986723	675.4000244
1174.539703	676.2000122
1175.092626	672.4000244
1175.645493	674.7999878
1176.198302	673.4000244
1176.751055	675.2000122
1177.303751	675.4000244
1177.85639	674.2000122
1178.408972	676.0
1178.961498	675.5999756
1179.513966	673.4000244
1180.066378	673.0
1180.618733	675.7999878
1181.171032	676.7999878
1181.723273	676.4000244
1182.275458	676.5999756
1182.827586	678.4000244
1183.379657	674.2000122
1183.931672	677.4000244
1184.48363	681.4000244
1185.035531	677.4000244
1185.587375	676.7999878
1186.139162	674.5999756
1186.690893	678.5999756
1187.242567	677.4000244
1187.794184	680.7999878
1188.345745	675.4000244
1188.897249	673.4000244
1189.448696	679.7999878
1190.000086	677.0
1190.55142	674.2000122
1191.102697	677.5999756
1191.653918	678.2000122
1192.205081	675.7999878
1192.756188	673.0
1193.307238	692.5999756
1193.858232	675.2000122
1194.409169	676.5999756
1194.960049	677.2000122
1195.510872	675.5999756
1196.061639	676.0
1196.612349	675.7999878
1197.163003	674.2000122
1197.713599	672.4000244
1198.264139	672.5999756
1198.814623	675.7999878
1199.36505	673.7999878
1199.91542	674.7999878
1200.465734	677.0
1201.01599	674.4000244
1201.566191	674.0
1202.116334	677.0
1202.666421	670.2000122
1203.216452	676.0
1203.766425	677.0
1204.316343	674.0
1204.866203	673.5999756
1205.416007	674.4000244
1205.965754	677.5999756
1206.515445	673.7999878
1207.065079	674.5999756
1207.614657	677.4000244
1208.164177	676.0
1208.713642	674.0
1209.26305	676.7999878
1209.812401	677.7999878
1210.361695	678.4000244
1210.910933	674.5999756
1211.460115	673.0
1212.00924	675.2000122
1212.558308	675.2000122
1213.10732	673.0
1213.656275	678.5999756
1214.205174	673.5999756
1214.754016	674.4000244
1215.302801	679.5999756
1215.85153	673.0
1216.400203	676.4000244
1216.948819	674.2000122
1217.497378	678.5999756
1218.045881	675.5999756
1218.594327	674.2000122
1219.142717	675.7999878
1219.691051	674.7999878
1220.239327	675.5999756
1220.787548	676.0
1221.335712	675.5999756
1221.883819	678.7999878
1222.43187	678.5999756
1222.979864	675.4000244
1223.527802	677.7999878
1224.075683	677.2000122
1224.623508	678.0
1225.171277	678.4000244
1225.718989	677.4000244
1226.266644	676.7999878
1226.814243	676.0
1227.361786	679.2000122
1227.909272	672.4000244
1228.456702	675.7999878
1229.004075	676.7999878
1229.551392	673.0
1230.098652	677.2000122
1230.645856	679.2000122
1231.193003	679.2000122
1231.740094	677.2000122
1232.287129	678.4000244
1232.834107	676.4000244
1233.381029	679.4000244
1233.927894	676.7999878
1234.474703	676.0
1235.021455	676.5999756
1235.568151	676.4000244
1236.114791	676.2000122
1236.661374	675.5999756
1237.207901	675.0
1237.754372	676.2000122
1238.300786	680.4000244
1238.847144	677.2000122
1239.393445	676.2000122
1239.93969	678.0
1240.485879	673.0
1241.032011	676.2000122
1241.578087	676.7999878
1242.124106	676.5999756
1242.67007	676.7999878
1243.215976	675.5999756
1243.761827	675.5999756
1244.307621	675.7999878
1244.853359	674.5999756
1245.39904	678.2000122
1245.944665	678.2000122
1246.490234	676.4000244
1247.035746	678.0
1247.581203	678.5999756
1248.126602	677.5999756
1248.671946	677.7999878
1249.217233	678.4000244
1249.762464	678.4000244
1250.307638	676.0
1250.852757	677.4000244
1251.397819	675.5999756
1251.942824	677.5999756
1252.487774	677.5999756
1253.032667	676.2000122
1253.577503	677.7999878
1254.122284	678.7999878
1254.667008	678.2000122
1255.211676	678.5999756
1255.756288	676.4000244
1256.300843	677.5999756
1256.845342	675.7999878
1257.389785	677.4000244
1257.934172	681.4000244
1258.478502	680.0
1259.022776	672.7999878
1259.566994	679.4000244
1260.111156	689.7999878
1260.655261	675.7999878
1261.199311	680.2000122
1261.743304	679.0
1262.28724	680.5999756
1262.831121	682.0
1263.374945	680.2000122
1263.918713	680.2000122
1264.462425	681.5999756
1265.006081	682.4000244
1265.54968	678.7999878
1266.093223	678.2000122
1266.636711	678.0
1267.180141	673.5999756
1267.723516	676.7999878
1268.266835	677.7999878
1268.810097	676.4000244
1269.353303	679.0
1269.896453	677.2000122
1270.439547	673.2000122
1270.982584	677.0
1271.525566	679.7999878
1272.068491	678.7999878
1272.61136	675.5999756
1273.154173	674.5999756
1273.69693	675.7999878
1274.239631	679.5999756
1274.782275	673.7999878
1275.324864	677.2000122
1275.867396	674.5999756
1276.409872	672.2000122
1276.952292	674.4000244
1277.494656	677.7999878
1278.036964	675.5999756
1278.579215	678.2000122
1279.121411	677.5999756
1279.66355	677.0
1280.205634	680.0
1280.747661	678.0
1281.289632	682.5999756
1281.831547	685.7999878
1282.373406	697.5999756
1282.915209	715.0
1283.456955	742.4000244
1283.998646	774.7999878
1284.540281	786.0
1285.081859	748.4000244
1285.623381	712.2000122
1286.164848	689.7999878
1286.706258	684.7999878
1287.247612	676.0
1287.788911	678.5999756
1288.330153	678.5999756
1288.871339	678.7999878
1289.412469	679.5999756
1289.953543	678.7999878
1290.494561	674.7999878
1291.035523	677.5999756
1291.576428	678.0
1292.117278	679.4000244
1292.658072	677.4000244
1293.19881	676.2000122
1293.739492	675.5999756
1294.280118	672.7999878
1294.820687	678.2000122
1296.442061	676.7999878
1296.982406	677.5999756
1297.522696	677.2000122
1298.06293	674.5999756
1298.603108	679.0
1299.143229	672.7999878
1299.683295	676.7999878
1300.223305	675.2000122
1300.763259	675.2000122
1301.303157	677.0
1301.842999	675.7999878
1302.382785	676.7999878
1302.922515	676.7999878
1303.462189	675.7999878
1304.001807	676.0
1304.541369	675.0
1305.080875	675.5999756
1305.620326	676.7999878
1306.15972	676.0
1306.699058	677.5999756
1307.238341	676.0
1307.777567	676.0
1308.316738	675.7999878
1308.855853	677.0
1309.394912	677.7999878
1309.933915	675.5999756
1310.472862	677.2000122
1311.011753	674.2000122
1311.550588	676.2000122
1312.089367	676.2000122
1312.62809	678.5999756
1313.166758	677.4000244
1313.70537	675.7999878
1314.243925	676.7999878
1314.782425	676.7999878
1315.320869	678.4000244
1315.859257	680.0
1316.397589	677.5999756
1316.935866	677.0
1317.474086	673.2000122
1318.012251	675.0
1318.55036	675.7999878
1319.088413	675.4000244
1319.62641	673.4000244
1320.164351	674.4000244
1320.702236	675.0
1321.240066	675.2000122
1321.777839	673.0
1322.315557	674.7999878
1322.853219	678.0
1323.390826	677.2000122
1323.928376	677.5999756
1324.465871	672.5999756
1325.003309	678.2000122
1325.540692	676.5999756
1326.07802	675.7999878
1326.615291	674.2000122
1327.152506	676.2000122
1327.689666	675.7999878
1328.22677	675.7999878
1328.763818	674.2000122
1329.300811	677.0
1329.837747	675.2000122
1330.374628	674.5999756
1330.911453	677.5999756
1331.448222	675.2000122
1331.984936	676.2000122
1332.521594	677.2000122
1333.058196	675.5999756
1333.594742	677.4000244
1334.131232	677.0
1334.667667	675.2000122
1335.204046	674.4000244
1335.740369	678.0
1336.276637	675.0
1336.812848	676.2000122
1337.349004	673.4000244
1337.885105	674.0
1338.421149	673.7999878
1338.957138	676.4000244
1339.493071	673.7999878
1340.028949	677.2000122
1340.56477	675.7999878
1341.100536	674.5999756
1341.636246	673.5999756
1342.171901	672.2000122
1342.7075	672.7999878
1343.243043	673.4000244
1343.77853	674.7999878
1344.313962	674.2000122
1344.849338	676.4000244
1345.384659	673.2000122
1345.919923	676.0
1346.455133	675.0
1346.990286	674.2000122
1347.525384	674.0
1348.060426	676.4000244
1348.595412	679.7999878
1349.130343	673.7999878
1349.665218	674.0
1350.200037	674.7999878
1350.734801	675.5999756
1351.269509	673.2000122
1351.804162	676.2000122
1352.338758	675.0
1352.8733	673.5999756
1353.407785	673.2000122
1353.942215	674.7999878
1354.476589	674.5999756
1355.010908	679.0
1355.545171	677.4000244
1356.079379	675.7999878
1356.61353	675.7999878
1357.147627	674.7999878
1357.681667	673.4000244
1358.215652	676.4000244
1358.749582	675.0
1359.283456	675.5999756
1359.817274	673.5999756
1360.351037	673.2000122
1360.884744	677.5999756
1361.418395	678.4000244
1361.951991	675.0
1362.485531	675.0
1363.019016	676.4000244
1363.552445	679.0
1364.085819	678.0
1364.619137	675.7999878
1365.1524	677.2000122
1365.685607	674.4000244
1366.218758	676.0
1366.751854	675.4000244
1367.284894	675.7999878
1367.817879	673.7999878
1368.350808	674.5999756
1368.883682	676.0
1369.4165	677.4000244
1369.949263	681.4000244
1370.48197	677.2000122
1371.014622	677.2000122
1371.547218	677.7999878
1372.079758	675.7999878
1372.612244	677.2000122
1373.144673	677.7999878
1373.677047	676.5999756
1374.209366	677.2000122
1374.741629	676.2000122
1375.273836	676.5999756
1375.805989	676.0
1376.338085	677.4000244
1376.870126	677.0
1377.402112	675.5999756
1377.934042	680.2000122
1378.465917	678.0
1378.997736	676.4000244
1379.5295	677.4000244
1380.061208	675.0
1380.592861	675.7999878
1381.124459	676.0
1381.656	678.7999878
1382.187487	678.0
1382.718918	678.4000244
1383.250294	677.5999756
1383.781614	681.7999878
1384.312879	682.5999756
1384.844088	680.7999878
1385.375242	682.0
1385.90634	690.0
1386.437383	703.7999878
1386.968371	734.2000122
1387.499303	813.4000244
1388.03018	908.2000122
1388.561001	867.0
1389.091767	754.2000122
1389.622478	708.4000244
1390.153133	688.0
1390.683733	687.5999756
1391.214277	680.7999878
1391.744766	682.5999756
1392.2752	681.7999878
1392.805578	677.5999756
1393.335901	679.2000122
1393.866168	678.2000122
1394.396381	675.4000244
1394.926537	677.2000122
1395.456639	679.0
1395.986685	672.5999756
1396.516675	672.7999878
1397.046611	675.2000122
1397.576491	679.4000244
1398.106315	676.4000244
1398.636084	678.4000244
1399.165798	679.2000122
1399.695457	676.0
1400.22506	675.0
1400.754608	675.7999878
1401.284101	674.7999878
1401.813538	674.2000122
1402.34292	675.2000122
1402.872247	673.0
1403.401518	676.7999878
1403.930734	676.7999878
1404.459895	677.0
1404.989	677.0
1405.51805	675.0
1406.047045	682.4000244
1406.575984	678.7999878
1407.104869	678.7999878
1407.633697	681.0
1408.162471	682.5999756
1408.691189	683.0
1409.219852	688.4000244
1409.74846	689.0
1410.277013	683.2000122
1410.80551	682.2000122
1411.333952	679.7999878
1411.862339	679.5999756
1412.39067	675.7999878
1412.918946	675.5999756
1413.447167	676.7999878
1413.975333	677.7999878
1414.503444	674.7999878
1415.031499	679.0
1415.559499	688.0
1416.087444	675.0
1416.615333	677.7999878
1417.143167	675.7999878
1417.670947	676.4000244
1418.19867	674.0
1418.726339	675.0
1419.253952	676.5999756
1419.781511	676.4000244
1420.309014	674.4000244
1420.836461	674.4000244
1421.363854	676.4000244
1421.891191	676.2000122
1422.418474	675.0
1422.945701	676.5999756
1423.472872	674.5999756
1423.999989	675.0
1424.52705	672.4000244
1425.054057	674.2000122
1425.581008	675.4000244
1426.107904	674.7999878
1426.634745	673.2000122
1427.16153	678.2000122
1427.688261	672.4000244
1428.214936	677.2000122
1428.741556	679.2000122
1429.268121	676.5999756
1429.794631	674.7999878
1430.321085	676.0
1430.847485	676.2000122
1431.373829	676.7999878
1431.900118	675.5999756
1432.426353	674.7999878
1432.952532	674.0
1433.478655	677.4000244
1434.004724	676.2000122
1434.530738	676.4000244
1435.056696	675.7999878
1435.5826	676.2000122
1436.108448	678.4000244
1436.634241	675.0
1437.159979	675.0
1437.685662	673.5999756
1438.21129	675.5999756
1438.736863	675.2000122
1439.262381	676.4000244
1439.787843	675.2000122
1440.313251	672.2000122
1440.838603	676.0
1441.3639	674.5999756
1441.889143	676.7999878
1442.41433	673.4000244
1442.939462	679.2000122
1443.464539	675.5999756
1443.989561	679.2000122
1444.514528	676.4000244
1445.03944	676.7999878
1445.564297	676.5999756
1446.089099	676.0
1446.613846	676.0
1447.138537	674.2000122
1447.663174	677.7999878
1448.187756	681.0
1448.712282	677.2000122
1449.236754	677.2000122
1449.761171	674.7999878
1450.285532	675.2000122
1450.809839	677.2000122
1451.33409	674.5999756
1451.858287	676.5999756
1452.382428	675.5999756
1452.906515	673.4000244
1453.430546	677.2000122
1453.954523	674.2000122
1454.478444	674.4000244
1455.002311	678.5999756
1455.526123	677.5999756
1456.049879	674.2000122
1456.573581	676.5999756
1457.097227	677.2000122
1457.620819	678.4000244
1458.144356	677.0
1458.667837	675.7999878
1459.191264	673.4000244
1459.714636	674.0
1460.237952	677.5999756
1460.761214	674.2000122
1461.284421	675.4000244
1461.807573	677.7999878
1462.33067	674.5999756
1462.853712	682.0
1463.376699	682.4000244
1463.899632	673.0
1464.422509	676.7999878
1464.945331	677.0
1465.468099	673.4000244
1465.990811	674.4000244
1466.513469	675.0
1467.036071	675.7999878
1467.558619	675.4000244
1468.081112	675.2000122
1468.60355	673.7999878
1469.125933	677.7999878
1469.648261	678.2000122
1470.170534	678.0
1470.692752	677.4000244
1471.214916	675.7999878
1471.737024	675.2000122
1472.259078	674.7999878
1472.781077	677.7999878
1473.303021	677.4000244
1473.82491	675.4000244
1474.346744	674.7999878
1474.868523	675.4000244
1475.390248	674.2000122
1475.911917	675.4000244
1476.433532	676.2000122
1476.955092	676.2000122
1477.476597	676.0
1477.998047	677.7999878
1478.519442	675.0
1479.040783	675.7999878
1479.562068	676.0
1480.083299	676.4000244
1480.604475	674.7999878
1481.125596	676.4000244
1481.646663	674.7999878
1482.167674	675.7999878
1482.688631	677.2000122
1483.209533	673.7999878
1483.73038	673.4000244
1484.251172	674.5999756
1484.771909	675.0
1485.292592	675.7999878
1485.81322	678.0
1486.333793	676.2000122
1486.854311	673.7999878
1487.374775	675.2000122
1487.895183	673.4000244
1488.415537	672.0
1488.935836	673.4000244
1489.456081	672.2000122
1489.97627	673.4000244
1490.496405	674.5999756
1491.016485	673.2000122
1491.536511	672.5999756
1492.056481	674.4000244
1492.576397	674.2000122
1493.096258	671.0
1493.616064	674.5999756
1494.135816	674.5999756
1494.655513	676.7999878
1495.175155	673.2000122
1495.694742	676.4000244
1496.214274	672.5999756
1496.733752	675.5999756
1497.253175	674.4000244
1497.772544	676.4000244
1498.291858	673.5999756
1498.811116	678.5999756
1499.330321	676.0
1499.84947	680.0
1500.368565	676.0
1500.887605	674.0
1501.406591	672.4000244
1501.925521	673.2000122
1502.444397	674.7999878
1502.963219	674.5999756
1503.481985	674.5999756
1504.000697	672.5999756
1504.519355	675.2000122
1505.037957	674.4000244
1505.556505	676.2000122
1506.074999	676.2000122
1506.593437	677.2000122
1507.111821	675.4000244
1507.63015	675.0
1508.148425	674.2000122
1508.666645	677.2000122
1509.18481	676.5999756
1509.702921	674.5999756
1510.220977	676.2000122
1510.738979	680.7999878
1511.256925	673.5999756
1511.774817	675.5999756
1512.292655	673.4000244
1512.810438	673.4000244
1513.328166	675.2000122
1513.84584	675.4000244
1514.363459	673.5999756
1514.881023	674.4000244
1515.398533	674.4000244
1515.915988	672.2000122
1516.433389	672.4000244
1516.950734	677.7999878
1517.468026	675.2000122
1517.985263	674.2000122
1518.502445	676.5999756
1519.019572	673.2000122
1519.536645	672.7999878
1520.053664	676.5999756
1520.570628	674.0
1521.087537	675.5999756
1521.604392	676.2000122
1522.121192	671.2000122
1522.637937	673.2000122
1523.154628	672.5999756
1523.671265	675.4000244
1524.187847	671.7999878
1524.704374	674.0
1525.220847	675.7999878
1525.737265	675.4000244
1526.253629	679.2000122
1526.769938	675.7999878
1527.286192	673.0
1527.802392	676.4000244
1528.318538	673.7999878
1528.834629	675.2000122
1529.350666	675.5999756
1529.866648	673.4000244
1530.382575	670.4000244
1530.898448	674.2000122
1531.414266	675.5999756
1531.93003	675.5999756
1532.44574	673.5999756
1532.961395	671.5999756
1533.476995	674.4000244
1533.992541	677.7999878
1534.508033	674.4000244
1535.02347	675.5999756
1535.538852	676.0
1536.05418	674.0
1536.569454	674.4000244
1537.084673	671.5999756
1537.599837	674.0
1538.114947	674.7999878
1538.630003	673.0
1539.145004	675.2000122
1539.659951	674.4000244
1540.174843	673.7999878
1540.689681	671.2000122
1541.204465	674.0
1541.719194	676.2000122
1542.233868	676.7999878
1542.748488	674.5999756
1543.263054	676.2000122
1543.777565	673.7999878
1544.292022	673.0
1544.806424	675.4000244
1545.320772	673.4000244
1545.835066	672.4000244
1546.349305	674.7999878
1546.863489	674.4000244
1547.37762	673.2000122
1547.891696	675.2000122
1548.405717	673.2000122
1548.919684	674.5999756
1549.433597	677.5999756
1549.947455	674.7999878
1550.461259	677.4000244
1550.975009	675.5999756
1551.488704	673.7999878
1552.002345	675.0
1552.515931	675.5999756
1553.029463	675.5999756
1553.542941	674.7999878
1554.056364	674.7999878
1554.569733	673.5999756
1555.083048	675.2000122
1555.596308	674.5999756
1556.109514	670.2000122
1556.622665	677.7999878
1557.135762	675.2000122
1557.648805	678.0
1558.161794	676.0
1558.674728	677.4000244
1559.187608	673.5999756
1559.700433	673.7999878
1560.213205	674.4000244
1560.725921	674.4000244
1561.238584	676.0
1561.751192	671.4000244
1562.263746	673.7999878
1562.776246	676.5999756
1563.288691	675.7999878
1563.801082	676.0
1564.313419	676.4000244
1564.825701	674.4000244
1565.337929	675.5999756
1565.850103	677.0
1566.362223	673.5999756
1566.874288	675.4000244
1567.386299	677.0
1567.898256	677.4000244
1568.410158	674.7999878
1568.922007	676.4000244
1569.4338	675.2000122
1569.94554	672.0
1570.457226	675.7999878
1570.968857	672.5999756
1571.480434	676.5999756
1571.991956	673.2000122
1572.503425	676.0
1573.014839	675.0
1573.526199	675.2000122
1574.037505	675.5999756
1574.548756	675.7999878
1575.059953	675.7999878
1575.571096	673.5999756
1576.082185	674.7999878
1576.59322	674.2000122
1577.1042	675.0
1577.615126	673.0
1578.125998	677.5999756
1578.636816	675.2000122
1579.14758	676.4000244
1579.658289	675.2000122
1580.168944	678.0
1580.679545	676.0
1581.190092	674.2000122
1581.700585	671.5999756
1582.211023	676.7999878
1582.721407	673.2000122
1583.231737	675.0
1583.742013	674.7999878
1584.252235	674.7999878
1584.762403	675.5999756
1585.272516	673.5999756
1585.782575	674.0
1586.292581	673.5999756
1586.802532	675.7999878
1587.312428	674.2000122
1587.822271	676.7999878
1588.33206	675.4000244
1588.841794	673.4000244
1589.351474	677.2000122
1589.8611	672.4000244
1590.370672	674.4000244
1590.88019	674.7999878
1591.389654	675.5999756
1591.899064	676.2000122
1592.408419	669.5999756
