1042.452273	675.2000122
1043.018714	673.2000122
1043.585098	672.0
1044.151424	671.0
1044.717692	673.4000244
1045.283903	672.0
1045.850056	669.4000244
1046.416151	670.5999756
1046.982188	672.7999878
1047.548167	668.0
1048.114089	669.7999878
1048.679953	671.5999756
1049.24576	670.0
1049.811509	668.4000244
1050.3772	670.7999878
1050.942833	667.5999756
1051.508408	667.7999878
1052.073926	668.5999756
1052.639387	668.4000244
1053.204789	670.4000244
1053.770134	668.2000122
1054.335421	667.5999756
1054.900651	668.5999756
1055.465823	663.0
1056.030937	668.7999878
1056.595993	668.2000122
1057.160992	668.4000244
1057.725934	668.5999756
1058.290817	665.5999756
1058.855643	667.2000122
1059.420411	667.2000122
1059.985122	666.0
1060.549775	668.2000122
1061.114371	668.7999878
1061.678908	666.4000244
1062.243389	663.0
1062.807811	666.7999878
1063.372176	664.0
1063.936483	667.2000122
1064.500733	665.7999878
1065.064925	664.5999756
1065.62906	669.0
1066.193137	667.4000244
1066.757156	663.4000244
1067.321118	666.4000244
1067.885022	667.0
1068.448869	667.5999756
1069.012658	667.5999756
1069.57639	664.4000244
1070.140063	672.2000122
1070.70368	666.5999756
1071.267239	668.2000122
1071.83074	668.2000122
1072.394184	664.5999756
1072.95757	664.2000122
1073.520899	667.0
1074.08417	668.4000244
1074.647383	667.0
1075.21054	666.2000122
1075.773638	664.5999756
1076.336679	666.4000244
1076.899663	668.7999878
1077.462589	668.0
1078.025457	666.5999756
1078.588268	664.0
1079.151022	666.0
1079.713718	666.2000122
1080.276356	664.5999756
1080.838937	667.5999756
1081.401461	666.0
1081.963927	662.7999878
1082.526336	669.0
1083.088687	666.0
1083.650981	666.2000122
1084.213217	667.4000244
1084.775396	666.7999878
1085.337517	665.2000122
1085.899581	665.2000122
1086.461587	664.0
1087.023536	665.5999756
1087.585428	664.0
1088.147262	667.0
1088.709039	665.5999756
1089.270758	666.7999878
1089.83242	664.7999878
1090.394024	663.7999878
1090.955571	666.2000122
1091.517061	665.0
1092.078493	665.5999756
1092.639868	666.4000244
1093.201185	666.2000122
1093.762445	665.2000122
1094.323648	663.2000122
1094.884793	662.5999756
1095.445881	674.5999756
1096.006911	666.5999756
1096.567884	666.4000244
1097.1288	672.7999878
1097.689659	666.4000244
1098.25046	669.4000244
1098.811203	666.7999878
1099.37189	667.0
1099.932518	664.4000244
1100.49309	667.5999756
1101.053604	667.2000122
1101.614061	665.5999756
1102.174461	666.2000122
1102.734803	665.5999756
1103.295088	665.5999756
1103.855316	665.5999756
1104.415486	662.5999756
1104.975599	666.0
1105.535655	667.2000122
1106.095653	667.0
1106.655594	665.2000122
1107.215478	665.5999756
1107.775305	665.7999878
1108.335074	666.0
1108.894786	666.2000122
1109.45444	666.5999756
1110.014038	664.5999756
1110.573578	669.4000244
1111.133061	664.7999878
1111.692486	665.4000244
1112.251854	667.0
1112.811165	668.4000244
1113.370419	666.2000122
1113.929616	666.0
1114.488755	667.2000122
1115.047837	665.2000122
1115.606862	664.7999878
1116.16583	664.5999756
1116.72474	666.5999756
1117.283593	671.7999878
1117.842389	664.2000122
1118.401128	668.2000122
1118.959809	666.2000122
1119.518433	666.5999756
1120.077	666.4000244
1120.63551	665.5999756
1121.193963	663.5999756
1121.752358	666.7999878
1122.310697	663.4000244
1122.868978	663.0
1123.427202	667.2000122
1123.985368	663.2000122
1124.543478	666.4000244
1125.10153	664.0
1125.659526	667.2000122
1126.217464	667.2000122
1126.775345	668.7999878
1127.333168	665.0
1127.890935	671.2000122
1128.448644	667.4000244
1129.006297	668.4000244
1129.563892	670.5999756
1130.12143	670.5999756
1130.678911	666.2000122
1131.236335	666.7999878
1131.793701	666.5999756
1132.351011	667.4000244
1132.908263	667.2000122
1133.465458	668.2000122
1134.022597	666.0
1134.579678	665.5999756
1135.136702	668.0
1135.693669	666.2000122
1136.250578	662.5999756
1136.807431	665.7999878
1137.364227	663.7999878
1137.920965	664.5999756
1138.477647	664.5999756
1139.034271	664.2000122
1139.590839	665.5999756
1140.147349	665.7999878
1140.703802	665.5999756
1141.260198	666.4000244
1141.816537	663.7999878
1142.37282	664.4000244
1142.929045	668.7999878
1143.485213	663.2000122
1144.041323	666.7999878
1144.597377	664.4000244
1145.153374	664.2000122
1145.709314	667.2000122
1146.265197	664.5999756
1146.821023	666.4000244
1147.376792	666.5999756
1147.932503	662.4000244
1148.488158	665.7999878
1149.043756	666.2000122
1149.599297	665.0
1150.154781	664.0
1150.710207	663.5999756
1151.265577	663.5999756
1151.82089	665.7999878
1152.376146	662.5999756
1152.931345	666.5999756
1153.486487	668.4000244
1154.041572	666.2000122
1154.5966	666.0
1155.151571	664.7999878
1155.706485	664.2000122
1156.261342	665.5999756
1156.816142	665.4000244
1157.370885	666.5999756
1157.925572	666.5999756
1158.480201	667.5999756
1159.034774	665.2000122
1159.589289	668.5999756
1160.143748	662.7999878
1160.698149	665.7999878
1161.252494	662.0
1161.806782	664.2000122
1162.361013	664.4000244
1162.915187	665.4000244
1163.469304	665.0
1164.023364	664.4000244
1164.577368	666.4000244
1165.131314	663.2000122
1165.685204	662.0
1166.239036	667.2000122
1166.792812	664.7999878
1167.346531	665.5999756
1167.900193	665.2000122
1168.453798	667.7999878
1169.007347	663.2000122
1169.560838	664.7999878
1170.114273	665.4000244
1170.66765	664.5999756
1171.220971	664.7999878
1171.774235	665.2000122
1172.327443	661.5999756
1172.880593	666.0
1173.433687	663.7999878
1173.986723	665.2000122
1174.539703	666.4000244
1175.092626	664.7999878
1175.645493	664.0
1176.198302	664.5999756
1176.751055	665.5999756
1177.303751	664.5999756
1177.85639	661.2000122
1178.408972	665.4000244
1178.961498	665.0
1179.513966	665.5999756
1180.066378	663.7999878
1180.618733	665.4000244
1181.171032	666.5999756
1181.723273	667.5999756
1182.275458	665.2000122
1182.827586	667.5999756
1183.379657	664.7999878
1183.931672	664.7999878
1184.48363	665.5999756
1185.035531	663.5999756
1185.587375	666.5999756
1186.139162	665.7999878
1186.690893	667.0
1187.242567	665.0
1187.794184	668.4000244
1188.345745	666.5999756
1188.897249	666.2000122
1189.448696	664.5999756
1190.000086	664.7999878
1190.55142	665.4000244
1191.102697	666.5999756
1191.653918	665.4000244
1192.205081	666.5999756
1192.756188	665.2000122
1193.307238	681.2000122
1193.858232	666.7999878
1194.409169	667.5999756
1194.960049	663.0
1195.510872	666.4000244
1196.061639	662.0
1196.612349	664.0
1197.163003	665.7999878
1197.713599	663.5999756
1198.264139	666.0
1198.814623	664.0
1199.36505	665.7999878
1199.91542	665.4000244
1200.465734	663.2000122
1201.01599	664.4000244
1201.566191	663.7999878
1202.116334	665.2000122
1202.666421	663.5999756
1203.216452	663.5999756
1203.766425	666.2000122
1204.316343	666.4000244
1204.866203	667.2000122
1205.416007	666.0
1205.965754	664.7999878
1206.515445	664.0
1207.065079	665.0
1207.614657	664.2000122
1208.164177	666.4000244
1208.713642	664.4000244
1209.26305	667.2000122
1209.812401	665.5999756
1210.361695	668.7999878
1210.910933	665.7999878
1211.460115	665.5999756
1212.00924	667.7999878
1212.558308	665.7999878
1213.10732	666.2000122
1213.656275	668.2000122
1214.205174	665.2000122
1214.754016	668.2000122
1215.302801	665.7999878
1215.85153	666.4000244
1216.400203	663.7999878
1216.948819	668.2000122
1217.497378	666.2000122
1218.045881	664.2000122
1218.594327	666.4000244
1219.142717	668.7999878
1219.691051	666.7999878
1220.239327	668.4000244
1220.787548	667.7999878
1221.335712	665.7999878
1221.883819	667.4000244
1222.43187	666.4000244
1222.979864	666.7999878
1223.527802	668.4000244
1224.075683	666.5999756
1224.623508	665.4000244
1225.171277	668.0
1225.718989	665.4000244
1226.266644	668.4000244
1226.814243	668.5999756
1227.361786	667.0
1227.909272	665.5999756
1228.456702	663.4000244
1229.004075	665.4000244
1229.551392	669.2000122
1230.098652	666.2000122
1230.645856	668.2000122
1231.193003	666.0
1231.740094	667.7999878
1232.287129	665.0
1232.834107	667.7999878
1233.381029	665.5999756
1233.927894	667.5999756
1234.474703	667.4000244
1235.021455	668.0
1235.568151	665.2000122
1236.114791	667.7999878
1236.661374	668.0
1237.207901	664.5999756
1237.754372	665.2000122
1238.300786	667.0
1238.847144	667.2000122
1239.393445	667.5999756
1239.93969	668.4000244
1240.485879	667.7999878
1241.032011	666.2000122
1241.578087	664.2000122
1242.124106	666.4000244
1242.67007	664.0
1243.215976	666.4000244
1243.761827	668.2000122
1244.307621	665.4000244
1244.853359	670.0
1245.39904	665.2000122
1245.944665	669.2000122
1246.490234	669.0
1247.035746	667.7999878
1247.581203	666.4000244
1248.126602	669.4000244
1248.671946	668.2000122
1249.217233	666.7999878
1249.762464	670.7999878
1250.307638	667.0
1250.852757	668.5999756
1251.397819	668.5999756
1251.942824	669.7999878
1252.487774	667.7999878
1253.032667	669.2000122
1253.577503	671.2000122
1254.122284	665.4000244
1254.667008	666.4000244
1255.211676	666.5999756
1255.756288	668.2000122
1256.300843	670.0
1256.845342	668.0
1257.389785	667.7999878
1257.934172	669.0
1258.478502	671.2000122
1259.022776	672.7999878
1259.566994	670.5999756
1260.111156	684.7999878
1260.655261	667.0
1261.199311	673.0
1261.743304	674.0
1262.28724	675.0
1262.831121	677.0
1263.374945	682.7999878
1263.918713	681.5999756
1264.462425	688.7999878
1265.006081	685.7999878
1265.54968	675.5999756
1266.093223	677.0
1266.636711	674.0
1267.180141	668.5999756
1267.723516	667.4000244
1268.266835	669.5999756
1268.810097	666.7999878
1269.353303	671.0
1269.896453	671.7999878
1270.439547	670.7999878
1270.982584	668.0
1271.525566	671.7999878
1272.068491	668.4000244
1272.61136	671.0
1273.154173	672.4000244
1273.69693	668.0
1274.239631	669.4000244
1274.782275	672.0
1275.324864	670.4000244
1275.867396	668.2000122
1276.409872	667.5999756
1276.952292	674.0
1277.494656	671.0
1278.036964	672.0
1278.579215	674.4000244
1279.121411	672.2000122
1279.66355	675.5999756
1280.205634	674.2000122
1280.747661	680.5999756
1281.289632	687.7999878
1281.831547	704.4000244
1282.373406	734.4000244
1282.915209	781.4000244
1283.456955	878.4000244
1283.998646	961.4000244
1284.540281	978.0
1285.081859	864.4000244
1285.623381	756.5999756
1286.164848	713.7999878
1286.706258	691.7999878
1287.247612	682.0
1287.788911	677.7999878
1288.330153	678.2000122
1288.871339	673.0
1289.412469	675.4000244
1289.953543	674.0
1290.494561	671.7999878
1291.035523	672.0
1291.576428	672.0
1292.117278	669.2000122
1292.658072	670.2000122
1293.19881	671.4000244
1293.739492	671.7999878
1294.280118	668.2000122
1294.820687	668.4000244
1295.361201	672.4000244
1295.901659	666.7999878
1296.442061	670.2000122
1296.982406	667.5999756
1297.522696	668.4000244
1298.06293	664.7999878
1298.603108	668.2000122
1299.143229	670.2000122
1299.683295	669.0
1300.223305	668.7999878
1300.763259	667.5999756
1301.303157	667.4000244
1301.842999	668.5999756
1302.382785	665.7999878
1302.922515	669.2000122
1303.462189	667.4000244
1304.001807	667.7999878
1304.541369	665.5999756
1305.080875	667.2000122
1305.620326	665.5999756
1306.15972	667.5999756
1306.699058	667.7999878
1307.238341	668.0
1307.777567	668.5999756
1308.316738	671.2000122
1308.855853	666.5999756
1309.394912	669.4000244
1309.933915	665.2000122
1310.472862	667.7999878
1311.011753	666.2000122
1311.550588	668.2000122
1312.089367	669.0
1312.62809	670.0
1313.166758	666.2000122
1313.70537	667.5999756
1314.243925	664.4000244
1314.782425	667.2000122
1315.320869	668.4000244
1315.859257	669.0
1316.397589	666.0
1316.935866	664.2000122
1317.474086	667.5999756
1318.012251	667.2000122
1318.55036	668.5999756
1319.088413	664.2000122
1319.62641	664.4000244
1320.164351	665.4000244
1320.702236	667.2000122
1321.240066	665.7999878
1321.777839	668.5999756
1322.315557	666.2000122
1322.853219	667.5999756
1323.390826	666.0
1323.928376	670.2000122
1324.465871	667.4000244
1325.003309	665.7999878
1325.540692	668.5999756
1326.07802	672.0
1326.615291	668.2000122
1327.152506	666.5999756
1327.689666	665.7999878
1328.22677	667.4000244
1328.763818	665.2000122
1329.300811	669.5999756
1329.837747	668.5999756
1330.374628	666.4000244
1330.911453	666.7999878
1331.448222	664.7999878
1331.984936	667.7999878
1332.521594	665.7999878
1333.058196	666.2000122
1333.594742	667.5999756
1334.131232	667.2000122
1334.667667	667.0
1335.204046	666.7999878
1335.740369	668.4000244
1336.276637	668.4000244
1336.812848	666.2000122
1337.349004	666.5999756
1337.885105	665.5999756
1338.421149	666.2000122
1338.957138	667.5999756
1339.493071	666.4000244
1340.028949	666.4000244
1340.56477	662.7999878
1341.100536	665.0
1341.636246	666.5999756
1342.171901	664.7999878
1342.7075	665.7999878
1343.243043	666.4000244
1343.77853	667.2000122
1344.313962	667.0
1344.849338	666.2000122
1345.384659	668.4000244
1345.919923	667.4000244
1346.455133	666.2000122
1346.990286	667.0
1347.525384	665.2000122
1348.060426	665.0
1348.595412	664.2000122
1349.130343	667.2000122
1349.665218	666.4000244
1350.200037	665.7999878
1350.734801	666.4000244
1351.269509	668.5999756
1351.804162	665.4000244
1352.338758	667.2000122
1352.8733	669.4000244
1353.407785	667.2000122
1353.942215	666.7999878
1354.476589	667.2000122
1355.010908	669.2000122
1355.545171	670.4000244
1356.079379	666.7999878
1356.61353	666.4000244
1357.147627	669.5999756
1357.681667	668.4000244
1358.215652	668.0
1358.749582	664.7999878
1359.283456	665.2000122
1359.817274	666.7999878
1360.351037	668.2000122
1360.884744	666.4000244
1361.418395	666.5999756
1361.951991	666.5999756
1362.485531	665.7999878
1363.019016	668.0
1363.552445	668.4000244
1364.085819	666.4000244
1364.619137	666.4000244
1365.1524	669.2000122
1365.685607	668.7999878
1366.218758	668.4000244
1366.751854	666.5999756
1367.284894	669.2000122
1367.817879	668.7999878
1368.350808	673.4000244
1368.883682	671.0
1369.4165	676.4000244
1369.949263	682.5999756
1370.48197	678.2000122
1371.014622	672.4000244
1371.547218	670.7999878
1372.079758	668.5999756
1372.612244	669.5999756
1373.144673	669.5999756
1373.677047	667.5999756
1374.209366	670.7999878
1374.741629	670.7999878
1375.273836	670.5999756
1375.805989	670.4000244
1376.338085	669.2000122
1376.870126	672.5999756
1377.402112	669.2000122
1377.934042	670.4000244
1378.465917	670.2000122
1378.997736	673.7999878
1379.5295	672.0
1380.061208	670.7999878
1380.592861	676.0
1381.124459	674.2000122
1381.656	674.2000122
1382.187487	675.2000122
1382.718918	676.2000122
1383.250294	678.4000244
1383.781614	679.5999756
1384.312879	684.5999756
1384.844088	689.0
1385.375242	699.4000244
1385.90634	719.2000122
1386.437383	754.2000122
1386.968371	853.7999878
1387.499303	1073.599976
1388.03018	1316.0
1388.561001	1161.800049
1389.091767	883.0
1389.622478	750.7999878
1390.153133	710.5999756
1390.683733	695.0
1391.214277	688.0
1391.744766	682.4000244
1392.2752	679.7999878
1392.805578	675.2000122
1393.335901	677.2000122
1393.866168	677.0
1394.396381	675.4000244
1394.926537	672.5999756
1395.456639	677.4000244
1395.986685	673.5999756
1396.516675	673.0
1397.046611	670.4000244
1397.576491	671.7999878
1398.106315	670.7999878
1398.636084	670.7999878
1399.165798	669.0
1399.695457	671.5999756
1400.22506	669.0
1400.754608	672.2000122
1401.284101	668.7999878
1401.813538	671.0
1402.34292	672.2000122
1402.872247	671.5999756
1403.401518	672.2000122
1403.930734	667.4000244
1404.459895	673.0
1404.989	673.0
1405.51805	671.0
1406.047045	670.2000122
1406.575984	672.2000122
1407.104869	675.4000244
1407.633697	678.7999878
1408.162471	685.2000122
1408.691189	687.5999756
1409.219852	698.0
1409.74846	705.5999756
1410.277013	694.0
1410.80551	684.5999756
1411.333952	676.2000122
1411.862339	672.2000122
1412.39067	672.4000244
1412.918946	670.4000244
1413.447167	668.4000244
1413.975333	667.7999878
1414.503444	670.4000244
1415.031499	666.5999756
1415.559499	678.5999756
1416.087444	667.4000244
1416.615333	666.0
1417.143167	668.2000122
1417.670947	668.5999756
1418.19867	666.0
1418.726339	663.4000244
1419.253952	668.7999878
1419.781511	666.0
1420.309014	666.4000244
1420.836461	666.4000244
1421.363854	664.7999878
1421.891191	667.4000244
1422.418474	668.7999878
1422.945701	667.7999878
1423.472872	666.0
1423.999989	668.0
1424.52705	666.0
1425.054057	667.7999878
1425.581008	668.7999878
1426.107904	664.4000244
1426.634745	667.4000244
1427.16153	666.2000122
1427.688261	666.5999756
1428.214936	666.0
1428.741556	667.2000122
1429.268121	668.0
1429.794631	663.7999878
1430.321085	664.5999756
1430.847485	661.2000122
1431.373829	665.2000122
1431.900118	663.7999878
1432.426353	663.4000244
1432.952532	663.7999878
1433.478655	664.2000122
1434.004724	667.2000122
1434.530738	664.7999878
1435.056696	668.0
1435.5826	667.4000244
1436.108448	665.5999756
1436.634241	662.7999878
1437.159979	664.4000244
1437.685662	663.7999878
1438.21129	664.2000122
1438.736863	669.0
1439.262381	664.5999756
1439.787843	662.4000244
1440.313251	664.7999878
1440.838603	661.5999756
1441.3639	665.4000244
1441.889143	663.4000244
1442.41433	665.7999878
1442.939462	663.2000122
1443.464539	666.4000244
1443.989561	664.5999756
1444.514528	665.5999756
1445.03944	664.7999878
1445.564297	663.5999756
1446.089099	662.7999878
1446.613846	665.0
1447.138537	668.4000244
1447.663174	666.2000122
1448.187756	665.0
1448.712282	664.4000244
1449.236754	664.0
1449.761171	662.5999756
1450.285532	665.5999756
1450.809839	665.4000244
1451.33409	663.0
1451.858287	664.5999756
1452.382428	664.0
1452.906515	666.0
1453.430546	666.5999756
1453.954523	666.2000122
1454.478444	665.2000122
1455.002311	662.5999756
1455.526123	665.7999878
1456.049879	668.0
1456.573581	664.2000122
1457.097227	665.5999756
1457.620819	665.5999756
1458.144356	666.2000122
1458.667837	665.0
1459.191264	665.2000122
1459.714636	664.2000122
1460.237952	664.4000244
1460.761214	662.7999878
1461.284421	665.2000122
1461.807573	666.4000244
1462.33067	663.2000122
1462.853712	665.7999878
1463.376699	667.2000122
1463.899632	665.2000122
1464.422509	666.0
1464.945331	665.2000122
1465.468099	660.7999878
1465.990811	664.7999878
1466.513469	666.0
1467.036071	662.5999756
1467.558619	662.5999756
1468.081112	664.7999878
1468.60355	664.4000244
1469.125933	663.5999756
1469.648261	664.4000244
1470.170534	667.7999878
1470.692752	665.7999878
1471.214916	664.0
1471.737024	666.0
1472.259078	664.4000244
1472.781077	665.4000244
1473.303021	662.4000244
1473.82491	662.7999878
1474.346744	664.7999878
1474.868523	663.0
1475.390248	663.2000122
1475.911917	663.4000244
1476.433532	662.5999756
1476.955092	665.0
1477.476597	663.4000244
1477.998047	664.4000244
1478.519442	663.7999878
1479.040783	662.4000244
1479.562068	662.0
1480.083299	663.7999878
1480.604475	663.2000122
1481.125596	663.5999756
1481.646663	663.2000122
1482.167674	664.0
1482.688631	663.5999756
1483.209533	662.4000244
1483.73038	663.0
1484.251172	661.4000244
1484.771909	662.5999756
1485.292592	660.7999878
1485.81322	665.5999756
1486.333793	663.7999878
1486.854311	662.7999878
1487.374775	664.4000244
1487.895183	666.7999878
1488.415537	663.0
1488.935836	663.5999756
1489.456081	662.5999756
1489.97627	660.5999756
1490.496405	663.4000244
1491.016485	662.0
1491.536511	663.0
1492.056481	662.0
1492.576397	662.7999878
1493.096258	660.0
1493.616064	662.2000122
1494.135816	663.4000244
1494.655513	661.2000122
1495.175155	665.7999878
1495.694742	663.4000244
1496.214274	665.0
1496.733752	662.4000244
1497.253175	664.5999756
1497.772544	659.7999878
1498.291858	663.2000122
1498.811116	660.7999878
1499.330321	661.4000244
1499.84947	670.5999756
1500.368565	662.0
1500.887605	662.2000122
1501.406591	663.7999878
1501.925521	664.4000244
1502.444397	662.4000244
1502.963219	662.7999878
1503.481985	665.2000122
1504.000697	663.0
1504.519355	663.4000244
1505.037957	663.2000122
1505.556505	663.4000244
1506.074999	661.4000244
1506.593437	662.2000122
1507.111821	663.4000244
1507.63015	663.4000244
1508.148425	661.0
1508.666645	661.0
1509.18481	663.0
1509.702921	663.7999878
1510.220977	663.0
1510.738979	669.2000122
1511.256925	663.7999878
1511.774817	661.0
1512.292655	662.7999878
1512.810438	665.0
1513.328166	661.5999756
1513.84584	659.2000122
1514.363459	663.0
1514.881023	664.4000244
1515.398533	661.5999756
1515.915988	663.5999756
1516.433389	660.4000244
1516.950734	662.4000244
1517.468026	662.4000244
1517.985263	664.0
1518.502445	665.7999878
1519.019572	661.7999878
1519.536645	663.0
1520.053664	662.4000244
1520.570628	661.4000244
1521.087537	665.4000244
1521.604392	662.2000122
1522.121192	660.4000244
1522.637937	662.4000244
1523.154628	662.4000244
1523.671265	662.2000122
1524.187847	662.4000244
1524.704374	662.2000122
1525.220847	662.2000122
1525.737265	663.5999756
1526.253629	666.5999756
1526.769938	663.7999878
1527.286192	662.7999878
1527.802392	663.5999756
1528.318538	663.0
1528.834629	663.2000122
1529.350666	664.5999756
1530.898448	661.2000122
1531.414266	663.2000122
1531.93003	661.7999878
1532.44574	666.4000244
1532.961395	662.2000122
1533.476995	662.4000244
1533.992541	663.5999756
1534.508033	661.4000244
1535.02347	663.2000122
1535.538852	662.2000122
1536.05418	663.2000122
1536.569454	662.2000122
1537.084673	662.7999878
1537.599837	664.0
1538.114947	664.2000122
1538.630003	659.7999878
1539.145004	661.0
1539.659951	663.2000122
1540.174843	664.4000244
1540.689681	660.7999878
1541.204465	661.4000244
1541.719194	661.4000244
1542.233868	664.0
1542.748488	661.7999878
1543.263054	661.7999878
1543.777565	662.7999878
1544.292022	661.4000244
1544.806424	664.7999878
1545.320772	662.4000244
1545.835066	662.7999878
1546.349305	660.0
1546.863489	663.5999756
1547.37762	665.0
1547.891696	663.2000122
1548.405717	663.5999756
1548.919684	664.0
1549.433597	663.7999878
1549.947455	661.5999756
1550.461259	661.5999756
1550.975009	661.5999756
1551.488704	664.0
1552.002345	663.2000122
1552.515931	662.5999756
1553.029463	664.4000244
1553.542941	662.7999878
1554.056364	660.5999756
1554.569733	661.5999756
1555.083048	662.2000122
1555.596308	664.7999878
1556.109514	659.7999878
1556.622665	662.4000244
1557.135762	661.2000122
1557.648805	664.7999878
1558.161794	662.0
1558.674728	662.4000244
1559.187608	664.0
1559.700433	662.7999878
1560.213205	662.4000244
1560.725921	665.4000244
1561.238584	662.2000122
1561.751192	660.5999756
1562.263746	665.0
1562.776246	663.2000122
1563.288691	665.4000244
1563.801082	661.5999756
1564.313419	662.7999878
1564.825701	662.2000122
1565.337929	662.0
1565.850103	662.5999756
1566.362223	663.5999756
1566.874288	664.5999756
1567.386299	665.2000122
1567.898256	662.0
1568.410158	667.5999756
1568.922007	662.0
1569.4338	660.5999756
1569.94554	662.0
1570.457226	665.2000122
1570.968857	662.5999756
1571.480434	661.0
1571.991956	660.5999756
1572.503425	663.5999756
1573.014839	661.5999756
1573.526199	663.4000244
1574.037505	663.7999878
1574.548756	662.5999756
1575.059953	661.4000244
1575.571096	660.7999878
1576.082185	663.7999878
1576.59322	662.2000122
1577.1042	664.5999756
1577.615126	662.2000122
1578.125998	659.5999756
1578.636816	662.0
1579.14758	662.5999756
1579.658289	664.4000244
1580.168944	662.2000122
1580.679545	662.7999878
1581.190092	662.5999756
1581.700585	663.7999878
1582.211023	664.0
1582.721407	660.5999756
1583.231737	661.4000244
1583.742013	663.5999756
1584.252235	662.5999756
1584.762403	664.7999878
1585.272516	664.2000122
1585.782575	662.5999756
1586.292581	660.4000244
1586.802532	663.2000122
1587.312428	659.5999756
1587.822271	662.0
1588.33206	663.7999878
1588.841794	663.0
1589.351474	664.2000122
1589.8611	663.0
1590.370672	663.2000122
1590.88019	662.0
1591.389654	663.4000244
1591.899064	663.0
1592.408419	661.7999878
