1042.452273	699.5999756
1043.018714	694.4000244
1043.585098	693.4000244
1044.151424	694.5999756
1044.717692	690.2000122
1045.283903	693.5999756
1045.850056	689.5999756
1046.416151	690.7999878
1046.982188	685.0
1047.548167	691.4000244
1048.114089	691.2000122
1048.679953	684.4000244
1049.24576	690.2000122
1049.811509	685.4000244
1050.3772	686.4000244
1050.942833	685.4000244
1051.508408	683.0
1052.073926	683.5999756
1052.639387	682.5999756
1053.204789	684.7999878
1053.770134	682.4000244
1054.335421	681.5999756
1054.900651	680.5999756
1055.465823	681.2000122
1056.030937	679.2000122
1056.595993	682.5999756
1057.160992	682.0
1057.725934	679.0
1058.290817	681.7999878
1058.855643	684.2000122
1059.420411	680.5999756
1059.985122	680.2000122
1060.549775	681.0
1061.114371	678.5999756
1061.678908	678.4000244
1062.243389	682.0
1062.807811	679.0
1063.372176	680.0
1063.936483	679.4000244
1064.500733	677.5999756
1065.064925	678.7999878
1065.62906	678.5999756
1066.193137	677.7999878
1066.757156	681.4000244
1067.321118	676.5999756
1067.885022	676.5999756
1068.448869	677.5999756
1069.012658	678.2000122
1069.57639	678.7999878
1070.140063	686.0
1070.70368	678.4000244
1071.267239	677.5999756
1071.83074	677.0
1072.394184	679.5999756
1072.95757	675.5999756
1073.520899	679.4000244
1074.08417	677.7999878
1074.647383	676.0
1075.21054	678.2000122
1075.773638	676.7999878
1076.336679	677.0
1076.899663	673.5999756
1077.462589	675.2000122
1078.025457	677.0
1078.588268	676.5999756
1079.151022	677.0
1079.713718	675.7999878
1080.276356	676.4000244
1080.838937	675.2000122
1081.401461	679.4000244
1081.963927	674.2000122
1082.526336	678.5999756
1083.088687	678.0
1083.650981	677.0
1084.213217	674.7999878
1084.775396	673.4000244
1085.337517	677.4000244
1085.899581	677.2000122
1086.461587	678.5999756
1087.023536	675.7999878
1087.585428	678.4000244
1088.147262	675.5999756
1088.709039	677.4000244
1089.270758	676.2000122
1089.83242	676.4000244
1090.394024	674.0
1090.955571	676.2000122
1091.517061	677.7999878
1092.078493	677.4000244
1092.639868	673.5999756
1093.201185	676.0
1093.762445	677.0
1094.323648	675.0
1094.884793	677.2000122
1095.445881	690.5999756
1096.006911	677.0
1096.567884	674.0
1097.1288	680.5999756
1097.689659	675.2000122
1098.25046	672.7999878
1098.811203	672.7999878
1099.37189	677.5999756
1099.932518	673.7999878
1100.49309	678.2000122
1101.053604	674.5999756
1101.614061	675.4000244
1102.174461	673.5999756
1102.734803	678.0
1103.295088	674.0
1103.855316	676.2000122
1104.415486	674.0
1104.975599	678.5999756
1105.535655	675.4000244
1106.095653	676.0
1106.655594	676.2000122
1107.215478	674.7999878
1107.775305	677.0
1108.335074	676.2000122
1108.894786	677.2000122
1109.45444	676.2000122
1110.014038	676.7999878
1110.573578	675.2000122
1111.133061	676.7999878
1111.692486	676.2000122
1112.251854	677.5999756
1112.811165	675.4000244
1113.370419	677.2000122
1113.929616	676.5999756
1114.488755	673.2000122
1115.047837	675.2000122
1115.606862	674.2000122
1116.16583	677.2000122
1116.72474	672.7999878
1117.283593	677.0
1117.842389	674.2000122
1118.401128	674.2000122
1118.959809	673.2000122
1119.518433	675.4000244
1120.077	674.0
1120.63551	673.7999878
1121.193963	673.7999878
1121.752358	674.0
1122.310697	671.0
1122.868978	677.0
1123.427202	676.0
1123.985368	674.7999878
1124.543478	674.0
1125.10153	674.2000122
1125.659526	672.2000122
1126.217464	672.7999878
1126.775345	675.7999878
1127.333168	674.7999878
1127.890935	673.5999756
1128.448644	673.2000122
1129.006297	672.5999756
1129.563892	674.5999756
1130.12143	673.4000244
1130.678911	673.7999878
1131.236335	674.7999878
1131.793701	674.0
1132.351011	677.7999878
1132.908263	674.5999756
1133.465458	671.4000244
1134.022597	674.2000122
1134.579678	676.0
1135.136702	673.4000244
1135.693669	677.0
1136.250578	677.2000122
1136.807431	673.2000122
1137.364227	675.7999878
1137.920965	674.2000122
1138.477647	674.5999756
1139.034271	678.7999878
1139.590839	675.7999878
1140.147349	675.4000244
1140.703802	673.2000122
1141.260198	672.7999878
1141.816537	673.7999878
1142.37282	675.5999756
1142.929045	678.5999756
1143.485213	671.0
1144.041323	675.0
1144.597377	675.7999878
1145.153374	676.2000122
1145.709314	674.2000122
1146.265197	674.2000122
1146.821023	676.2000122
1147.376792	673.4000244
1147.932503	676.7999878
1148.488158	675.5999756
1149.043756	676.2000122
1149.599297	676.5999756
1150.154781	675.5999756
1150.710207	676.4000244
1151.265577	674.0
1151.82089	676.5999756
1152.376146	676.5999756
1152.931345	675.0
1153.486487	675.0
1154.041572	676.0
1154.5966	674.4000244
1155.151571	677.7999878
1155.706485	674.4000244
1156.261342	674.7999878
1156.816142	675.7999878
1157.370885	672.2000122
1157.925572	673.0
1158.480201	673.2000122
1159.034774	674.7999878
1159.589289	671.2000122
1160.143748	676.2000122
1160.698149	675.5999756
1161.252494	674.7999878
1161.806782	673.0
1162.361013	676.7999878
1162.915187	676.4000244
1163.469304	675.0
1164.023364	674.2000122
1164.577368	673.5999756
1165.131314	676.5999756
1165.685204	669.4000244
1166.239036	676.0
1166.792812	676.7999878
1167.346531	673.2000122
1167.900193	675.0
1168.453798	673.4000244
1169.007347	675.4000244
1169.560838	674.0
1170.114273	675.5999756
1170.66765	670.5999756
1171.220971	676.0
1171.774235	676.2000122
1172.327443	675.2000122
1172.880593	670.0
1173.433687	675.4000244
1173.986723	675.4000244
1174.539703	672.7999878
1175.092626	674.4000244
1175.645493	670.5999756
1176.198302	674.0
1176.751055	671.5999756
1177.303751	671.5999756
1177.85639	675.4000244
1178.408972	673.5999756
1178.961498	675.0
1179.513966	673.5999756
1180.066378	675.0
1180.618733	673.0
1181.171032	675.4000244
1181.723273	673.7999878
1182.275458	675.4000244
1182.827586	672.2000122
1183.379657	673.2000122
1183.931672	671.7999878
1184.48363	673.4000244
1185.035531	673.4000244
1185.587375	677.4000244
1186.139162	674.4000244
1186.690893	673.0
1187.242567	672.4000244
1187.794184	675.5999756
1188.345745	674.5999756
1188.897249	675.0
1189.448696	673.7999878
1190.000086	673.7999878
1190.55142	672.4000244
1191.102697	676.0
1191.653918	674.7999878
1192.205081	670.0
1192.756188	676.4000244
1193.307238	696.5999756
1193.858232	673.5999756
1194.409169	673.0
1194.960049	673.5999756
1195.510872	672.2000122
1196.061639	673.0
1196.612349	674.7999878
1197.163003	675.5999756
1197.713599	673.7999878
1198.264139	673.2000122
1198.814623	669.2000122
1199.36505	671.4000244
1199.91542	674.0
1200.465734	673.5999756
1201.01599	673.7999878
1201.566191	670.5999756
1202.116334	675.4000244
1202.666421	673.0
1203.216452	671.5999756
1203.766425	673.5999756
1204.316343	673.5999756
1204.866203	673.7999878
1205.416007	672.7999878
1205.965754	674.4000244
1206.515445	673.4000244
1207.065079	673.5999756
1207.614657	674.5999756
1208.164177	672.2000122
1208.713642	676.4000244
1209.26305	674.7999878
1209.812401	674.7999878
1210.361695	676.4000244
1210.910933	672.7999878
1211.460115	676.4000244
1212.00924	676.2000122
1212.558308	670.7999878
1213.10732	672.7999878
1213.656275	675.0
1214.205174	673.4000244
1214.754016	674.7999878
1215.302801	670.7999878
1215.85153	672.2000122
1216.400203	672.4000244
1216.948819	672.0
1217.497378	676.0
1218.045881	674.2000122
1218.594327	675.5999756
1219.142717	673.5999756
1219.691051	675.0
1220.239327	674.5999756
1220.787548	673.2000122
1221.335712	674.2000122
1221.883819	674.0
1222.43187	673.2000122
1222.979864	674.5999756
1223.527802	676.4000244
1224.075683	672.0
1224.623508	677.4000244
1225.171277	675.4000244
1225.718989	672.7999878
1226.266644	671.5999756
1226.814243	676.5999756
1227.361786	674.4000244
1227.909272	674.7999878
1228.456702	674.4000244
1229.004075	677.4000244
1229.551392	676.2000122
1230.098652	672.7999878
1230.645856	675.2000122
1231.193003	676.2000122
1231.740094	677.5999756
1232.287129	671.7999878
1232.834107	672.5999756
1233.381029	673.2000122
1233.927894	673.2000122
1234.474703	672.5999756
1235.021455	674.2000122
1235.568151	674.4000244
1236.114791	669.7999878
1236.661374	675.4000244
1237.207901	676.5999756
1237.754372	673.7999878
1238.300786	676.2000122
1238.847144	675.4000244
1239.393445	677.4000244
1239.93969	673.5999756
1240.485879	673.4000244
1241.032011	672.7999878
1241.578087	672.4000244
1242.124106	672.0
1242.67007	676.0
1243.215976	676.2000122
1243.761827	674.4000244
1244.307621	674.5999756
1244.853359	673.5999756
1245.39904	675.7999878
1245.944665	673.7999878
1246.490234	674.2000122
1247.035746	671.2000122
1247.581203	675.0
1248.126602	677.2000122
1248.671946	674.0
1249.217233	672.7999878
1249.762464	671.5999756
1250.307638	672.7999878
1250.852757	674.4000244
1251.397819	673.5999756
1251.942824	672.5999756
1252.487774	672.0
1253.032667	675.0
1253.577503	674.7999878
1254.122284	674.7999878
1254.667008	673.0
1255.211676	674.5999756
1255.756288	671.0
1256.300843	675.4000244
1256.845342	674.2000122
1257.389785	674.4000244
1257.934172	675.7999878
1258.478502	676.4000244
1259.022776	674.7999878
1259.566994	673.2000122
1260.111156	691.7999878
1260.655261	674.2000122
1261.199311	677.0
1261.743304	676.7999878
1262.28724	679.4000244
1262.831121	679.2000122
1263.374945	678.7999878
1263.918713	682.2000122
1264.462425	685.2000122
1265.006081	686.7999878
1265.54968	679.0
1266.093223	678.5999756
1266.636711	678.7999878
1267.180141	676.7999878
1267.723516	676.4000244
1268.266835	678.5999756
1268.810097	674.5999756
1269.353303	676.5999756
1269.896453	673.2000122
1270.439547	674.4000244
1270.982584	677.4000244
1271.525566	675.4000244
1272.068491	675.0
1272.61136	675.4000244
1273.154173	673.0
1273.69693	674.5999756
1274.239631	673.7999878
1274.782275	669.4000244
1275.324864	673.2000122
1275.867396	672.0
1276.409872	675.2000122
1276.952292	674.5999756
1277.494656	676.7999878
1278.036964	677.5999756
1278.579215	676.4000244
1279.121411	671.5999756
1279.66355	678.2000122
1280.205634	678.5999756
1280.747661	677.4000244
1281.289632	680.4000244
1281.831547	684.2000122
1282.373406	694.5999756
1282.915209	709.0
1283.456955	751.4000244
1283.998646	800.5999756
1284.540281	859.0
1285.081859	849.2000122
1285.623381	753.2000122
1286.164848	707.2000122
1286.706258	692.5999756
1287.247612	686.7999878
1287.788911	679.5999756
1288.330153	677.7999878
1288.871339	677.4000244
1289.412469	674.4000244
1289.953543	675.4000244
1290.494561	674.4000244
1291.035523	676.4000244
1291.576428	674.2000122
1292.117278	675.7999878
1292.658072	673.5999756
1293.19881	675.2000122
1293.739492	671.4000244
1294.280118	671.5999756
1294.820687	673.0
1295.361201	674.4000244
1295.901659	676.2000122
1296.442061	672.4000244
1296.982406	677.4000244
1297.522696	674.7999878
1298.06293	675.0
1298.603108	674.7999878
1299.143229	673.7999878
1299.683295	676.7999878
1300.223305	674.5999756
1300.763259	673.4000244
1301.303157	675.7999878
1301.842999	678.4000244
1302.382785	722.0
1304.001807	1081.0
1304.541369	676.2000122
1305.080875	674.4000244
1305.620326	672.7999878
1306.15972	673.4000244
1306.699058	672.5999756
1307.238341	677.5999756
1307.777567	673.4000244
1308.316738	671.2000122
1308.855853	671.0
1309.394912	671.2000122
1309.933915	670.0
1310.472862	673.0
1311.011753	671.7999878
1311.550588	672.2000122
1312.089367	670.4000244
1312.62809	672.7999878
1313.166758	674.4000244
1313.70537	670.4000244
1314.243925	671.5999756
1314.782425	671.5999756
1315.320869	671.0
1315.859257	672.4000244
1316.397589	674.7999878
1316.935866	672.7999878
1317.474086	673.5999756
1318.012251	672.5999756
1318.55036	670.7999878
1319.088413	672.2000122
1319.62641	673.2000122
1320.164351	672.2000122
1320.702236	671.2000122
1321.240066	671.5999756
1321.777839	672.7999878
1322.315557	674.4000244
1322.853219	670.2000122
1323.390826	673.5999756
1323.928376	677.2000122
1324.465871	673.0
1325.003309	672.2000122
1325.540692	672.7999878
1326.07802	676.7999878
1326.615291	668.5999756
1327.152506	670.0
1327.689666	671.2000122
1328.22677	675.2000122
1328.763818	672.0
1329.300811	672.4000244
1329.837747	667.2000122
1330.374628	674.4000244
1330.911453	672.4000244
1331.448222	672.5999756
1331.984936	670.7999878
1332.521594	673.5999756
1333.058196	671.0
1333.594742	670.5999756
1334.131232	671.2000122
1334.667667	673.4000244
1335.204046	674.0
1335.740369	669.4000244
1336.276637	671.7999878
1336.812848	674.2000122
1337.349004	672.2000122
1337.885105	670.7999878
1338.421149	672.0
1338.957138	673.2000122
1339.493071	674.2000122
1340.028949	673.5999756
1340.56477	671.5999756
1341.100536	672.7999878
1341.636246	672.2000122
1342.171901	672.7999878
1342.7075	673.7999878
1343.243043	672.7999878
1343.77853	669.7999878
1344.313962	674.0
1344.849338	670.2000122
1345.384659	673.4000244
1345.919923	672.7999878
1346.455133	669.0
1346.990286	669.5999756
1347.525384	674.5999756
1348.060426	674.2000122
1348.595412	672.5999756
1349.130343	669.5999756
1349.665218	673.4000244
1350.200037	672.2000122
1350.734801	673.4000244
1351.269509	672.2000122
1351.804162	675.7999878
1352.338758	674.0
1352.8733	673.5999756
1353.407785	672.2000122
1353.942215	671.4000244
1354.476589	674.7999878
1355.010908	670.7999878
1355.545171	673.2000122
1356.079379	675.0
1356.61353	671.5999756
1357.147627	669.4000244
1357.681667	674.0
1358.215652	675.4000244
1358.749582	672.4000244
1359.283456	674.5999756
1359.817274	670.4000244
1360.351037	673.4000244
1360.884744	671.4000244
1361.418395	671.0
1361.951991	672.7999878
1362.485531	675.4000244
1363.019016	672.5999756
1363.552445	671.2000122
1364.085819	671.4000244
1364.619137	672.2000122
1365.1524	672.4000244
1365.685607	674.0
1366.218758	674.0
1366.751854	674.5999756
1367.284894	672.4000244
1367.817879	671.4000244
1368.350808	673.4000244
1368.883682	674.5999756
1369.4165	674.2000122
1369.949263	678.5999756
1370.48197	678.4000244
1371.014622	676.7999878
1371.547218	671.2000122
1372.079758	672.0
1372.612244	672.2000122
1373.144673	669.0
1373.677047	674.5999756
1374.209366	673.0
1374.741629	674.7999878
1375.273836	669.5999756
1375.805989	674.4000244
1376.338085	675.5999756
1376.870126	673.5999756
1377.402112	672.7999878
1377.934042	673.7999878
1378.465917	673.4000244
1378.997736	674.2000122
1379.5295	676.5999756
1380.061208	673.5999756
1380.592861	672.5999756
1381.124459	675.4000244
1381.656	678.7999878
1382.187487	677.7999878
1382.718918	674.7999878
1383.250294	677.2000122
1383.781614	682.0
1384.312879	676.5999756
1384.844088	684.5999756
1385.375242	685.7999878
1385.90634	694.4000244
1386.437383	703.0
1386.968371	739.7999878
1387.499303	827.0
1388.03018	1015.0
1388.561001	1047.199951
1389.091767	847.0
1389.622478	735.0
1390.153133	702.7999878
1390.683733	688.2000122
1391.214277	684.4000244
1391.744766	679.5999756
1392.2752	677.7999878
1392.805578	676.5999756
1393.335901	675.5999756
1393.866168	677.5999756
1394.396381	673.5999756
1394.926537	675.7999878
1395.456639	670.5999756
1395.986685	672.2000122
1396.516675	673.7999878
1397.046611	679.5999756
1397.576491	676.5999756
1398.106315	675.4000244
1398.636084	675.5999756
1399.165798	672.7999878
1399.695457	677.2000122
1400.22506	671.2000122
1400.754608	675.2000122
1401.284101	672.2000122
1401.813538	673.0
1402.34292	676.7999878
1402.872247	676.2000122
1403.401518	671.5999756
1403.930734	673.2000122
1404.459895	675.2000122
1404.989	671.4000244
1405.51805	675.0
1406.047045	677.2000122
1406.575984	676.0
1407.104869	677.0
1407.633697	678.2000122
1408.162471	678.5999756
1408.691189	683.5999756
1409.219852	689.7999878
1409.74846	694.0
1410.277013	691.7999878
1410.80551	684.0
1411.333952	677.0
1411.862339	676.7999878
1412.39067	673.2000122
1412.918946	672.4000244
1413.447167	674.0
1413.975333	673.0
1414.503444	673.5999756
1415.031499	673.0
1415.559499	687.4000244
1416.087444	671.7999878
1416.615333	672.7999878
1417.143167	670.2000122
1417.670947	669.7999878
1418.19867	670.4000244
1418.726339	673.0
1419.253952	673.4000244
1419.781511	670.2000122
1420.309014	675.7999878
1420.836461	670.5999756
1421.363854	673.0
1421.891191	668.7999878
1422.418474	673.5999756
1422.945701	671.7999878
1423.472872	673.7999878
1423.999989	670.7999878
1424.52705	671.5999756
1425.054057	670.5999756
1425.581008	668.4000244
1426.107904	671.2000122
1426.634745	670.0
1427.16153	671.7999878
1427.688261	671.7999878
1428.214936	670.7999878
1428.741556	673.7999878
1429.268121	669.4000244
1429.794631	672.0
1430.321085	671.7999878
1430.847485	670.2000122
1431.373829	671.0
1431.900118	670.4000244
1432.426353	668.2000122
1432.952532	668.5999756
1433.478655	672.7999878
1434.004724	672.0
1434.530738	672.4000244
1435.056696	674.7999878
1435.5826	671.4000244
1436.108448	672.4000244
1436.634241	672.2000122
1437.159979	670.7999878
1437.685662	668.4000244
1438.21129	668.5999756
1438.736863	669.2000122
1439.262381	669.4000244
1439.787843	670.2000122
1440.313251	671.2000122
1440.838603	671.4000244
1441.3639	672.5999756
1441.889143	669.4000244
1442.41433	669.4000244
1442.939462	671.0
1443.464539	671.2000122
1443.989561	669.4000244
1444.514528	672.4000244
1445.03944	668.2000122
1445.564297	671.4000244
1446.089099	673.0
1446.613846	670.0
1447.138537	672.5999756
1447.663174	670.2000122
1448.187756	669.7999878
1448.712282	669.7999878
1449.236754	671.0
1449.761171	671.4000244
1450.285532	672.4000244
1450.809839	671.4000244
1451.33409	672.5999756
1451.858287	669.2000122
1452.382428	671.2000122
1452.906515	668.0
1453.430546	671.0
1453.954523	672.2000122
1454.478444	668.7999878
1455.002311	671.0
1455.526123	669.7999878
1456.049879	669.0
1456.573581	669.4000244
1457.097227	669.7999878
1457.620819	668.4000244
1458.144356	672.0
1458.667837	668.5999756
1459.191264	669.2000122
1459.714636	669.5999756
1460.237952	672.2000122
1460.761214	672.2000122
1461.284421	674.0
1461.807573	670.2000122
1462.33067	668.7999878
1462.853712	675.2000122
1463.376699	680.5999756
1463.899632	675.2000122
1464.422509	671.5999756
1464.945331	667.7999878
1465.468099	670.0
1465.990811	669.4000244
1466.513469	669.4000244
1467.036071	671.7999878
1467.558619	668.4000244
1468.081112	666.5999756
1468.60355	670.7999878
1469.125933	669.5999756
1469.648261	668.0
1470.170534	671.2000122
1470.692752	668.4000244
1471.214916	670.4000244
1471.737024	669.4000244
1472.259078	669.4000244
1472.781077	669.7999878
1473.303021	669.7999878
1473.82491	669.0
1474.346744	672.7999878
1474.868523	670.0
1475.390248	670.7999878
1475.911917	672.5999756
1476.433532	668.7999878
1476.955092	666.4000244
1477.476597	668.0
1477.998047	668.7999878
1478.519442	671.7999878
1479.040783	667.2000122
1479.562068	670.4000244
1480.083299	671.5999756
1480.604475	671.0
1481.125596	670.0
1481.646663	670.5999756
1482.167674	667.5999756
1482.688631	670.4000244
1483.209533	671.5999756
1483.73038	669.5999756
1484.251172	667.2000122
1484.771909	669.2000122
1485.292592	670.4000244
1485.81322	672.2000122
1486.333793	668.5999756
1486.854311	668.4000244
1487.374775	668.7999878
1487.895183	672.4000244
1488.415537	668.5999756
1488.935836	671.4000244
1489.456081	669.0
1489.97627	667.5999756
1490.496405	669.7999878
1491.016485	668.7999878
1491.536511	667.2000122
1492.056481	668.2000122
1492.576397	666.5999756
1493.096258	669.2000122
1493.616064	667.0
1494.135816	669.2000122
1494.655513	668.7999878
1495.175155	669.4000244
1495.694742	671.4000244
1496.214274	668.7999878
1496.733752	670.2000122
1497.253175	664.7999878
1497.772544	669.4000244
1498.291858	668.2000122
1498.811116	670.2000122
1499.330321	669.2000122
1499.84947	676.2000122
1500.368565	668.7999878
1500.887605	667.7999878
1501.406591	668.2000122
1501.925521	668.4000244
1502.444397	669.5999756
1502.963219	668.2000122
1503.481985	672.2000122
1504.000697	667.2000122
1504.519355	665.7999878
1505.037957	668.2000122
1505.556505	666.7999878
1506.074999	672.2000122
1506.593437	670.2000122
1507.111821	669.7999878
1507.63015	670.2000122
1508.148425	668.2000122
1508.666645	667.0
1509.18481	668.2000122
1509.702921	666.4000244
1510.220977	671.2000122
1510.738979	677.4000244
1511.256925	672.4000244
1511.774817	668.2000122
1512.292655	668.2000122
1512.810438	670.2000122
1513.328166	669.0
1513.84584	670.2000122
1514.363459	671.2000122
1514.881023	668.0
1515.398533	668.7999878
1515.915988	668.0
1516.433389	672.2000122
1516.950734	670.0
1517.468026	670.4000244
1517.985263	667.4000244
1518.502445	668.0
1519.019572	670.0
1519.536645	668.2000122
1520.053664	670.2000122
1520.570628	667.5999756
1521.087537	669.2000122
1521.604392	670.4000244
1522.121192	668.7999878
1522.637937	665.7999878
1523.154628	668.4000244
1523.671265	665.7999878
1524.187847	671.2000122
1524.704374	667.5999756
1525.220847	668.4000244
1525.737265	671.0
1526.253629	672.5999756
1526.769938	671.0
1527.286192	668.4000244
1527.802392	666.0
1528.318538	669.4000244
1528.834629	667.5999756
1529.350666	669.4000244
1529.866648	667.5999756
1530.382575	668.0
1530.898448	666.0
1531.414266	669.2000122
1531.93003	669.5999756
1532.44574	670.4000244
1532.961395	669.0
1533.476995	668.7999878
1533.992541	667.5999756
1534.508033	668.0
1535.02347	668.7999878
1535.538852	666.4000244
1536.05418	670.5999756
1536.569454	670.0
1537.084673	666.4000244
1537.599837	664.7999878
1538.114947	669.5999756
1538.630003	667.0
1539.145004	667.4000244
1539.659951	667.0
1540.174843	667.7999878
1540.689681	669.0
1541.204465	666.2000122
1541.719194	670.4000244
1542.233868	669.4000244
1542.748488	666.7999878
1543.263054	669.4000244
1543.777565	669.4000244
1544.292022	668.0
1544.806424	666.4000244
1545.320772	667.7999878
1545.835066	669.2000122
1546.349305	670.5999756
1546.863489	667.7999878
1547.37762	669.4000244
1547.891696	669.7999878
1548.405717	668.5999756
1548.919684	671.0
1549.433597	668.7999878
1549.947455	668.0
1550.461259	668.0
1550.975009	668.5999756
1551.488704	668.7999878
1552.002345	665.5999756
1552.515931	665.2000122
1553.029463	669.5999756
1553.542941	668.4000244
1554.056364	667.4000244
1554.569733	669.7999878
1555.083048	670.5999756
1555.596308	666.2000122
1556.109514	670.2000122
1556.622665	666.7999878
1557.135762	666.2000122
1557.648805	668.4000244
1558.161794	666.7999878
1558.674728	668.2000122
1559.187608	670.4000244
1559.700433	666.7999878
1560.213205	669.4000244
1560.725921	669.5999756
1561.238584	668.2000122
1561.751192	668.7999878
1562.263746	664.2000122
1562.776246	668.4000244
1563.288691	663.0
1563.801082	669.4000244
1564.313419	669.0
1564.825701	667.5999756
1565.337929	670.7999878
1565.850103	669.4000244
1566.362223	669.0
1566.874288	670.4000244
1567.386299	669.5999756
1567.898256	668.2000122
1568.410158	672.5999756
1568.922007	668.2000122
1569.4338	670.4000244
1569.94554	668.4000244
1570.457226	665.4000244
1570.968857	668.4000244
1571.480434	670.2000122
1571.991956	664.7999878
1572.503425	666.0
1573.014839	668.2000122
1573.526199	669.5999756
1574.037505	668.4000244
1574.548756	669.4000244
1575.059953	666.2000122
1575.571096	670.5999756
1576.082185	667.5999756
1576.59322	666.5999756
1577.1042	666.5999756
1577.615126	668.0
1578.125998	667.4000244
1578.636816	671.0
1579.14758	670.5999756
1579.658289	669.0
1580.168944	669.2000122
1580.679545	670.2000122
1581.190092	667.7999878
1581.700585	667.2000122
1582.211023	667.0
1582.721407	666.4000244
1583.231737	670.4000244
1583.742013	673.4000244
1584.252235	668.2000122
1584.762403	669.0
1585.272516	668.4000244
1585.782575	669.2000122
1586.292581	670.4000244
1586.802532	667.5999756
1587.312428	667.7999878
1587.822271	667.7999878
1588.33206	671.2000122
1588.841794	666.0
1589.351474	665.7999878
1589.8611	666.2000122
1590.370672	666.2000122
1590.88019	668.0
1591.389654	667.0
1591.899064	666.5999756
1592.408419	668.5999756
