1042.452273	686.2000122
1043.018714	686.7999878
1043.585098	687.0
1044.151424	688.0
1044.717692	689.2000122
1045.283903	685.0
1045.850056	685.0
1046.416151	684.4000244
1046.982188	686.2000122
1047.548167	686.2000122
1048.114089	680.4000244
1048.679953	680.2000122
1049.24576	681.7999878
1049.811509	685.5999756
1050.3772	687.7999878
1050.942833	682.5999756
1051.508408	684.4000244
1052.073926	682.0
1052.639387	680.5999756
1053.204789	681.7999878
1053.770134	682.7999878
1054.335421	680.7999878
1054.900651	682.0
1055.465823	679.2000122
1056.030937	681.4000244
1056.595993	683.0
1057.160992	681.5999756
1057.725934	678.2000122
1058.290817	679.4000244
1058.855643	682.0
1059.420411	678.5999756
1059.985122	681.5999756
1060.549775	676.7999878
1061.114371	679.4000244
1061.678908	678.7999878
1062.243389	679.0
1062.807811	681.5999756
1063.372176	676.4000244
1063.936483	679.4000244
1064.500733	676.7999878
1065.064925	677.0
1065.62906	678.2000122
1066.193137	678.5999756
1066.757156	676.7999878
1067.321118	676.0
1067.885022	683.0
1068.448869	678.4000244
1069.012658	681.5999756
1069.57639	680.5999756
1070.140063	685.5999756
1070.70368	676.7999878
1071.267239	678.4000244
1071.83074	677.4000244
1072.394184	675.7999878
1072.95757	679.2000122
1073.520899	676.5999756
1074.08417	678.5999756
1074.647383	677.5999756
1075.21054	677.2000122
1075.773638	679.4000244
1076.336679	679.7999878
1076.899663	679.7999878
1077.462589	679.4000244
1078.025457	681.7999878
1078.588268	677.4000244
1079.151022	681.5999756
1079.713718	683.0
1080.276356	683.0
1080.838937	678.5999756
1081.401461	680.5999756
1081.963927	679.2000122
1082.526336	680.7999878
1083.088687	684.2000122
1083.650981	685.2000122
1084.213217	680.7999878
1084.775396	683.0
1085.337517	684.4000244
1085.899581	689.7999878
1086.461587	682.4000244
1087.023536	689.2000122
1087.585428	683.0
1088.147262	684.5999756
1088.709039	689.4000244
1089.270758	684.0
1089.83242	688.4000244
1090.394024	686.0
1090.955571	688.5999756
1091.517061	688.2000122
1092.078493	686.0
1092.639868	688.5999756
1093.201185	689.2000122
1093.762445	688.0
1094.323648	687.2000122
1094.884793	689.4000244
1095.445881	689.2000122
1096.006911	683.0
1096.567884	686.7999878
1097.1288	694.5999756
1097.689659	690.0
1098.25046	685.7999878
1098.811203	682.0
1099.37189	686.0
1099.932518	686.7999878
1100.49309	686.0
1101.053604	686.0
1101.614061	682.0
1102.174461	680.2000122
1102.734803	678.7999878
1103.295088	683.4000244
1103.855316	686.4000244
1104.415486	681.2000122
1104.975599	681.7999878
1105.535655	681.2000122
1106.095653	681.4000244
1106.655594	681.4000244
1107.215478	680.4000244
1107.775305	677.2000122
1108.335074	683.0
1108.894786	679.0
1109.45444	682.2000122
1110.014038	679.0
1110.573578	682.0
1111.133061	679.5999756
1111.692486	682.0
1112.251854	682.5999756
1112.811165	679.5999756
1113.370419	680.4000244
1113.929616	679.0
1114.488755	678.2000122
1115.047837	678.2000122
1115.606862	677.2000122
1116.16583	679.2000122
1116.72474	681.4000244
1117.283593	678.0
1117.842389	679.0
1118.401128	681.2000122
1118.959809	676.7999878
1119.518433	678.7999878
1120.077	676.5999756
1120.63551	677.7999878
1121.193963	679.4000244
1121.752358	678.2000122
1122.310697	675.0
1122.868978	677.2000122
1123.427202	681.0
1123.985368	677.2000122
1124.543478	677.4000244
1125.10153	673.7999878
1125.659526	679.4000244
1126.217464	676.7999878
1126.775345	677.2000122
1127.333168	676.0
1127.890935	675.2000122
1128.448644	677.0
1129.006297	678.4000244
1129.563892	676.2000122
1130.12143	677.7999878
1130.678911	676.5999756
1131.236335	676.5999756
1131.793701	676.5999756
1132.351011	677.7999878
1132.908263	674.4000244
1133.465458	672.4000244
1134.022597	676.5999756
1134.579678	675.7999878
1135.136702	677.2000122
1135.693669	680.0
1136.250578	676.5999756
1136.807431	677.4000244
1137.364227	676.4000244
1137.920965	675.7999878
1138.477647	679.7999878
1139.034271	678.7999878
1139.590839	677.5999756
1140.147349	676.0
1140.703802	680.7999878
1141.260198	674.7999878
1141.816537	678.2000122
1142.37282	677.2000122
1142.929045	679.2000122
1143.485213	676.4000244
1144.041323	678.0
1144.597377	676.7999878
1145.153374	680.2000122
1145.709314	679.4000244
1146.265197	674.2000122
1146.821023	673.0
1147.376792	676.7999878
1147.932503	679.2000122
1148.488158	679.2000122
1149.043756	676.7999878
1149.599297	679.4000244
1150.154781	677.5999756
1150.710207	680.4000244
1151.265577	676.0
1151.82089	677.7999878
1152.376146	675.0
1152.931345	675.7999878
1153.486487	677.5999756
1154.041572	679.7999878
1154.5966	679.2000122
1155.151571	676.5999756
1155.706485	675.4000244
1156.261342	679.7999878
1156.816142	678.2000122
1157.370885	677.4000244
1157.925572	677.7999878
1158.480201	676.4000244
1159.034774	677.5999756
1159.589289	679.2000122
1160.143748	679.5999756
1160.698149	678.5999756
1161.252494	676.4000244
1161.806782	679.2000122
1162.361013	681.0
1162.915187	678.4000244
1163.469304	676.4000244
1164.023364	678.7999878
1164.577368	675.5999756
1165.131314	675.7999878
1165.685204	678.2000122
1166.239036	677.0
1166.792812	678.0
1167.346531	677.4000244
1167.900193	678.5999756
1168.453798	677.0
1169.007347	677.0
1169.560838	676.7999878
1170.114273	676.7999878
1170.66765	677.2000122
1171.220971	675.2000122
1171.774235	677.7999878
1172.327443	679.0
1172.880593	676.2000122
1173.433687	677.2000122
1173.986723	676.7999878
1174.539703	677.7999878
1175.092626	680.4000244
1175.645493	673.7999878
1176.198302	677.5999756
1176.751055	676.7999878
1177.303751	680.2000122
1177.85639	677.7999878
1178.408972	677.4000244
1178.961498	681.0
1179.513966	676.2000122
1180.066378	674.4000244
1180.618733	675.7999878
1181.171032	680.2000122
1181.723273	681.5999756
1182.275458	680.0
1182.827586	677.0
1183.379657	677.7999878
1183.931672	678.7999878
1184.48363	678.4000244
1185.035531	678.4000244
1185.587375	681.0
1186.139162	677.5999756
1186.690893	679.2000122
1187.242567	677.5999756
1187.794184	678.5999756
1188.345745	679.5999756
1188.897249	679.2000122
1189.448696	676.2000122
1190.000086	675.2000122
1190.55142	678.2000122
1191.102697	679.0
1191.653918	680.0
1192.205081	680.4000244
1192.756188	682.5999756
1193.307238	698.7999878
1193.858232	680.0
1194.409169	674.4000244
1194.960049	679.0
1195.510872	681.5999756
1196.061639	678.0
1196.612349	676.7999878
1197.163003	676.7999878
1197.713599	675.5999756
1198.264139	676.2000122
1198.814623	678.2000122
1199.36505	676.4000244
1199.91542	681.2000122
1200.465734	679.4000244
1201.01599	677.0
1201.566191	677.7999878
1202.116334	677.2000122
1202.666421	678.5999756
1203.216452	677.7999878
1203.766425	680.2000122
1204.316343	678.2000122
1204.866203	680.4000244
1205.416007	676.4000244
1205.965754	679.7999878
1206.515445	678.4000244
1207.065079	677.7999878
1207.614657	678.7999878
1208.164177	676.5999756
1208.713642	681.2000122
1209.26305	679.5999756
1209.812401	682.7999878
1210.361695	677.4000244
1210.910933	682.2000122
1211.460115	679.4000244
1212.00924	681.2000122
1212.558308	681.7999878
1213.10732	680.4000244
1213.656275	678.4000244
1214.205174	675.4000244
1214.754016	679.4000244
1215.302801	680.4000244
1215.85153	681.0
1216.400203	677.7999878
1216.948819	679.5999756
1217.497378	679.0
1218.045881	678.0
1218.594327	678.0
1219.142717	678.4000244
1219.691051	678.2000122
1220.239327	681.4000244
1220.787548	678.0
1221.335712	679.4000244
1221.883819	682.2000122
1222.43187	678.2000122
1222.979864	679.5999756
1223.527802	682.0
1224.075683	684.2000122
1224.623508	681.5999756
1225.171277	682.0
1225.718989	680.2000122
1226.266644	679.4000244
1226.814243	681.5999756
1227.361786	682.2000122
1227.909272	680.7999878
1228.456702	677.7999878
1229.004075	683.2000122
1229.551392	682.4000244
1230.098652	677.5999756
1230.645856	681.5999756
1231.193003	676.7999878
1231.740094	684.7999878
1232.287129	680.2000122
1232.834107	676.2000122
1233.381029	681.4000244
1233.927894	681.2000122
1234.474703	682.2000122
1235.021455	679.5999756
1235.568151	677.7999878
1236.114791	677.7999878
1236.661374	682.7999878
1237.207901	678.5999756
1237.754372	678.7999878
1238.300786	679.7999878
1238.847144	679.4000244
1239.393445	680.0
1239.93969	680.2000122
1240.485879	679.0
1241.032011	683.5999756
1241.578087	677.5999756
1242.124106	679.5999756
1242.67007	681.2000122
1243.215976	678.4000244
1243.761827	681.0
1244.307621	676.5999756
1244.853359	684.4000244
1245.39904	681.5999756
1245.944665	681.7999878
1246.490234	683.4000244
1247.035746	680.0
1247.581203	683.7999878
1248.126602	683.2000122
1248.671946	678.0
1249.217233	679.2000122
1249.762464	678.5999756
1250.307638	682.5999756
1250.852757	682.2000122
1251.397819	682.4000244
1251.942824	680.7999878
1252.487774	679.5999756
1253.032667	681.2000122
1253.577503	681.4000244
1254.122284	679.4000244
1254.667008	681.7999878
1255.211676	680.5999756
1255.756288	683.7999878
1256.300843	680.7999878
1256.845342	680.5999756
1257.389785	682.7999878
1257.934172	683.7999878
1258.478502	682.2000122
1259.022776	685.5999756
1259.566994	683.2000122
1260.111156	701.0
1260.655261	681.0
1261.199311	685.5999756
1261.743304	680.7999878
1262.28724	685.7999878
1262.831121	691.0
1263.374945	692.0
1263.918713	695.4000244
1264.462425	699.0
1265.006081	703.5999756
1265.54968	695.5999756
1266.093223	691.4000244
1266.636711	686.7999878
1267.180141	690.7999878
1267.723516	680.5999756
1268.266835	684.7999878
1268.810097	680.7999878
1269.353303	679.4000244
1269.896453	680.7999878
1270.439547	683.5999756
1270.982584	680.2000122
1271.525566	680.2000122
1272.068491	686.2000122
1272.61136	683.5999756
1273.154173	680.4000244
1273.69693	683.7999878
1274.239631	683.5999756
1274.782275	682.4000244
1275.324864	684.7999878
1275.867396	682.4000244
1276.409872	683.7999878
1276.952292	683.0
1277.494656	683.2000122
1278.036964	684.5999756
1278.579215	683.0
1279.121411	681.7999878
1279.66355	691.2000122
1280.205634	685.7999878
1280.747661	690.5999756
1281.289632	691.2000122
1281.831547	697.5999756
1282.373406	710.7999878
1282.915209	741.4000244
1283.456955	785.4000244
1283.998646	871.7999878
1284.540281	986.2000122
1285.081859	1036.599976
1285.623381	901.5999756
1286.164848	772.2000122
1286.706258	719.7999878
1287.247612	703.5999756
1287.788911	692.7999878
1288.330153	687.7999878
1288.871339	689.4000244
1289.412469	686.0
1289.953543	683.5999756
1290.494561	683.5999756
1291.035523	684.4000244
1291.576428	682.4000244
1292.117278	682.0
1292.658072	682.4000244
1293.19881	680.7999878
1293.739492	684.7999878
1294.280118	682.0
1294.820687	684.0
1295.361201	682.2000122
1295.901659	682.2000122
1296.442061	681.7999878
1296.982406	683.0
1297.522696	680.4000244
1298.06293	680.0
1298.603108	684.4000244
1299.143229	683.7999878
1299.683295	684.2000122
1300.223305	683.0
1300.763259	682.5999756
1301.303157	677.5999756
1301.842999	677.5999756
1302.382785	678.4000244
1302.922515	680.2000122
1303.462189	677.7999878
1304.001807	682.5999756
1304.541369	680.7999878
1305.080875	677.4000244
1305.620326	679.2000122
1306.15972	675.7999878
1306.699058	677.4000244
1307.238341	680.5999756
1307.777567	683.4000244
1308.316738	676.4000244
1308.855853	677.5999756
1309.394912	681.5999756
1309.933915	679.7999878
1310.472862	678.0
1311.011753	680.0
1311.550588	678.0
1312.089367	679.0
1312.62809	679.5999756
1313.166758	678.4000244
1313.70537	681.5999756
1314.243925	681.5999756
1314.782425	679.7999878
1315.320869	681.0
1315.859257	680.5999756
1316.397589	680.2000122
1316.935866	677.4000244
1317.474086	679.4000244
1318.012251	678.2000122
1318.55036	679.0
1319.088413	677.0
1319.62641	680.7999878
1320.164351	680.2000122
1320.702236	676.5999756
1321.240066	678.7999878
1321.777839	678.2000122
1322.315557	680.2000122
1322.853219	679.2000122
1323.390826	681.7999878
1323.928376	682.7999878
1324.465871	676.7999878
1325.003309	677.2000122
1325.540692	679.2000122
1326.07802	679.5999756
1326.615291	675.5999756
1327.152506	677.2000122
1327.689666	676.5999756
1328.22677	679.2000122
1328.763818	678.5999756
1329.300811	678.7999878
1329.837747	674.7999878
1330.374628	676.5999756
1330.911453	677.4000244
1331.448222	680.2000122
1331.984936	678.7999878
1332.521594	676.2000122
1333.058196	680.0
1333.594742	677.5999756
1334.131232	677.2000122
1334.667667	679.0
1335.204046	676.5999756
1335.740369	681.4000244
1336.276637	681.0
1336.812848	680.0
1337.349004	680.0
1337.885105	677.5999756
1338.421149	680.0
1338.957138	677.5999756
1339.493071	679.5999756
1340.028949	679.0
1340.56477	679.7999878
1341.100536	675.5999756
1341.636246	677.4000244
1342.171901	676.2000122
1342.7075	678.5999756
1343.243043	679.2000122
1343.77853	677.7999878
1344.313962	681.4000244
1344.849338	678.0
1345.384659	682.4000244
1345.919923	675.5999756
1346.455133	676.4000244
1346.990286	677.4000244
1347.525384	678.5999756
1348.060426	678.0
1348.595412	677.2000122
1349.130343	677.2000122
1349.665218	676.4000244
1350.200037	678.2000122
1350.734801	681.2000122
1351.269509	679.2000122
1351.804162	680.7999878
1352.338758	679.2000122
1352.8733	675.2000122
1353.407785	677.5999756
1353.942215	678.5999756
1354.476589	676.5999756
1355.010908	678.2000122
1355.545171	680.2000122
1356.079379	676.7999878
1356.61353	679.0
1357.147627	683.7999878
1357.681667	677.0
1358.215652	680.7999878
1358.749582	680.5999756
1359.283456	679.4000244
1359.817274	680.0
1360.351037	677.0
1360.884744	679.4000244
1361.418395	677.7999878
1361.951991	677.0
1362.485531	681.5999756
1363.019016	677.4000244
1363.552445	680.7999878
1364.085819	680.0
1364.619137	679.2000122
1365.1524	681.5999756
1365.685607	679.7999878
1366.218758	680.4000244
1366.751854	677.2000122
1367.284894	682.0
1367.817879	679.5999756
1368.350808	679.7999878
1368.883682	682.4000244
1369.4165	678.2000122
1369.949263	688.2000122
1370.48197	694.5999756
1371.014622	686.0
1371.547218	679.0
1372.079758	682.2000122
1372.612244	682.5999756
1373.144673	679.0
1373.677047	680.5999756
1374.209366	682.7999878
1374.741629	684.0
1375.273836	680.7999878
1375.805989	680.2000122
1376.338085	682.5999756
1376.870126	683.5999756
1377.402112	681.7999878
1377.934042	681.2000122
1378.465917	682.7999878
1378.997736	680.0
1379.5295	683.0
1380.061208	684.7999878
1380.592861	685.2000122
1381.124459	686.0
1381.656	686.0
1382.187487	686.2000122
1382.718918	684.7999878
1383.250294	689.5999756
1383.781614	689.7999878
1384.312879	690.0
1384.844088	698.7999878
1385.375242	701.4000244
1385.90634	709.4000244
1386.437383	732.2000122
1386.968371	763.2000122
1387.499303	878.7999878
1388.03018	1134.0
1388.561001	1410.599976
1389.091767	1146.800049
1389.622478	840.7999878
1390.153133	742.5999756
1390.683733	711.7999878
1391.214277	700.2000122
1391.744766	695.0
1392.2752	690.7999878
1392.805578	687.7999878
1393.335901	683.5999756
1393.866168	689.0
1394.396381	685.4000244
1394.926537	684.0
1395.456639	683.0
1395.986685	681.0
1396.516675	683.2000122
1397.046611	682.5999756
1397.576491	676.2000122
1398.106315	681.7999878
1398.636084	682.2000122
1399.165798	682.5999756
1399.695457	681.5999756
1400.22506	681.4000244
1400.754608	683.0
1401.284101	685.4000244
1401.813538	682.4000244
1402.34292	680.2000122
1402.872247	682.5999756
1403.401518	678.7999878
1403.930734	678.2000122
1404.459895	678.7999878
1404.989	681.4000244
1405.51805	681.2000122
1406.047045	681.2000122
1406.575984	681.7999878
1407.104869	686.7999878
1407.633697	686.4000244
1408.162471	692.4000244
1408.691189	695.2000122
1409.219852	705.5999756
1409.74846	715.2000122
1410.277013	713.7999878
1410.80551	705.0
1411.333952	689.7999878
1411.862339	683.2000122
1412.39067	681.4000244
1412.918946	683.5999756
1413.447167	679.4000244
1413.975333	681.4000244
1414.503444	679.7999878
1415.031499	678.5999756
1415.559499	687.5999756
1416.087444	677.4000244
1416.615333	678.2000122
1417.143167	677.5999756
1417.670947	676.7999878
1418.19867	675.2000122
1418.726339	678.7999878
1419.253952	680.0
1419.781511	674.4000244
1420.309014	677.7999878
1420.836461	681.7999878
1421.363854	676.7999878
1421.891191	678.5999756
1422.418474	675.2000122
1422.945701	679.4000244
1423.472872	676.4000244
1423.999989	677.0
1424.52705	676.7999878
1425.054057	677.5999756
1425.581008	679.5999756
1426.107904	677.5999756
1426.634745	677.2000122
1427.16153	675.0
1427.688261	675.0
1428.214936	675.7999878
1428.741556	678.2000122
1429.268121	677.4000244
1429.794631	676.2000122
1430.321085	673.0
1430.847485	676.2000122
1431.373829	676.4000244
1431.900118	676.2000122
1432.426353	677.2000122
1432.952532	676.0
1433.478655	676.5999756
1434.004724	675.5999756
1434.530738	676.4000244
1435.056696	674.7999878
1435.5826	674.5999756
1436.108448	674.4000244
1436.634241	675.0
1437.159979	675.5999756
1437.685662	676.7999878
1438.21129	677.7999878
1438.736863	674.0
1439.262381	676.5999756
1439.787843	674.5999756
1440.313251	676.0
1440.838603	677.5999756
1441.3639	674.4000244
1441.889143	675.7999878
1442.41433	675.5999756
1442.939462	674.0
1443.464539	676.4000244
1443.989561	677.2000122
1444.514528	673.5999756
1445.03944	676.5999756
1445.564297	678.0
1446.089099	672.2000122
1446.613846	676.7999878
1447.138537	676.0
1447.663174	679.4000244
1448.187756	676.7999878
1448.712282	677.2000122
1449.236754	674.5999756
1449.761171	675.2000122
1450.285532	674.4000244
1450.809839	673.4000244
1451.33409	673.2000122
1451.858287	673.5999756
1452.382428	671.5999756
1452.906515	676.0
1453.430546	676.5999756
1453.954523	672.5999756
1454.478444	674.2000122
1455.002311	674.0
1455.526123	677.7999878
1456.049879	674.0
1456.573581	673.4000244
1457.097227	676.4000244
1457.620819	672.7999878
1458.144356	676.5999756
1458.667837	676.4000244
1459.191264	675.2000122
1459.714636	675.0
1460.237952	677.5999756
1460.761214	676.4000244
1461.284421	680.4000244
1461.807573	673.5999756
1462.33067	675.0
1462.853712	689.0
1463.899632	683.0
1464.422509	674.2000122
1464.945331	674.0
1465.468099	672.7999878
1465.990811	678.5999756
1466.513469	677.0
1467.036071	676.7999878
1467.558619	676.7999878
1468.081112	674.0
1468.60355	672.5999756
1469.125933	676.4000244
1469.648261	674.7999878
1470.170534	673.7999878
1470.692752	675.4000244
1471.214916	672.5999756
1471.737024	675.5999756
1472.259078	674.0
1472.781077	673.5999756
1473.303021	676.2000122
1473.82491	673.2000122
1474.346744	675.5999756
1474.868523	674.4000244
1475.390248	674.4000244
1475.911917	675.0
1476.433532	675.0
1476.955092	675.2000122
1477.476597	674.7999878
1477.998047	671.7999878
1478.519442	673.5999756
1479.040783	673.5999756
1479.562068	677.0
1480.083299	675.0
1480.604475	676.2000122
1481.125596	671.2000122
1481.646663	674.5999756
1482.167674	675.5999756
1482.688631	670.5999756
1483.209533	671.0
1483.73038	674.2000122
1484.251172	674.0
1484.771909	673.2000122
1485.292592	673.4000244
1485.81322	672.0
1486.333793	677.0
1486.854311	675.7999878
1487.374775	670.2000122
1487.895183	674.4000244
1488.415537	674.4000244
1488.935836	672.4000244
1489.456081	670.0
1489.97627	673.7999878
1490.496405	675.0
1491.016485	672.5999756
1491.536511	670.0
1492.056481	672.7999878
1492.576397	670.4000244
1493.096258	673.2000122
1493.616064	673.4000244
1494.135816	674.7999878
1494.655513	673.4000244
1495.175155	674.7999878
1495.694742	671.7999878
1496.214274	674.0
1496.733752	673.0
1497.253175	672.5999756
1497.772544	671.7999878
1498.291858	671.4000244
1498.811116	673.2000122
1499.330321	671.0
1499.84947	682.0
1500.368565	673.2000122
1500.887605	671.4000244
1501.406591	673.7999878
1501.925521	670.5999756
1502.444397	674.2000122
1502.963219	674.0
1503.481985	671.7999878
1504.000697	671.7999878
1504.519355	669.0
1505.037957	671.7999878
1505.556505	673.2000122
1506.074999	673.0
1506.593437	670.5999756
1507.111821	672.4000244
1507.63015	674.2000122
1508.148425	672.4000244
1508.666645	675.2000122
1509.18481	673.7999878
1509.702921	674.7999878
1510.220977	672.4000244
1510.738979	680.4000244
1511.256925	667.4000244
1511.774817	670.4000244
1512.292655	672.0
1512.810438	673.0
1513.328166	674.2000122
1513.84584	673.5999756
1514.363459	672.5999756
1514.881023	673.2000122
1515.398533	672.2000122
1515.915988	673.5999756
1516.433389	673.4000244
1516.950734	673.0
1517.468026	670.5999756
1517.985263	669.7999878
1518.502445	673.7999878
1519.019572	670.4000244
1519.536645	672.4000244
1520.053664	674.4000244
1520.570628	672.4000244
1521.087537	672.0
1521.604392	674.0
1522.121192	674.0
1522.637937	672.4000244
1523.154628	671.5999756
1523.671265	672.5999756
1524.187847	672.7999878
1524.704374	675.7999878
1525.220847	672.7999878
1525.737265	681.0
1526.253629	697.0
1526.769938	685.2000122
1527.286192	674.7999878
1527.802392	672.7999878
1528.318538	670.2000122
1528.834629	671.2000122
1529.350666	672.5999756
1529.866648	674.5999756
1530.382575	674.0
1530.898448	675.2000122
1531.414266	673.4000244
1531.93003	673.0
1532.44574	669.0
1532.961395	671.4000244
1533.476995	675.4000244
1533.992541	675.5999756
1534.508033	670.5999756
1535.02347	670.2000122
1535.538852	674.0
1536.05418	671.4000244
1536.569454	670.5999756
1537.084673	673.0
1537.599837	672.5999756
1538.114947	671.7999878
1538.630003	672.2000122
1539.145004	674.0
1539.659951	673.4000244
1540.174843	672.7999878
1540.689681	671.7999878
1541.204465	669.7999878
1541.719194	674.4000244
1542.233868	672.7999878
1542.748488	667.5999756
1543.263054	672.4000244
1543.777565	670.7999878
1544.292022	669.2000122
1544.806424	674.7999878
1545.320772	673.2000122
1545.835066	675.2000122
1546.349305	673.2000122
1546.863489	673.4000244
1547.37762	672.5999756
1547.891696	671.0
1548.405717	669.7999878
1548.919684	670.4000244
1549.433597	673.2000122
1549.947455	677.5999756
1550.461259	670.5999756
1550.975009	674.5999756
1551.488704	674.4000244
1552.002345	674.4000244
1552.515931	675.0
1553.029463	673.5999756
1553.542941	673.0
1554.056364	670.2000122
1554.569733	673.5999756
1555.083048	671.5999756
1555.596308	671.2000122
1556.109514	672.5999756
1556.622665	672.5999756
1557.135762	674.2000122
1557.648805	671.2000122
1558.161794	670.7999878
1558.674728	673.7999878
1559.187608	672.4000244
1559.700433	672.2000122
1560.213205	671.0
1560.725921	669.4000244
1561.238584	674.2000122
1561.751192	670.7999878
1562.263746	672.2000122
1562.776246	673.7999878
1563.288691	675.5999756
1563.801082	675.0
1564.313419	673.7999878
1564.825701	672.5999756
1565.337929	677.0
1565.850103	674.7999878
1566.362223	675.5999756
1566.874288	675.4000244
1567.386299	676.4000244
1567.898256	677.5999756
1568.410158	673.2000122
1568.922007	673.2000122
1569.4338	676.4000244
1569.94554	675.7999878
1570.457226	673.4000244
1570.968857	669.4000244
1571.480434	673.7999878
1571.991956	672.5999756
1572.503425	671.0
1573.014839	671.2000122
1573.526199	672.7999878
1574.037505	670.5999756
1574.548756	673.4000244
1575.059953	673.5999756
1575.571096	673.4000244
1576.082185	668.7999878
1576.59322	670.7999878
1577.1042	674.0
1577.615126	669.5999756
1578.125998	671.0
1578.636816	673.2000122
1579.14758	673.0
1579.658289	672.2000122
1580.168944	670.2000122
1580.679545	673.7999878
1581.190092	673.4000244
1581.700585	671.0
1582.211023	673.5999756
1582.721407	672.0
1583.231737	672.7999878
1583.742013	671.5999756
1584.252235	672.0
1584.762403	674.0
1585.272516	672.0
1585.782575	672.7999878
1586.292581	672.5999756
1586.802532	673.0
1587.312428	669.7999878
1587.822271	671.7999878
1588.33206	675.0
1588.841794	673.4000244
1589.351474	670.7999878
1589.8611	670.2000122
1590.370672	673.2000122
1590.88019	672.2000122
1591.389654	671.7999878
1591.899064	672.2000122
1592.408419	669.5999756
