1042.452273	687.0
1043.018714	692.2000122
1043.585098	689.0
1044.151424	688.4000244
1044.717692	688.5999756
1045.283903	687.4000244
1045.850056	685.7999878
1046.416151	686.4000244
1046.982188	684.4000244
1047.548167	683.4000244
1048.114089	688.2000122
1048.679953	683.2000122
1049.24576	682.4000244
1049.811509	684.4000244
1050.3772	684.7999878
1050.942833	687.4000244
1051.508408	684.2000122
1052.073926	682.7999878
1052.639387	680.2000122
1053.204789	683.4000244
1053.770134	683.5999756
1054.335421	682.2000122
1054.900651	684.2000122
1055.465823	680.4000244
1056.030937	679.4000244
1056.595993	684.0
1057.160992	682.4000244
1057.725934	679.4000244
1058.290817	678.5999756
1058.855643	676.4000244
1059.420411	680.2000122
1059.985122	678.4000244
1060.549775	678.4000244
1061.114371	679.4000244
1061.678908	678.5999756
1062.243389	680.5999756
1062.807811	679.5999756
1063.372176	679.7999878
1063.936483	683.2000122
1064.500733	677.0
1065.064925	676.0
1065.62906	677.4000244
1066.193137	678.0
1066.757156	681.5999756
1067.321118	677.7999878
1067.885022	680.0
1068.448869	678.7999878
1069.012658	679.5999756
1069.57639	681.4000244
1070.140063	687.2000122
1070.70368	677.2000122
1071.267239	677.4000244
1071.83074	680.0
1072.394184	679.7999878
1072.95757	678.5999756
1073.520899	675.7999878
1074.08417	677.4000244
1074.647383	679.7999878
1075.21054	677.4000244
1075.773638	680.4000244
1076.336679	677.0
1076.899663	679.2000122
1077.462589	679.2000122
1078.025457	675.0
1078.588268	677.7999878
1079.151022	679.4000244
1079.713718	675.5999756
1080.276356	681.5999756
1080.838937	678.4000244
1081.401461	678.7999878
1081.963927	678.4000244
1082.526336	677.2000122
1083.088687	675.7999878
1083.650981	678.4000244
1084.213217	681.4000244
1084.775396	681.7999878
1085.337517	680.2000122
1085.899581	681.7999878
1086.461587	680.0
1087.023536	678.0
1087.585428	681.0
1088.147262	678.5999756
1088.709039	681.5999756
1089.270758	679.7999878
1089.83242	677.2000122
1090.394024	680.2000122
1090.955571	679.5999756
1091.517061	683.2000122
1092.078493	680.5999756
1092.639868	681.5999756
1093.201185	678.4000244
1093.762445	678.4000244
1094.323648	677.4000244
1094.884793	680.7999878
1095.445881	681.2000122
1096.006911	679.0
1096.567884	679.5999756
1097.1288	687.7999878
1097.689659	679.4000244
1098.25046	676.7999878
1098.811203	681.5999756
1099.37189	681.5999756
1099.932518	678.2000122
1100.49309	678.2000122
1101.053604	679.7999878
1101.614061	679.4000244
1102.174461	681.7999878
1102.734803	679.4000244
1103.295088	678.0
1103.855316	682.0
1104.415486	680.7999878
1104.975599	680.4000244
1105.535655	679.2000122
1106.095653	680.4000244
1106.655594	686.4000244
1107.215478	684.4000244
1107.775305	684.0
1108.335074	684.0
1108.894786	682.5999756
1109.45444	685.7999878
1110.014038	688.4000244
1110.573578	688.4000244
1111.133061	690.0
1111.692486	687.4000244
1112.251854	691.0
1112.811165	690.7999878
1113.370419	692.0
1113.929616	691.4000244
1114.488755	692.0
1115.047837	689.2000122
1115.606862	687.7999878
1116.16583	690.5999756
1116.72474	686.7999878
1117.283593	688.0
1117.842389	685.7999878
1118.401128	686.0
1118.959809	683.2000122
1119.518433	682.7999878
1120.077	684.4000244
1120.63551	684.0
1121.193963	683.2000122
1121.752358	682.7999878
1122.310697	682.0
1122.868978	679.5999756
1123.427202	683.7999878
1123.985368	682.4000244
1124.543478	680.2000122
1125.10153	681.0
1125.659526	682.5999756
1126.217464	680.4000244
1126.775345	680.4000244
1127.333168	679.0
1127.890935	678.7999878
1128.448644	680.7999878
1129.006297	677.0
1129.563892	677.4000244
1130.12143	681.0
1130.678911	676.7999878
1131.236335	678.4000244
1131.793701	677.5999756
1132.351011	678.0
1132.908263	680.4000244
1133.465458	677.4000244
1134.022597	681.7999878
1134.579678	681.4000244
1135.136702	677.7999878
1135.693669	680.4000244
1136.250578	680.7999878
1136.807431	676.4000244
1137.364227	677.5999756
1137.920965	677.4000244
1138.477647	676.2000122
1139.034271	679.0
1139.590839	677.0
1140.147349	679.4000244
1140.703802	679.2000122
1141.260198	679.2000122
1141.816537	679.2000122
1142.37282	681.5999756
1142.929045	677.0
1143.485213	678.7999878
1144.041323	678.7999878
1144.597377	680.7999878
1145.153374	678.7999878
1145.709314	678.4000244
1146.265197	679.4000244
1146.821023	679.2000122
1147.376792	680.0
1147.932503	679.0
1148.488158	681.4000244
1149.043756	678.5999756
1149.599297	678.5999756
1150.154781	677.2000122
1150.710207	679.5999756
1151.265577	678.4000244
1151.82089	678.5999756
1152.376146	681.7999878
1152.931345	677.5999756
1153.486487	680.4000244
1154.041572	675.5999756
1154.5966	684.0
1155.151571	680.5999756
1155.706485	676.4000244
1156.261342	677.0
1156.816142	677.7999878
1157.370885	676.2000122
1157.925572	679.2000122
1158.480201	679.4000244
1159.034774	677.5999756
1159.589289	678.7999878
1160.143748	678.2000122
1160.698149	678.7999878
1161.252494	675.2000122
1161.806782	677.7999878
1162.361013	677.2000122
1162.915187	674.5999756
1163.469304	677.5999756
1164.023364	678.0
1164.577368	678.4000244
1165.131314	674.0
1165.685204	674.5999756
1166.239036	675.2000122
1166.792812	678.2000122
1167.346531	682.4000244
1167.900193	677.7999878
1168.453798	677.7999878
1169.007347	675.7999878
1169.560838	677.7999878
1170.114273	679.4000244
1170.66765	677.2000122
1171.220971	677.5999756
1171.774235	677.2000122
1172.327443	678.0
1172.880593	678.2000122
1173.433687	679.4000244
1173.986723	678.4000244
1174.539703	678.0
1175.092626	675.0
1175.645493	679.7999878
1176.198302	680.5999756
1176.751055	682.2000122
1177.303751	676.7999878
1177.85639	681.4000244
1178.408972	677.2000122
1178.961498	682.2000122
1179.513966	682.2000122
1180.066378	682.0
1180.618733	682.0
1181.171032	682.7999878
1181.723273	684.7999878
1182.275458	683.4000244
1182.827586	683.7999878
1183.379657	684.5999756
1183.931672	685.2000122
1184.48363	685.4000244
1185.035531	686.0
1185.587375	690.5999756
1186.139162	687.2000122
1186.690893	687.2000122
1187.242567	689.4000244
1187.794184	685.7999878
1188.345745	686.5999756
1188.897249	684.2000122
1189.448696	689.2000122
1190.000086	686.4000244
1190.55142	683.2000122
1191.102697	684.4000244
1191.653918	681.0
1192.205081	682.2000122
1192.756188	683.5999756
1193.307238	700.2000122
1193.858232	678.4000244
1194.409169	678.7999878
1194.960049	678.2000122
1195.510872	681.5999756
1196.061639	682.5999756
1196.612349	680.4000244
1197.163003	679.0
1197.713599	676.2000122
1198.264139	681.5999756
1198.814623	676.4000244
1199.36505	678.7999878
1199.91542	678.7999878
1200.465734	679.7999878
1201.01599	680.0
1201.566191	676.4000244
1202.116334	678.4000244
1202.666421	678.7999878
1203.216452	683.0
1203.766425	676.2000122
1204.316343	678.2000122
1204.866203	679.5999756
1205.416007	682.4000244
1205.965754	683.2000122
1206.515445	681.0
1207.065079	679.4000244
1207.614657	679.0
1208.164177	683.2000122
1208.713642	678.4000244
1209.26305	681.0
1209.812401	680.7999878
1210.361695	679.4000244
1210.910933	683.0
1211.460115	680.2000122
1212.00924	683.2000122
1212.558308	682.4000244
1213.10732	684.4000244
1213.656275	682.0
1214.205174	681.0
1214.754016	680.0
1215.302801	681.0
1215.85153	681.7999878
1216.400203	683.0
1216.948819	682.7999878
1217.497378	682.5999756
1218.045881	683.2000122
1218.594327	681.2000122
1219.142717	684.4000244
1219.691051	685.0
1220.239327	685.0
1220.787548	684.5999756
1221.335712	681.7999878
1221.883819	681.5999756
1222.43187	684.5999756
1222.979864	684.5999756
1223.527802	684.2000122
1224.075683	684.4000244
1224.623508	687.0
1225.171277	688.2000122
1225.718989	684.2000122
1226.266644	686.0
1226.814243	689.4000244
1227.361786	689.4000244
1227.909272	688.4000244
1228.456702	683.5999756
1229.004075	690.5999756
1229.551392	687.2000122
1230.098652	687.2000122
1230.645856	684.0
1231.193003	689.5999756
1231.740094	690.2000122
1232.287129	685.0
1232.834107	685.0
1233.381029	685.4000244
1233.927894	689.2000122
1234.474703	689.5999756
1235.021455	688.4000244
1235.568151	685.2000122
1236.114791	687.5999756
1236.661374	684.5999756
1237.207901	688.0
1237.754372	684.0
1238.300786	682.5999756
1238.847144	686.2000122
1239.393445	689.2000122
1239.93969	683.5999756
1240.485879	685.5999756
1241.032011	688.4000244
1241.578087	684.7999878
1242.124106	684.5999756
1242.67007	687.5999756
1243.215976	683.2000122
1243.761827	687.4000244
1244.307621	687.4000244
1244.853359	690.4000244
1245.39904	688.0
1245.944665	686.7999878
1246.490234	685.7999878
1247.035746	687.7999878
1247.581203	687.2000122
1248.126602	687.4000244
1248.671946	687.4000244
1249.217233	691.0
1249.762464	686.2000122
1250.307638	688.5999756
1250.852757	692.5999756
1251.397819	688.2000122
1251.942824	682.4000244
1252.487774	690.5999756
1253.032667	685.7999878
1253.577503	689.5999756
1254.122284	687.2000122
1254.667008	687.4000244
1255.211676	686.5999756
1255.756288	689.0
1256.300843	691.2000122
1256.845342	691.0
1257.389785	688.5999756
1257.934172	691.5999756
1258.478502	697.2000122
1259.022776	694.7999878
1259.566994	691.2000122
1260.111156	708.5999756
1260.655261	691.0
1261.199311	694.7999878
1261.743304	699.0
1262.28724	698.7999878
1262.831121	704.0
1263.374945	710.2000122
1263.918713	711.5999756
1264.462425	719.4000244
1265.006081	717.4000244
1265.54968	709.0
1266.093223	697.4000244
1266.636711	697.7999878
1267.180141	697.4000244
1267.723516	695.5999756
1268.266835	693.2000122
1268.810097	689.2000122
1269.353303	690.0
1269.896453	687.5999756
1270.439547	692.5999756
1270.982584	689.2000122
1271.525566	691.5999756
1272.068491	689.0
1272.61136	688.2000122
1273.154173	687.5999756
1273.69693	688.4000244
1274.239631	687.5999756
1274.782275	691.7999878
1275.324864	690.2000122
1275.867396	689.5999756
1276.409872	692.7999878
1276.952292	692.5999756
1277.494656	695.0
1278.036964	689.5999756
1278.579215	694.5999756
1279.121411	694.5999756
1279.66355	698.0
1280.205634	705.2000122
1280.747661	707.2000122
1281.289632	715.5999756
1281.831547	733.2000122
1282.373406	773.7999878
1282.915209	849.0
1283.456955	972.5999756
1283.998646	1149.199951
1284.540281	1245.400024
1285.081859	1141.400024
1285.623381	937.2000122
1286.164848	798.4000244
1286.706258	745.4000244
1287.247612	722.5999756
1287.788911	712.2000122
1288.330153	705.5999756
1288.871339	703.4000244
1289.412469	701.7999878
1289.953543	698.2000122
1290.494561	692.7999878
1291.035523	695.7999878
1291.576428	695.7999878
1292.117278	696.0
1292.658072	695.0
1293.19881	693.2000122
1293.739492	697.0
1294.280118	693.4000244
1294.820687	690.4000244
1295.361201	693.2000122
1295.901659	691.0
1296.442061	689.5999756
1296.982406	687.4000244
1297.522696	689.5999756
1298.06293	691.5999756
1298.603108	690.0
1299.143229	690.7999878
1299.683295	691.7999878
1300.223305	689.2000122
1300.763259	686.7999878
1301.303157	690.7999878
1301.842999	689.2000122
1302.382785	692.0
1302.922515	688.7999878
1303.462189	687.0
1304.001807	690.0
1304.541369	685.2000122
1305.080875	685.0
1305.620326	686.5999756
1306.15972	689.4000244
1306.699058	685.2000122
1307.238341	687.2000122
1307.777567	689.0
1308.316738	687.7999878
1308.855853	683.0
1309.394912	686.2000122
1309.933915	684.7999878
1310.472862	683.2000122
1311.011753	688.2000122
1311.550588	685.7999878
1312.089367	687.4000244
1312.62809	685.2000122
1313.166758	687.2000122
1313.70537	685.0
1314.243925	686.0
1314.782425	681.5999756
1315.320869	684.7999878
1315.859257	684.2000122
1316.397589	684.0
1316.935866	682.4000244
1317.474086	681.5999756
1318.012251	682.5999756
1318.55036	682.7999878
1319.088413	683.4000244
1319.62641	680.7999878
1320.164351	680.7999878
1320.702236	679.7999878
1321.240066	682.0
1321.777839	679.4000244
1322.315557	681.5999756
1322.853219	682.2000122
1323.390826	679.4000244
1323.928376	686.4000244
1324.465871	678.0
1325.003309	681.7999878
1325.540692	679.7999878
1326.07802	684.2000122
1326.615291	683.0
1327.152506	684.5999756
1327.689666	681.2000122
1328.22677	683.5999756
1328.763818	682.5999756
1329.300811	683.2000122
1329.837747	680.2000122
1330.374628	679.0
1330.911453	683.2000122
1331.448222	680.5999756
1331.984936	682.0
1332.521594	684.0
1333.058196	679.4000244
1333.594742	680.4000244
1334.131232	677.2000122
1334.667667	681.5999756
1335.204046	680.5999756
1335.740369	677.7999878
1336.276637	678.4000244
1336.812848	680.0
1337.349004	682.2000122
1337.885105	679.7999878
1338.421149	680.2000122
1338.957138	680.2000122
1339.493071	682.2000122
1340.028949	679.2000122
1340.56477	680.4000244
1341.100536	678.5999756
1341.636246	680.4000244
1342.171901	684.0
1342.7075	682.0
1343.243043	680.2000122
1343.77853	683.0
1344.313962	682.0
1344.849338	682.0
1345.384659	683.0
1345.919923	680.0
1346.455133	682.7999878
1346.990286	682.4000244
1347.525384	681.7999878
1348.060426	682.2000122
1348.595412	681.4000244
1349.130343	681.2000122
1349.665218	680.5999756
1350.200037	681.5999756
1350.734801	682.2000122
1351.269509	680.7999878
1351.804162	680.7999878
1352.338758	680.5999756
1352.8733	686.7999878
1353.407785	681.2000122
1353.942215	680.5999756
1354.476589	683.4000244
1355.010908	679.2000122
1355.545171	681.7999878
1356.079379	680.5999756
1356.61353	681.7999878
1357.147627	681.7999878
1357.681667	681.2000122
1358.215652	679.2000122
1358.749582	680.7999878
1359.283456	684.4000244
1359.817274	685.5999756
1360.351037	680.5999756
1360.884744	683.0
1361.418395	678.4000244
1361.951991	682.2000122
1362.485531	683.0
1363.019016	683.4000244
1363.552445	683.2000122
1364.085819	682.0
1364.619137	683.7999878
1365.1524	684.4000244
1365.685607	683.4000244
1366.218758	685.0
1366.751854	681.0
1367.284894	685.5999756
1367.817879	688.0
1368.350808	688.0
1368.883682	686.0
1369.4165	687.7999878
1369.949263	701.2000122
1370.48197	706.0
1371.014622	695.5999756
1371.547218	686.5999756
1372.079758	686.4000244
1372.612244	686.7999878
1373.144673	685.7999878
1373.677047	688.2000122
1374.209366	685.4000244
1374.741629	689.5999756
1375.273836	686.7999878
1375.805989	686.4000244
1376.338085	688.0
1376.870126	686.2000122
1377.402112	689.2000122
1377.934042	688.0
1378.465917	688.2000122
1378.997736	688.0
1379.5295	689.5999756
1380.061208	690.4000244
1380.592861	693.2000122
1381.124459	691.0
1381.656	691.7999878
1382.187487	697.7999878
1382.718918	698.4000244
1383.250294	703.7999878
1383.781614	702.0
1384.312879	708.5999756
1384.844088	717.2000122
1385.375242	723.7999878
1385.90634	748.5999756
1386.437383	796.0
1386.968371	911.2000122
1387.499303	1203.199951
1388.03018	1717.599976
1388.561001	1810.599976
1389.091767	1275.199951
1389.622478	899.5999756
1390.153133	779.0
1390.683733	745.0
1391.214277	720.0
1391.744766	715.0
1392.2752	702.5999756
1392.805578	701.2000122
1393.335901	698.0
1393.866168	694.0
1394.396381	695.7999878
1394.926537	691.7999878
1395.456639	693.4000244
1395.986685	690.2000122
1396.516675	693.4000244
1397.046611	691.0
1397.576491	691.0
1398.106315	687.5999756
1398.636084	690.5999756
1399.165798	687.0
1399.695457	689.0
1400.22506	688.2000122
1400.754608	685.7999878
1401.284101	688.4000244
1401.813538	689.7999878
1402.34292	685.5999756
1402.872247	686.0
1403.401518	688.5999756
1403.930734	689.7999878
1404.459895	686.2000122
1404.989	685.0
1405.51805	695.0
1406.047045	692.4000244
1406.575984	690.7999878
1407.104869	689.5999756
1407.633697	699.4000244
1408.162471	705.5999756
1408.691189	720.4000244
1409.219852	734.0
1409.74846	748.7999878
1410.277013	739.5999756
1410.80551	724.7999878
1411.333952	703.0
1411.862339	698.4000244
1412.39067	687.4000244
1412.918946	686.2000122
1413.447167	686.2000122
1413.975333	686.2000122
1414.503444	683.5999756
1415.031499	683.7999878
1415.559499	700.0
1416.087444	684.0
1416.615333	682.2000122
1417.143167	683.4000244
1417.670947	684.2000122
1418.19867	684.0
1418.726339	681.0
1419.253952	683.0
1419.781511	681.4000244
1420.309014	681.5999756
1420.836461	680.2000122
1421.363854	678.7999878
1421.891191	681.4000244
1422.418474	680.2000122
1422.945701	682.5999756
1423.472872	679.5999756
1423.999989	681.2000122
1424.52705	681.5999756
1425.054057	682.0
1425.581008	681.5999756
1426.107904	679.7999878
1426.634745	679.2000122
1427.16153	679.0
1427.688261	678.4000244
1428.214936	682.4000244
1428.741556	678.0
1429.268121	680.7999878
1429.794631	682.0
1430.321085	678.2000122
1430.847485	682.2000122
1431.373829	680.5999756
1431.900118	680.2000122
1432.426353	680.4000244
1432.952532	678.4000244
1433.478655	681.4000244
1434.004724	677.7999878
1434.530738	678.7999878
1435.056696	676.4000244
1435.5826	683.2000122
1436.108448	680.2000122
1436.634241	681.5999756
1437.159979	682.4000244
1437.685662	683.0
1438.21129	677.2000122
1438.736863	682.4000244
1439.262381	682.2000122
1439.787843	679.2000122
1440.313251	683.7999878
1440.838603	679.7999878
1441.3639	681.5999756
1441.889143	680.4000244
1442.41433	679.7999878
1442.939462	680.2000122
1443.464539	680.2000122
1443.989561	681.2000122
1444.514528	679.0
1445.03944	681.2000122
1445.564297	681.2000122
1446.089099	680.0
1446.613846	680.5999756
1447.138537	680.2000122
1447.663174	679.7999878
1448.187756	682.5999756
1448.712282	681.7999878
1449.236754	682.4000244
1449.761171	682.5999756
1450.285532	684.4000244
1450.809839	681.0
1451.33409	684.4000244
1451.858287	682.2000122
1452.382428	680.5999756
1452.906515	679.0
1453.430546	678.2000122
1453.954523	682.5999756
1454.478444	681.4000244
1455.002311	680.2000122
1455.526123	681.2000122
1456.049879	679.0
1456.573581	678.7999878
1457.097227	678.2000122
1457.620819	679.7999878
1458.144356	682.0
1458.667837	681.7999878
1459.191264	682.2000122
1459.714636	681.5999756
1460.237952	681.5999756
1460.761214	680.0
1461.284421	683.2000122
1461.807573	680.2000122
1462.33067	684.0
1462.853712	701.2000122
1463.899632	690.5999756
1464.422509	685.5999756
1464.945331	679.2000122
1465.468099	681.0
1465.990811	679.0
1466.513469	681.5999756
1467.036071	676.5999756
1467.558619	678.4000244
1468.081112	680.0
1468.60355	679.5999756
1469.125933	679.7999878
1469.648261	683.5999756
1470.170534	683.4000244
1470.692752	679.0
1471.214916	678.5999756
1471.737024	677.7999878
1472.259078	678.0
1472.781077	679.7999878
1473.303021	676.2000122
1473.82491	679.7999878
1474.346744	676.0
1474.868523	678.0
1475.390248	677.5999756
1475.911917	675.7999878
1476.433532	677.5999756
1476.955092	674.0
1477.476597	676.0
1477.998047	672.5999756
1478.519442	679.0
1479.040783	675.7999878
1479.562068	675.5999756
1480.083299	675.5999756
1480.604475	678.5999756
1481.125596	675.2000122
1481.646663	676.2000122
1482.167674	672.2000122
1482.688631	675.4000244
1483.209533	674.7999878
1483.73038	673.0
1484.251172	675.0
1484.771909	673.7999878
1485.292592	673.7999878
1485.81322	677.7999878
1486.333793	673.5999756
1486.854311	674.4000244
1487.374775	675.0
1487.895183	674.2000122
1488.415537	676.5999756
1488.935836	671.7999878
1489.456081	670.5999756
1489.97627	673.4000244
1490.496405	675.2000122
1491.016485	671.0
1491.536511	671.0
1492.056481	675.2000122
1492.576397	670.0
1493.096258	671.0
1493.616064	676.5999756
1494.135816	674.2000122
1494.655513	672.0
1495.175155	670.2000122
1495.694742	672.2000122
1496.214274	672.0
1496.733752	669.7999878
1497.253175	671.2000122
1497.772544	672.7999878
1498.291858	674.0
1498.811116	671.0
1499.330321	670.7999878
1499.84947	683.2000122
1500.368565	672.5999756
1500.887605	673.0
1501.406591	670.5999756
1501.925521	669.7999878
1502.444397	672.0
1502.963219	672.7999878
1503.481985	671.5999756
1504.000697	672.2000122
1504.519355	673.2000122
1505.037957	673.7999878
1505.556505	673.7999878
1506.074999	671.5999756
1506.593437	672.2000122
1507.111821	672.5999756
1507.63015	670.2000122
1508.148425	672.0
1508.666645	673.2000122
1509.18481	674.0
1509.702921	671.4000244
1510.220977	673.0
1510.738979	681.0
1511.256925	673.7999878
1511.774817	672.7999878
1512.292655	673.0
1512.810438	674.5999756
1513.328166	671.4000244
1513.84584	668.7999878
1514.363459	674.4000244
1514.881023	672.7999878
1515.398533	674.2000122
1515.915988	672.0
1516.433389	671.2000122
1516.950734	670.5999756
1517.468026	672.5999756
1517.985263	671.2000122
1518.502445	672.0
1519.019572	672.7999878
1519.536645	672.4000244
1520.053664	671.4000244
1520.570628	670.7999878
1521.087537	675.5999756
1521.604392	670.5999756
1522.121192	671.5999756
1522.637937	670.5999756
1523.154628	670.7999878
1523.671265	671.7999878
1524.187847	674.4000244
1524.704374	673.4000244
1525.220847	672.7999878
1525.737265	681.5999756
1526.769938	685.0
1527.286192	671.2000122
1527.802392	671.7999878
1528.318538	671.7999878
1528.834629	671.0
1529.350666	672.2000122
1529.866648	672.4000244
1530.382575	670.0
1530.898448	671.2000122
1531.414266	673.5999756
1531.93003	673.5999756
1532.44574	672.4000244
1532.961395	673.0
1533.476995	671.2000122
1533.992541	672.2000122
1534.508033	675.2000122
1535.02347	670.7999878
1535.538852	672.5999756
1536.05418	673.2000122
1536.569454	675.0
1537.084673	668.4000244
1537.599837	669.0
1538.114947	674.4000244
1538.630003	671.2000122
1539.145004	671.5999756
1539.659951	672.4000244
1540.174843	673.7999878
1540.689681	674.4000244
1541.204465	669.0
1541.719194	671.2000122
1542.233868	672.2000122
1542.748488	672.4000244
1543.263054	671.2000122
1543.777565	670.2000122
1544.292022	670.7999878
1544.806424	672.5999756
1545.320772	672.4000244
1545.835066	675.4000244
1546.349305	670.7999878
1546.863489	671.2000122
1547.37762	671.5999756
1547.891696	671.4000244
1548.405717	672.5999756
1548.919684	673.2000122
1549.433597	675.4000244
1549.947455	673.4000244
1550.461259	674.5999756
1550.975009	671.5999756
1551.488704	676.2000122
1552.002345	671.7999878
1552.515931	673.7999878
1553.029463	672.0
1553.542941	672.5999756
1554.056364	673.5999756
1554.569733	671.0
1555.083048	672.4000244
1555.596308	673.4000244
1556.109514	671.5999756
1556.622665	675.0
1557.135762	672.2000122
1557.648805	671.7999878
1558.161794	673.0
1558.674728	673.4000244
1559.187608	675.0
1559.700433	673.0
1560.213205	671.5999756
1560.725921	672.0
1561.238584	672.5999756
1561.751192	674.5999756
1562.263746	673.5999756
1562.776246	676.2000122
1563.288691	672.5999756
1563.801082	672.5999756
1564.313419	676.0
1564.825701	677.7999878
1565.337929	675.4000244
1565.850103	673.5999756
1566.362223	674.0
1566.874288	673.0
1567.386299	677.5999756
1567.898256	676.0
1568.410158	673.0
1568.922007	675.2000122
1569.4338	674.4000244
1569.94554	673.4000244
1570.457226	674.4000244
1570.968857	672.0
1571.480434	672.0
1571.991956	669.5999756
1572.503425	675.2000122
1573.014839	675.5999756
1573.526199	671.0
1574.037505	672.5999756
1574.548756	673.5999756
1575.059953	674.5999756
1575.571096	671.5999756
1576.082185	673.0
1576.59322	672.5999756
1577.1042	672.7999878
1577.615126	672.5999756
1578.125998	672.4000244
1578.636816	676.4000244
1579.14758	676.7999878
1579.658289	674.2000122
1580.168944	675.4000244
1580.679545	674.7999878
1581.190092	673.4000244
1581.700585	675.2000122
1582.211023	673.2000122
1582.721407	677.4000244
1583.231737	675.4000244
1583.742013	673.0
1584.252235	674.7999878
1584.762403	678.2000122
1585.272516	672.5999756
1585.782575	674.2000122
1586.292581	671.2000122
1586.802532	672.5999756
1587.312428	673.4000244
1587.822271	671.7999878
1588.33206	670.2000122
1588.841794	672.5999756
1589.351474	673.2000122
1589.8611	671.7999878
1590.370672	670.7999878
1590.88019	671.4000244
1591.389654	670.2000122
1591.899064	674.5999756
1592.408419	672.0
