1042.452273	694.5999756
1043.018714	688.5999756
1043.585098	689.0
1044.151424	689.7999878
1044.717692	688.4000244
1045.283903	688.4000244
1045.850056	690.2000122
1046.416151	684.0
1046.982188	686.5999756
1047.548167	684.2000122
1048.114089	686.4000244
1048.679953	683.5999756
1049.24576	683.5999756
1049.811509	687.5999756
1050.3772	684.0
1050.942833	683.2000122
1051.508408	683.4000244
1052.073926	682.4000244
1052.639387	680.5999756
1053.204789	681.4000244
1053.770134	681.5999756
1054.335421	680.7999878
1054.900651	681.0
1055.465823	681.5999756
1056.030937	681.5999756
1056.595993	682.7999878
1057.160992	682.7999878
1057.725934	678.2000122
1058.290817	680.7999878
1058.855643	678.4000244
1059.420411	681.7999878
1059.985122	678.5999756
1060.549775	679.0
1061.114371	681.2000122
1061.678908	678.5999756
1062.243389	680.7999878
1062.807811	682.2000122
1063.372176	681.4000244
1063.936483	678.0
1064.500733	682.7999878
1065.064925	678.4000244
1065.62906	679.0
1066.193137	677.2000122
1066.757156	681.4000244
1067.321118	681.2000122
1067.885022	677.5999756
1068.448869	679.4000244
1069.012658	682.0
1069.57639	679.0
1070.140063	689.2000122
1070.70368	677.7999878
1071.267239	676.7999878
1071.83074	679.0
1072.394184	676.7999878
1072.95757	677.2000122
1073.520899	677.5999756
1074.08417	677.7999878
1074.647383	678.2000122
1075.21054	678.4000244
1075.773638	682.0
1076.336679	678.0
1076.899663	676.4000244
1077.462589	678.0
1078.025457	679.0
1078.588268	677.5999756
1079.151022	681.0
1079.713718	680.2000122
1080.276356	679.4000244
1080.838937	679.7999878
1081.401461	679.2000122
1081.963927	681.2000122
1082.526336	679.0
1083.088687	681.0
1083.650981	682.2000122
1084.213217	680.4000244
1084.775396	680.5999756
1085.337517	677.2000122
1085.899581	681.5999756
1086.461587	679.5999756
1087.023536	681.2000122
1087.585428	683.2000122
1088.147262	682.2000122
1088.709039	682.7999878
1089.270758	679.7999878
1089.83242	676.0
1090.394024	677.5999756
1090.955571	680.2000122
1091.517061	677.2000122
1092.078493	679.0
1092.639868	681.5999756
1093.201185	678.4000244
1093.762445	677.7999878
1094.323648	673.7999878
1094.884793	677.5999756
1095.445881	679.4000244
1096.006911	681.0
1096.567884	679.0
1097.1288	686.2000122
1097.689659	682.0
1098.25046	680.4000244
1098.811203	679.0
1099.37189	679.2000122
1099.932518	681.4000244
1100.49309	682.0
1101.053604	680.5999756
1101.614061	680.2000122
1102.174461	679.4000244
1102.734803	681.0
1103.295088	681.4000244
1103.855316	683.2000122
1104.415486	680.2000122
1104.975599	679.4000244
1105.535655	682.2000122
1106.095653	679.2000122
1106.655594	687.0
1107.215478	683.7999878
1107.775305	687.4000244
1108.335074	685.7999878
1108.894786	683.0
1109.45444	687.0
1110.014038	688.5999756
1110.573578	687.7999878
1111.133061	692.0
1111.692486	687.5999756
1112.251854	687.7999878
1112.811165	691.7999878
1113.370419	689.0
1113.929616	690.2000122
1114.488755	691.5999756
1115.047837	688.0
1115.606862	684.7999878
1116.16583	688.5999756
1116.72474	690.0
1117.283593	687.0
1117.842389	686.0
1118.401128	684.5999756
1118.959809	680.2000122
1119.518433	683.5999756
1120.077	687.5999756
1120.63551	681.2000122
1121.193963	682.0
1121.752358	684.2000122
1122.310697	682.5999756
1122.868978	680.7999878
1123.427202	681.5999756
1123.985368	680.4000244
1124.543478	680.5999756
1125.10153	679.4000244
1125.659526	680.0
1126.217464	678.2000122
1126.775345	683.4000244
1127.333168	681.7999878
1127.890935	678.7999878
1128.448644	679.4000244
1129.006297	678.5999756
1129.563892	682.7999878
1130.12143	678.0
1130.678911	678.5999756
1131.236335	678.7999878
1131.793701	678.2000122
1132.351011	678.4000244
1132.908263	679.5999756
1133.465458	680.0
1134.022597	679.5999756
1134.579678	680.7999878
1135.136702	678.4000244
1135.693669	678.0
1136.250578	675.5999756
1136.807431	680.7999878
1137.364227	677.5999756
1137.920965	679.5999756
1138.477647	678.2000122
1139.034271	681.0
1139.590839	676.5999756
1140.147349	680.4000244
1140.703802	679.0
1141.260198	679.0
1141.816537	678.7999878
1142.37282	678.0
1142.929045	675.4000244
1143.485213	676.4000244
1144.041323	680.5999756
1144.597377	675.5999756
1145.153374	678.2000122
1145.709314	679.0
1146.265197	678.2000122
1146.821023	674.7999878
1147.376792	674.7999878
1147.932503	677.4000244
1148.488158	677.0
1149.043756	684.2000122
1149.599297	676.7999878
1150.154781	679.0
1150.710207	677.2000122
1151.265577	676.5999756
1151.82089	677.5999756
1152.376146	678.5999756
1152.931345	680.0
1153.486487	678.7999878
1154.041572	683.0
1154.5966	680.5999756
1155.151571	679.7999878
1155.706485	677.0
1156.261342	678.7999878
1156.816142	675.7999878
1157.370885	678.2000122
1157.925572	676.2000122
1158.480201	678.5999756
1159.034774	680.4000244
1159.589289	675.7999878
1160.143748	680.2000122
1160.698149	680.2000122
1161.252494	676.5999756
1161.806782	680.2000122
1162.361013	678.0
1162.915187	679.2000122
1163.469304	677.4000244
1164.023364	678.7999878
1164.577368	679.0
1165.131314	678.4000244
1165.685204	675.4000244
1166.239036	679.5999756
1166.792812	677.7999878
1167.346531	679.0
1167.900193	674.0
1168.453798	679.0
1169.007347	676.7999878
1169.560838	679.0
1170.114273	678.5999756
1170.66765	679.0
1171.220971	678.0
1171.774235	675.7999878
1172.327443	677.5999756
1172.880593	676.7999878
1173.433687	679.0
1173.986723	678.4000244
1174.539703	675.5999756
1175.092626	675.7999878
1175.645493	681.2000122
1176.198302	676.5999756
1176.751055	679.0
1177.303751	678.5999756
1177.85639	681.4000244
1178.408972	679.5999756
1178.961498	676.7999878
1179.513966	680.4000244
1180.066378	685.2000122
1180.618733	680.4000244
1181.171032	684.2000122
1181.723273	681.7999878
1182.275458	683.2000122
1182.827586	687.0
1183.379657	682.4000244
1183.931672	686.4000244
1184.48363	690.0
1185.035531	686.7999878
1185.587375	683.2000122
1186.139162	687.7999878
1186.690893	683.5999756
1187.242567	689.5999756
1187.794184	684.5999756
1188.345745	688.0
1188.897249	682.5999756
1189.448696	683.2000122
1190.000086	685.0
1190.55142	685.4000244
1191.102697	687.0
1191.653918	681.4000244
1192.205081	685.2000122
1192.756188	685.2000122
1193.307238	699.0
1193.858232	681.0
1194.409169	682.2000122
1194.960049	679.5999756
1195.510872	681.4000244
1196.061639	679.4000244
1196.612349	678.5999756
1197.163003	680.5999756
1197.713599	682.2000122
1198.264139	680.4000244
1198.814623	678.7999878
1199.36505	680.2000122
1199.91542	677.2000122
1200.465734	680.0
1201.01599	676.7999878
1201.566191	676.4000244
1202.116334	680.2000122
1202.666421	678.4000244
1203.216452	677.5999756
1203.766425	678.5999756
1204.316343	677.5999756
1204.866203	679.7999878
1205.416007	681.7999878
1205.965754	682.4000244
1206.515445	678.0
1207.065079	680.7999878
1207.614657	681.2000122
1208.164177	679.5999756
1208.713642	679.5999756
1209.26305	682.2000122
1209.812401	677.2000122
1210.361695	680.2000122
1210.910933	679.2000122
1211.460115	678.0
1212.00924	684.2000122
1212.558308	679.5999756
1213.10732	683.2000122
1213.656275	683.4000244
1214.205174	683.2000122
1214.754016	684.4000244
1215.302801	682.2000122
1215.85153	681.4000244
1216.400203	680.7999878
1216.948819	685.5999756
1217.497378	682.2000122
1218.045881	685.4000244
1218.594327	682.5999756
1219.142717	682.5999756
1219.691051	685.5999756
1220.239327	683.5999756
1220.787548	684.4000244
1221.335712	686.4000244
1221.883819	681.2000122
1222.43187	682.2000122
1222.979864	686.2000122
1223.527802	686.4000244
1224.075683	685.5999756
1224.623508	684.7999878
1225.171277	687.0
1225.718989	685.5999756
1226.266644	686.0
1226.814243	685.4000244
1227.361786	688.0
1227.909272	685.7999878
1228.456702	684.5999756
1229.004075	690.4000244
1229.551392	684.5999756
1230.098652	688.7999878
1230.645856	688.2000122
1231.193003	684.7999878
1231.740094	687.0
1232.287129	687.2000122
1232.834107	688.5999756
1233.381029	686.0
1233.927894	683.7999878
1234.474703	683.0
1235.021455	685.4000244
1235.568151	687.0
1236.114791	688.0
1236.661374	686.2000122
1237.207901	684.7999878
1237.754372	682.7999878
1238.300786	684.7999878
1238.847144	686.7999878
1239.393445	686.2000122
1239.93969	687.7999878
1240.485879	682.5999756
1241.032011	685.7999878
1241.578087	683.4000244
1242.124106	684.0
1242.67007	684.2000122
1243.215976	688.0
1243.761827	685.0
1244.307621	684.2000122
1244.853359	686.0
1245.39904	686.5999756
1245.944665	685.7999878
1246.490234	687.5999756
1247.035746	687.2000122
1247.581203	688.5999756
1248.126602	686.0
1248.671946	686.0
1249.217233	687.0
1249.762464	687.0
1250.307638	685.7999878
1250.852757	688.0
1251.397819	688.4000244
1251.942824	687.7999878
1252.487774	690.7999878
1253.032667	688.0
1253.577503	689.2000122
1254.122284	690.7999878
1254.667008	688.4000244
1255.211676	691.5999756
1255.756288	688.7999878
1256.300843	690.4000244
1256.845342	687.7999878
1257.389785	688.7999878
1257.934172	691.2000122
1258.478502	698.7999878
1259.022776	693.7999878
1259.566994	692.7999878
1260.111156	713.7999878
1260.655261	691.4000244
1261.199311	693.0
1261.743304	697.2000122
1262.28724	699.2000122
1262.831121	703.2000122
1263.374945	711.2000122
1263.918713	717.0
1264.462425	718.5999756
1265.006081	717.0
1265.54968	712.5999756
1266.093223	701.5999756
1266.636711	699.7999878
1267.180141	693.2000122
1267.723516	697.5999756
1268.266835	692.4000244
1268.810097	686.0
1269.353303	691.4000244
1269.896453	687.7999878
1270.439547	688.7999878
1270.982584	688.7999878
1271.525566	690.5999756
1272.068491	691.2000122
1272.61136	694.0
1273.154173	685.5999756
1273.69693	692.0
1274.239631	689.0
1274.782275	689.7999878
1275.324864	692.2000122
1275.867396	694.5999756
1276.409872	690.7999878
1276.952292	688.7999878
1277.494656	692.0
1278.036964	692.0
1278.579215	694.4000244
1279.121411	697.2000122
1279.66355	696.2000122
1280.205634	703.4000244
1280.747661	701.7999878
1281.289632	717.0
1281.831547	734.0
1282.373406	774.4000244
1282.915209	853.4000244
1283.456955	987.4000244
1283.998646	1154.0
1284.540281	1259.599976
1285.081859	1133.199951
1285.623381	914.5999756
1286.164848	792.2000122
1286.706258	739.7999878
1287.247612	721.0
1287.788911	713.4000244
1288.330153	699.5999756
1288.871339	704.7999878
1289.412469	695.5999756
1289.953543	697.7999878
1290.494561	695.5999756
1291.035523	695.7999878
1291.576428	700.7999878
1292.117278	694.2000122
1292.658072	694.4000244
1293.19881	692.2000122
1293.739492	696.0
1294.280118	693.7999878
1294.820687	689.2000122
1295.361201	695.4000244
1295.901659	695.0
1296.442061	690.4000244
1296.982406	689.0
1297.522696	689.0
1298.06293	691.4000244
1298.603108	692.5999756
1299.143229	687.4000244
1299.683295	687.0
1300.223305	690.7999878
1300.763259	689.7999878
1301.303157	688.0
1301.842999	688.5999756
1302.382785	690.2000122
1302.922515	686.7999878
1303.462189	685.7999878
1304.001807	689.2000122
1304.541369	684.2000122
1305.080875	688.5999756
1305.620326	684.0
1306.15972	686.4000244
1306.699058	688.4000244
1307.238341	689.4000244
1307.777567	687.7999878
1308.316738	689.0
1308.855853	690.2000122
1309.394912	688.4000244
1309.933915	686.0
1310.472862	681.7999878
1311.011753	686.4000244
1311.550588	689.2000122
1312.089367	687.7999878
1312.62809	685.0
1313.166758	684.5999756
1313.70537	684.5999756
1314.243925	684.7999878
1314.782425	683.0
1315.320869	683.7999878
1315.859257	685.0
1316.397589	686.2000122
1316.935866	684.7999878
1317.474086	680.5999756
1318.012251	684.4000244
1318.55036	686.4000244
1319.088413	682.2000122
1319.62641	682.0
1320.164351	684.5999756
1320.702236	681.7999878
1321.240066	684.0
1321.777839	683.4000244
1322.315557	680.4000244
1322.853219	683.0
1323.390826	680.0
1323.928376	687.7999878
1324.465871	679.2000122
1325.003309	681.5999756
1325.540692	682.5999756
1326.07802	680.7999878
1326.615291	682.5999756
1327.152506	682.0
1327.689666	682.5999756
1328.22677	680.5999756
1328.763818	682.4000244
1329.300811	683.2000122
1329.837747	677.4000244
1330.374628	680.7999878
1330.911453	683.2000122
1331.448222	681.7999878
1331.984936	679.2000122
1332.521594	680.2000122
1333.058196	680.4000244
1333.594742	686.0
1334.131232	679.0
1334.667667	680.2000122
1335.204046	683.7999878
1335.740369	683.2000122
1336.276637	678.2000122
1336.812848	682.7999878
1337.349004	679.5999756
1337.885105	678.5999756
1338.421149	680.4000244
1338.957138	682.2000122
1339.493071	680.2000122
1340.028949	686.5999756
1340.56477	681.7999878
1341.100536	681.0
1341.636246	681.2000122
1342.171901	684.7999878
1342.7075	679.5999756
1343.243043	681.2000122
1343.77853	683.7999878
1344.313962	679.4000244
1344.849338	680.2000122
1345.384659	678.5999756
1345.919923	681.7999878
1346.455133	681.4000244
1346.990286	680.7999878
1347.525384	682.5999756
1348.060426	682.7999878
1348.595412	679.5999756
1349.130343	680.4000244
1349.665218	683.7999878
1350.200037	684.5999756
1350.734801	683.5999756
1351.269509	679.0
1351.804162	685.0
1352.338758	682.4000244
1352.8733	682.0
1353.407785	683.0
1353.942215	679.2000122
1354.476589	682.4000244
1355.010908	682.7999878
1355.545171	681.4000244
1356.079379	682.5999756
1356.61353	680.7999878
1357.147627	684.2000122
1357.681667	681.7999878
1358.215652	681.2000122
1358.749582	682.2000122
1359.283456	681.5999756
1359.817274	683.0
1360.351037	683.0
1360.884744	682.2000122
1361.418395	686.0
1361.951991	683.5999756
1362.485531	687.2000122
1363.019016	684.5999756
1363.552445	684.5999756
1364.085819	682.5999756
1364.619137	683.5999756
1365.1524	685.0
1365.685607	683.5999756
1366.218758	688.2000122
1366.751854	688.4000244
1367.284894	686.7999878
1367.817879	687.0
1368.350808	686.4000244
1368.883682	688.4000244
1369.4165	691.2000122
1369.949263	696.7999878
1370.48197	708.0
1371.014622	692.4000244
1371.547218	686.2000122
1372.079758	685.4000244
1372.612244	686.2000122
1373.144673	685.7999878
1373.677047	690.2000122
1374.209366	685.0
1374.741629	685.0
1375.273836	687.4000244
1375.805989	691.7999878
1376.338085	690.2000122
1376.870126	689.4000244
1377.402112	688.2000122
1377.934042	689.7999878
1378.465917	690.0
1378.997736	695.7999878
1379.5295	693.0
1380.061208	692.5999756
1380.592861	693.5999756
1381.124459	694.2000122
1381.656	692.5999756
1382.187487	698.4000244
1382.718918	694.4000244
1383.250294	702.0
1383.781614	705.4000244
1384.312879	714.7999878
1384.844088	713.4000244
1385.375242	729.5999756
1385.90634	757.7999878
1386.437383	798.4000244
1386.968371	914.4000244
1387.499303	1218.0
1388.03018	1726.599976
1388.561001	1817.599976
1389.091767	1260.800049
1389.622478	909.2000122
1390.153133	784.5999756
1390.683733	742.7999878
1391.214277	726.0
1391.744766	712.0
1392.2752	702.7999878
1392.805578	705.5999756
1393.335901	699.0
1393.866168	697.4000244
1394.396381	693.0
1394.926537	693.0
1395.456639	694.4000244
1395.986685	696.4000244
1396.516675	693.0
1397.046611	687.7999878
1397.576491	689.7999878
1398.106315	687.7999878
1398.636084	685.0
1399.165798	693.5999756
1399.695457	686.7999878
1400.22506	684.0
1400.754608	687.5999756
1401.284101	685.2000122
1401.813538	689.5999756
1402.34292	687.5999756
1402.872247	686.5999756
1403.401518	686.5999756
1403.930734	688.0
1404.459895	688.2000122
1404.989	690.7999878
1405.51805	688.4000244
1406.047045	689.0
1406.575984	690.4000244
1407.104869	694.7999878
1407.633697	697.7999878
1408.162471	704.4000244
1408.691189	717.4000244
1409.219852	734.4000244
1409.74846	746.4000244
1410.277013	741.4000244
1410.80551	724.4000244
1411.333952	707.2000122
1411.862339	694.4000244
1412.39067	691.4000244
1412.918946	686.7999878
1413.447167	688.0
1413.975333	687.0
1414.503444	685.2000122
1415.031499	681.7999878
1415.559499	696.2000122
1416.087444	683.0
1416.615333	690.0
1417.143167	684.0
1417.670947	679.7999878
1418.19867	681.2000122
1418.726339	679.2000122
1419.253952	680.5999756
1419.781511	681.7999878
1420.309014	683.5999756
1420.836461	676.0
1421.363854	681.0
1421.891191	680.4000244
1422.418474	680.2000122
1422.945701	679.5999756
1423.472872	678.4000244
1423.999989	682.0
1424.52705	678.2000122
1425.054057	684.0
1425.581008	681.0
1426.107904	680.5999756
1426.634745	682.7999878
1427.16153	683.2000122
1427.688261	681.0
1428.214936	684.0
1428.741556	679.2000122
1429.268121	678.4000244
1429.794631	680.7999878
1430.321085	678.4000244
1430.847485	681.2000122
1431.373829	680.5999756
1431.900118	678.0
1432.426353	677.7999878
1432.952532	681.5999756
1433.478655	683.2000122
1434.004724	680.2000122
1434.530738	680.5999756
1435.056696	682.2000122
1435.5826	678.7999878
1436.108448	679.5999756
1436.634241	681.5999756
1437.159979	681.7999878
1437.685662	680.5999756
1438.21129	677.7999878
1438.736863	678.0
1439.262381	680.7999878
1439.787843	681.7999878
1440.313251	682.0
1440.838603	679.0
1441.3639	680.4000244
1441.889143	678.4000244
1442.41433	682.2000122
1442.939462	681.0
1443.464539	679.0
1443.989561	679.4000244
1444.514528	681.7999878
1445.03944	679.4000244
1445.564297	683.5999756
1446.089099	680.7999878
1446.613846	678.0
1447.138537	681.2000122
1447.663174	680.4000244
1448.187756	681.5999756
1448.712282	681.2000122
1449.236754	680.4000244
1449.761171	681.0
1450.285532	681.7999878
1450.809839	681.5999756
1451.33409	678.2000122
1451.858287	680.2000122
1452.382428	680.5999756
1452.906515	678.2000122
1453.430546	679.5999756
1453.954523	678.2000122
1454.478444	681.5999756
1455.002311	678.5999756
1455.526123	677.7999878
1456.049879	685.5999756
1456.573581	682.2000122
1457.097227	679.5999756
1457.620819	682.5999756
1458.144356	681.2000122
1458.667837	683.2000122
1459.191264	680.0
1459.714636	681.2000122
1460.237952	682.0
1460.761214	682.4000244
1461.284421	682.2000122
1461.807573	681.4000244
1462.33067	679.5999756
1462.853712	699.7999878
1463.899632	690.0
1464.422509	686.2000122
1464.945331	681.2000122
1465.468099	682.4000244
1465.990811	679.2000122
1466.513469	678.2000122
1467.036071	683.4000244
1467.558619	680.2000122
1468.081112	681.5999756
1468.60355	680.5999756
1469.125933	681.0
1469.648261	678.7999878
1470.170534	680.2000122
1470.692752	680.4000244
1471.214916	676.0
1471.737024	681.4000244
1472.259078	678.2000122
1472.781077	677.2000122
1473.303021	676.5999756
1473.82491	678.2000122
1474.346744	678.2000122
1474.868523	678.2000122
1475.390248	680.2000122
1475.911917	673.2000122
1476.433532	676.0
1476.955092	678.0
1477.476597	675.7999878
1477.998047	677.4000244
1478.519442	676.4000244
1479.040783	673.5999756
1479.562068	674.5999756
1480.083299	676.7999878
1480.604475	674.7999878
1481.125596	676.5999756
1481.646663	672.0
1482.167674	675.0
1482.688631	677.7999878
1483.209533	674.5999756
1483.73038	678.4000244
1484.251172	675.4000244
1484.771909	677.5999756
1485.292592	674.5999756
1485.81322	674.7999878
1486.333793	672.4000244
1486.854311	671.5999756
1487.374775	672.0
1487.895183	674.2000122
1488.415537	674.5999756
1488.935836	669.5999756
1489.456081	673.7999878
1489.97627	674.7999878
1490.496405	673.5999756
1491.016485	672.5999756
1491.536511	676.7999878
1492.056481	674.7999878
1492.576397	671.2000122
1493.096258	674.0
1493.616064	670.7999878
1494.135816	675.7999878
1494.655513	674.2000122
1495.175155	674.4000244
1495.694742	672.4000244
1496.214274	675.5999756
1496.733752	671.2000122
1497.253175	673.2000122
1497.772544	671.2000122
1498.291858	674.2000122
1498.811116	674.7999878
1499.330321	669.7999878
1499.84947	681.7999878
1500.368565	674.0
1500.887605	672.0
1501.406591	674.2000122
1501.925521	672.7999878
1502.444397	671.2000122
1502.963219	672.7999878
1503.481985	671.4000244
1504.000697	670.5999756
1504.519355	675.5999756
1505.037957	673.7999878
1505.556505	672.0
1506.074999	674.2000122
1506.593437	670.2000122
1507.111821	670.4000244
1507.63015	671.5999756
1508.148425	671.4000244
1508.666645	671.4000244
1509.18481	670.7999878
1509.702921	673.0
1510.220977	671.2000122
1510.738979	679.7999878
1511.256925	670.2000122
1511.774817	674.0
1512.292655	673.4000244
1512.810438	673.0
1513.328166	674.4000244
1513.84584	672.2000122
1514.363459	675.2000122
1514.881023	674.7999878
1515.398533	671.7999878
1515.915988	672.4000244
1516.433389	673.2000122
1516.950734	668.5999756
1517.468026	673.0
1517.985263	671.0
1518.502445	673.0
1519.019572	672.2000122
1519.536645	673.4000244
1520.053664	670.0
1520.570628	673.4000244
1521.087537	669.2000122
1521.604392	668.7999878
1522.121192	671.5999756
1522.637937	672.4000244
1523.154628	671.2000122
1523.671265	673.0
1524.187847	668.4000244
1524.704374	671.4000244
1525.220847	670.4000244
1525.737265	681.5999756
1526.253629	702.7999878
1526.769938	687.5999756
1527.286192	675.4000244
1527.802392	674.0
1528.318538	671.5999756
1528.834629	673.4000244
1529.350666	668.5999756
1529.866648	669.5999756
1530.382575	671.2000122
1530.898448	670.7999878
1531.414266	674.5999756
1531.93003	675.0
1532.44574	671.4000244
1532.961395	674.5999756
1533.476995	674.2000122
1533.992541	675.4000244
1534.508033	669.4000244
1535.02347	669.5999756
1535.538852	670.5999756
1536.05418	672.7999878
1536.569454	669.5999756
1537.084673	672.2000122
1537.599837	671.2000122
1538.114947	671.2000122
1538.630003	672.5999756
1539.145004	669.0
1539.659951	674.5999756
1540.174843	671.4000244
1540.689681	671.4000244
1541.204465	675.0
1541.719194	671.0
1542.233868	672.4000244
1542.748488	673.2000122
1543.263054	674.2000122
1543.777565	671.0
1544.292022	672.0
1544.806424	671.7999878
1545.320772	673.2000122
1545.835066	670.7999878
1546.349305	673.0
1546.863489	671.7999878
1547.37762	672.5999756
1547.891696	674.2000122
1548.405717	672.7999878
1548.919684	669.5999756
1549.433597	674.0
1549.947455	673.5999756
1550.461259	670.2000122
1550.975009	673.0
1551.488704	671.5999756
1552.002345	670.5999756
1552.515931	673.4000244
1553.029463	670.2000122
1553.542941	674.0
1554.056364	672.7999878
1554.569733	671.0
1555.083048	674.2000122
1555.596308	672.7999878
1556.109514	671.7999878
1556.622665	673.0
1557.135762	673.7999878
1557.648805	672.7999878
1558.161794	671.2000122
1558.674728	674.4000244
1559.187608	673.0
1559.700433	670.2000122
1560.213205	673.7999878
1560.725921	670.4000244
1561.238584	672.4000244
1561.751192	675.0
1562.263746	675.4000244
1562.776246	674.5999756
1563.288691	674.4000244
1563.801082	676.4000244
1564.313419	674.4000244
1564.825701	676.0
1565.337929	674.7999878
1565.850103	675.5999756
1566.362223	677.0
1566.874288	675.0
1567.386299	675.0
1567.898256	676.4000244
1568.410158	674.0
1568.922007	675.2000122
1569.4338	677.2000122
1569.94554	677.5999756
1570.457226	674.0
1570.968857	674.5999756
1571.480434	674.7999878
1571.991956	674.0
1572.503425	674.4000244
1573.014839	670.0
1573.526199	672.4000244
1574.037505	673.2000122
1574.548756	672.2000122
1575.059953	671.4000244
1575.571096	672.0
1576.082185	668.7999878
1576.59322	672.0
1577.1042	674.4000244
1577.615126	673.0
1578.125998	675.4000244
1578.636816	676.7999878
1579.14758	672.4000244
1579.658289	677.2000122
1580.168944	674.2000122
1580.679545	675.2000122
1581.190092	676.7999878
1581.700585	675.4000244
1582.211023	672.4000244
1582.721407	673.7999878
1583.231737	677.4000244
1583.742013	674.0
1584.252235	675.7999878
1584.762403	674.4000244
1585.272516	671.5999756
1585.782575	672.0
1586.292581	672.5999756
1586.802532	673.7999878
1587.312428	672.2000122
1587.822271	674.4000244
1588.33206	674.0
1588.841794	671.5999756
1589.351474	671.7999878
1589.8611	672.2000122
1590.370672	675.5999756
1590.88019	673.2000122
1591.389654	672.5999756
1591.899064	675.7999878
1592.408419	674.0
