1042.452273	725.5999756
1043.018714	725.0
1043.585098	726.0
1044.151424	722.5999756
1044.717692	725.2000122
1045.283903	721.0
1045.850056	722.5999756
1046.416151	719.5999756
1046.982188	718.5999756
1047.548167	719.0
1048.114089	712.4000244
1048.679953	719.0
1049.24576	717.2000122
1049.811509	714.0
1050.3772	722.4000244
1050.942833	720.0
1051.508408	717.5999756
1052.073926	712.5999756
1052.639387	717.5999756
1053.204789	711.2000122
1053.770134	716.7999878
1054.335421	715.4000244
1054.900651	714.5999756
1055.465823	713.4000244
1056.030937	712.0
1056.595993	716.7999878
1057.160992	716.0
1057.725934	714.7999878
1058.290817	712.2000122
1058.855643	715.0
1059.420411	713.4000244
1059.985122	710.7999878
1060.549775	714.2000122
1061.114371	715.0
1061.678908	714.5999756
1062.243389	711.7999878
1062.807811	716.0
1063.372176	714.0
1063.936483	714.2000122
1064.500733	710.5999756
1065.064925	712.2000122
1065.62906	713.0
1066.193137	714.2000122
1066.757156	715.5999756
1067.321118	708.4000244
1067.885022	716.5999756
1068.448869	716.0
1069.012658	716.0
1069.57639	717.5999756
1070.140063	723.4000244
1070.70368	716.0
1071.267239	713.0
1071.83074	717.7999878
1072.394184	714.2000122
1072.95757	712.7999878
1073.520899	714.2000122
1074.08417	713.0
1074.647383	713.5999756
1075.21054	715.5999756
1075.773638	710.2000122
1076.336679	710.4000244
1076.899663	714.4000244
1077.462589	717.2000122
1078.025457	714.4000244
1078.588268	715.2000122
1079.151022	714.7999878
1079.713718	710.2000122
1080.276356	716.0
1080.838937	714.4000244
1081.401461	708.5999756
1081.963927	714.0
1082.526336	719.0
1083.088687	720.4000244
1083.650981	715.4000244
1084.213217	715.2000122
1084.775396	716.4000244
1085.337517	713.7999878
1085.899581	720.4000244
1086.461587	717.7999878
1087.023536	719.7999878
1087.585428	719.2000122
1088.147262	717.4000244
1088.709039	716.0
1089.270758	713.0
1089.83242	715.4000244
1090.394024	717.2000122
1090.955571	717.5999756
1091.517061	714.5999756
1092.078493	710.2000122
1092.639868	717.0
1093.201185	712.7999878
1093.762445	717.0
1094.323648	711.0
1094.884793	717.0
1095.445881	714.5999756
1096.006911	712.4000244
1096.567884	716.2000122
1097.1288	720.4000244
1097.689659	719.2000122
1098.25046	714.4000244
1098.811203	712.7999878
1099.37189	713.5999756
1099.932518	716.7999878
1100.49309	712.5999756
1101.053604	715.0
1101.614061	717.4000244
1102.174461	712.7999878
1102.734803	713.5999756
1103.295088	715.0
1103.855316	710.7999878
1104.415486	719.5999756
1104.975599	715.7999878
1105.535655	719.0
1106.095653	720.2000122
1106.655594	718.5999756
1107.215478	724.7999878
1107.775305	724.2000122
1108.335074	720.5999756
1108.894786	726.7999878
1109.45444	728.5999756
1110.014038	733.2000122
1110.573578	728.0
1111.133061	732.4000244
1111.692486	730.0
1112.251854	730.4000244
1112.811165	733.2000122
1113.370419	734.5999756
1113.929616	730.2000122
1114.488755	734.2000122
1115.047837	733.0
1115.606862	731.0
1116.16583	730.7999878
1116.72474	728.7999878
1117.283593	725.7999878
1117.842389	721.5999756
1118.401128	724.4000244
1118.959809	721.2000122
1119.518433	718.5999756
1120.077	723.2000122
1120.63551	717.2000122
1121.193963	719.0
1121.752358	722.2000122
1122.310697	717.4000244
1122.868978	713.4000244
1123.427202	717.4000244
1123.985368	711.7999878
1124.543478	719.0
1125.10153	715.4000244
1125.659526	717.7999878
1126.217464	715.4000244
1126.775345	715.5999756
1127.333168	706.5999756
1127.890935	714.0
1128.448644	717.0
1129.006297	717.4000244
1129.563892	718.4000244
1130.12143	712.5999756
1130.678911	711.4000244
1131.236335	715.5999756
1131.793701	713.7999878
1132.351011	712.4000244
1132.908263	715.2000122
1133.465458	711.0
1134.022597	712.7999878
1134.579678	718.4000244
1135.136702	712.2000122
1135.693669	714.0
1136.250578	711.4000244
1136.807431	712.7999878
1137.364227	714.0
1137.920965	712.7999878
1138.477647	715.5999756
1139.034271	716.5999756
1139.590839	710.0
1140.147349	705.4000244
1140.703802	715.7999878
1141.260198	709.0
1141.816537	711.4000244
1142.37282	710.7999878
1142.929045	710.2000122
1143.485213	712.5999756
1144.041323	716.0
1144.597377	710.7999878
1145.153374	712.7999878
1145.709314	709.7999878
1146.265197	711.2000122
1146.821023	709.4000244
1147.376792	712.4000244
1147.932503	714.2000122
1148.488158	708.0
1149.043756	710.2000122
1149.599297	712.2000122
1150.154781	712.2000122
1150.710207	712.2000122
1151.265577	711.5999756
1151.82089	710.0
1152.376146	714.0
1152.931345	712.2000122
1153.486487	714.0
1154.041572	712.0
1154.5966	713.7999878
1155.151571	713.2000122
1155.706485	713.7999878
1156.261342	710.0
1156.816142	709.2000122
1157.370885	714.5999756
1157.925572	716.0
1158.480201	709.4000244
1159.034774	716.5999756
1159.589289	714.7999878
1160.143748	712.7999878
1160.698149	708.5999756
1161.252494	712.4000244
1161.806782	713.0
1162.361013	713.0
1162.915187	709.4000244
1163.469304	714.5999756
1164.023364	711.0
1164.577368	709.2000122
1165.131314	712.0
1165.685204	712.2000122
1166.239036	710.2000122
1166.792812	709.7999878
1167.346531	716.2000122
1167.900193	713.0
1168.453798	712.4000244
1169.007347	715.2000122
1169.560838	711.4000244
1170.114273	710.0
1170.66765	711.2000122
1171.220971	714.5999756
1171.774235	713.0
1172.327443	711.7999878
1172.880593	713.0
1173.433687	716.7999878
1173.986723	712.4000244
1174.539703	714.0
1175.092626	714.2000122
1175.645493	712.7999878
1176.198302	717.5999756
1176.751055	719.2000122
1177.303751	715.2000122
1177.85639	713.2000122
1178.408972	711.7999878
1178.961498	715.7999878
1179.513966	716.0
1180.066378	715.0
1180.618733	716.7999878
1181.171032	723.2000122
1181.723273	723.2000122
1182.275458	724.5999756
1182.827586	720.4000244
1183.379657	724.4000244
1183.931672	720.7999878
1184.48363	722.0
1185.035531	725.5999756
1185.587375	723.2000122
1186.139162	727.5999756
1186.690893	721.4000244
1187.242567	722.4000244
1187.794184	726.0
1188.345745	728.0
1188.897249	719.7999878
1189.448696	724.0
1190.000086	720.2000122
1190.55142	721.4000244
1191.102697	719.7999878
1191.653918	715.5999756
1192.205081	718.2000122
1192.756188	718.5999756
1193.307238	741.4000244
1193.858232	716.2000122
1194.409169	713.4000244
1194.960049	711.4000244
1195.510872	719.5999756
1196.061639	718.0
1196.612349	710.7999878
1197.163003	715.2000122
1197.713599	716.5999756
1198.264139	714.5999756
1198.814623	713.5999756
1199.36505	715.2000122
1199.91542	712.4000244
1200.465734	709.5999756
1201.01599	711.7999878
1201.566191	705.5999756
1202.116334	709.2000122
1202.666421	715.2000122
1203.216452	710.4000244
1203.766425	714.4000244
1204.316343	706.2000122
1204.866203	709.7999878
1205.416007	712.7999878
1205.965754	709.0
1206.515445	713.2000122
1207.065079	710.7999878
1207.614657	713.2000122
1208.164177	713.2000122
1208.713642	715.2000122
1209.26305	711.7999878
1209.812401	716.0
1210.361695	712.5999756
1210.910933	715.2000122
1211.460115	712.4000244
1212.00924	718.2000122
1212.558308	713.2000122
1213.10732	710.5999756
1213.656275	714.2000122
1214.205174	716.5999756
1214.754016	714.4000244
1215.302801	715.2000122
1215.85153	719.2000122
1216.400203	721.2000122
1216.948819	715.7999878
1217.497378	717.2000122
1218.045881	718.2000122
1218.594327	718.4000244
1219.142717	714.2000122
1219.691051	717.4000244
1220.239327	720.5999756
1220.787548	716.0
1221.335712	721.2000122
1221.883819	723.5999756
1222.43187	721.2000122
1222.979864	720.4000244
1223.527802	717.2000122
1224.075683	721.2000122
1224.623508	721.2000122
1225.171277	721.5999756
1225.718989	719.0
1226.266644	720.7999878
1226.814243	720.0
1227.361786	725.0
1227.909272	720.2000122
1228.456702	726.0
1229.004075	718.4000244
1229.551392	719.2000122
1230.098652	725.7999878
1230.645856	726.0
1231.193003	724.2000122
1231.740094	724.2000122
1232.287129	719.5999756
1232.834107	723.2000122
1233.381029	721.5999756
1233.927894	721.2000122
1234.474703	719.2000122
1235.021455	719.5999756
1235.568151	720.4000244
1236.114791	722.0
1236.661374	717.7999878
1237.207901	720.4000244
1237.754372	721.0
1238.300786	717.0
1238.847144	722.0
1239.393445	717.2000122
1239.93969	721.7999878
1240.485879	715.7999878
1241.032011	719.5999756
1241.578087	724.0
1242.124106	723.0
1242.67007	723.0
1243.215976	720.7999878
1243.761827	723.0
1244.307621	721.7999878
1244.853359	723.5999756
1245.39904	722.0
1245.944665	721.0
1246.490234	722.0
1247.035746	725.2000122
1247.581203	724.4000244
1248.126602	723.2000122
1248.671946	720.2000122
1249.217233	721.2000122
1249.762464	719.7999878
1250.307638	720.2000122
1250.852757	719.2000122
1251.397819	723.7999878
1251.942824	719.4000244
1252.487774	722.7999878
1253.032667	723.0
1253.577503	724.7999878
1254.122284	723.4000244
1254.667008	720.2000122
1255.211676	723.7999878
1255.756288	718.7999878
1256.300843	724.2000122
1256.845342	722.5999756
1257.389785	723.7999878
1257.934172	722.2000122
1258.478502	725.2000122
1259.022776	727.0
1259.566994	721.4000244
1260.111156	742.0
1260.655261	726.0
1261.199311	723.5999756
1261.743304	728.4000244
1262.28724	724.7999878
1262.831121	722.5999756
1263.374945	722.5999756
1263.918713	729.0
1264.462425	726.2000122
1265.006081	728.2000122
1265.54968	725.5999756
1266.093223	721.0
1266.636711	719.5999756
1267.180141	719.7999878
1267.723516	720.7999878
1268.266835	723.0
1268.810097	716.7999878
1269.353303	718.2000122
1269.896453	719.2000122
1270.439547	714.4000244
1270.982584	716.7999878
1271.525566	721.2000122
1272.068491	717.2000122
1272.61136	715.5999756
1273.154173	717.7999878
1273.69693	717.0
1274.239631	720.0
1274.782275	723.0
1275.324864	715.0
1275.867396	715.5999756
1276.409872	722.2000122
1276.952292	717.0
1277.494656	713.4000244
1278.036964	718.4000244
1278.579215	717.7999878
1279.121411	721.0
1279.66355	727.4000244
1280.205634	724.0
1280.747661	729.4000244
1281.289632	728.2000122
1281.831547	739.4000244
1282.373406	756.2000122
1282.915209	787.7999878
1283.456955	840.0
1283.998646	906.0
1284.540281	902.5999756
1285.081859	853.5999756
1285.623381	785.0
1286.164848	749.5999756
1286.706258	733.7999878
1287.247612	733.0
1287.788911	727.4000244
1288.330153	722.2000122
1288.871339	720.2000122
1289.412469	720.5999756
1289.953543	724.2000122
1290.494561	723.4000244
1291.035523	723.4000244
1291.576428	723.4000244
1292.117278	721.4000244
1292.658072	719.5999756
1293.19881	721.4000244
1293.739492	718.4000244
1294.280118	721.7999878
1294.820687	726.2000122
1295.361201	719.5999756
1295.901659	719.4000244
1296.442061	721.4000244
1296.982406	723.4000244
1297.522696	729.2000122
1298.06293	722.2000122
1298.603108	723.0
1299.143229	723.5999756
1299.683295	722.0
1300.223305	722.7999878
1300.763259	725.7999878
1301.303157	720.4000244
1301.842999	719.2000122
1302.382785	720.7999878
1302.922515	724.4000244
1303.462189	721.2000122
1304.001807	723.4000244
1304.541369	718.5999756
1305.080875	721.5999756
1305.620326	722.2000122
1306.15972	719.0
1306.699058	720.7999878
1307.238341	724.5999756
1307.777567	717.2000122
1308.316738	719.4000244
1308.855853	721.7999878
1309.394912	718.0
1309.933915	718.0
1310.472862	717.5999756
1311.011753	717.2000122
1311.550588	720.4000244
1312.089367	716.2000122
1312.62809	721.7999878
1313.166758	718.7999878
1313.70537	717.2000122
1314.243925	717.0
1314.782425	712.7999878
1315.320869	716.0
1315.859257	719.2000122
1316.397589	711.5999756
1316.935866	712.7999878
1317.474086	718.2000122
1318.012251	715.0
1318.55036	716.7999878
1319.088413	713.4000244
1319.62641	715.5999756
1320.164351	712.2000122
1320.702236	712.0
1321.240066	712.2000122
1321.777839	714.7999878
1322.315557	713.4000244
1322.853219	713.7999878
1323.390826	715.0
1323.928376	715.4000244
1324.465871	714.7999878
1325.003309	712.7999878
1325.540692	713.7999878
1326.07802	712.5999756
1326.615291	710.4000244
1327.152506	714.0
1327.689666	711.5999756
1328.22677	714.2000122
1328.763818	711.2000122
1329.300811	713.5999756
1329.837747	713.2000122
1330.374628	709.4000244
1330.911453	711.4000244
1331.448222	715.4000244
1331.984936	712.5999756
1332.521594	714.2000122
1333.058196	714.4000244
1333.594742	715.0
1334.131232	708.4000244
1334.667667	713.4000244
1335.204046	712.7999878
1335.740369	712.4000244
1336.276637	713.2000122
1336.812848	714.0
1337.349004	715.7999878
1337.885105	712.0
1338.421149	717.2000122
1338.957138	715.0
1339.493071	714.4000244
1340.028949	713.4000244
1340.56477	715.0
1341.100536	710.7999878
1341.636246	713.0
1342.171901	714.4000244
1342.7075	708.2000122
1343.243043	709.7999878
1343.77853	714.2000122
1344.313962	707.2000122
1344.849338	711.0
1345.384659	713.5999756
1345.919923	714.4000244
1346.455133	711.2000122
1346.990286	711.5999756
1347.525384	712.5999756
1348.060426	713.4000244
1348.595412	711.2000122
1349.130343	709.2000122
1349.665218	711.7999878
1350.200037	709.4000244
1350.734801	715.5999756
1351.269509	717.4000244
1351.804162	712.5999756
1352.338758	712.4000244
1352.8733	716.4000244
1353.407785	713.0
1353.942215	714.7999878
1354.476589	711.5999756
1355.010908	709.7999878
1355.545171	710.0
1356.079379	714.7999878
1356.61353	710.4000244
1357.147627	713.7999878
1357.681667	712.7999878
1358.215652	711.5999756
1358.749582	714.7999878
1359.283456	710.0
1359.817274	714.7999878
1360.351037	711.7999878
1360.884744	711.2000122
1361.418395	712.5999756
1361.951991	713.0
1362.485531	716.0
1363.019016	708.5999756
1363.552445	712.2000122
1364.085819	715.2000122
1364.619137	711.5999756
1365.1524	719.4000244
1365.685607	715.0
1366.218758	719.5999756
1366.751854	712.7999878
1367.284894	714.0
1367.817879	713.0
1368.350808	714.2000122
1368.883682	711.0
1369.4165	716.2000122
1369.949263	721.4000244
1370.48197	719.5999756
1371.014622	717.2000122
1371.547218	714.4000244
1372.079758	709.5999756
1372.612244	714.7999878
1373.144673	714.2000122
1373.677047	715.2000122
1374.209366	717.4000244
1374.741629	714.0
1375.273836	715.5999756
1375.805989	713.4000244
1376.338085	717.2000122
1376.870126	715.2000122
1377.402112	717.4000244
1377.934042	710.5999756
1378.465917	712.2000122
1378.997736	714.2000122
1379.5295	717.0
1380.061208	717.7999878
1380.592861	712.5999756
1381.124459	721.0
1381.656	713.5999756
1382.187487	717.5999756
1382.718918	718.2000122
1383.250294	716.7999878
1383.781614	722.2000122
1384.312879	724.0
1384.844088	728.5999756
1385.375242	730.0
1385.90634	741.7999878
1386.437383	765.0
1386.968371	816.0
1387.499303	947.2000122
1388.03018	1120.800049
1388.561001	1078.800049
1389.091767	894.7999878
1389.622478	783.2000122
1390.153133	752.5999756
1390.683733	733.7999878
1391.214277	727.5999756
1391.744766	725.4000244
1392.2752	720.7999878
1392.805578	722.2000122
1393.335901	719.2000122
1393.866168	726.2000122
1394.396381	716.4000244
1394.926537	720.5999756
1395.456639	719.5999756
1395.986685	717.7999878
1396.516675	716.2000122
1397.046611	718.5999756
1397.576491	714.2000122
1398.106315	716.5999756
1398.636084	719.5999756
1399.165798	712.0
1399.695457	715.2000122
1400.22506	717.2000122
1400.754608	714.4000244
1401.284101	716.0
1401.813538	714.2000122
1402.34292	711.5999756
1402.872247	716.5999756
1403.401518	715.5999756
1403.930734	716.4000244
1404.459895	717.4000244
1404.989	714.0
1405.51805	716.0
1406.047045	717.7999878
1406.575984	715.7999878
1407.104869	714.4000244
1407.633697	720.5999756
1408.162471	721.5999756
1408.691189	727.7999878
1409.219852	733.4000244
1409.74846	735.2000122
1410.277013	733.7999878
1410.80551	725.0
1411.333952	724.2000122
1411.862339	718.5999756
1412.39067	713.0
1412.918946	717.5999756
1413.447167	713.7999878
1413.975333	709.7999878
1414.503444	713.4000244
1415.031499	716.4000244
1415.559499	730.0
1416.087444	718.2000122
1416.615333	714.7999878
1417.143167	712.0
1417.670947	715.4000244
1418.19867	716.2000122
1418.726339	716.5999756
1419.253952	715.4000244
1419.781511	712.2000122
1420.309014	712.2000122
1420.836461	713.2000122
1421.363854	711.4000244
1421.891191	716.5999756
1422.418474	711.7999878
1422.945701	714.4000244
1423.472872	709.5999756
1423.999989	714.0
1424.52705	709.4000244
1425.054057	710.0
1425.581008	711.4000244
1426.107904	714.2000122
1426.634745	717.2000122
1427.16153	714.2000122
1427.688261	714.0
1428.214936	713.4000244
1428.741556	713.7999878
1429.268121	712.2000122
1429.794631	711.2000122
1430.321085	716.4000244
1430.847485	717.2000122
1431.373829	710.4000244
1431.900118	717.5999756
1432.426353	715.5999756
1432.952532	714.7999878
1433.478655	714.4000244
1434.004724	711.4000244
1434.530738	716.2000122
1435.056696	713.2000122
1435.5826	716.0
1436.108448	715.0
1436.634241	711.7999878
1437.159979	716.0
1437.685662	717.2000122
1438.21129	719.0
1438.736863	718.5999756
1439.262381	713.5999756
1439.787843	713.5999756
1440.313251	711.5999756
1440.838603	719.4000244
1441.3639	715.7999878
1441.889143	716.0
1442.41433	715.4000244
1442.939462	719.5999756
1443.464539	715.4000244
1443.989561	715.0
1444.514528	720.2000122
1445.03944	718.0
1445.564297	720.2000122
1446.089099	719.2000122
1446.613846	719.0
1447.138537	719.7999878
1447.663174	721.5999756
1448.187756	714.5999756
1448.712282	722.5999756
1449.236754	716.5999756
1449.761171	713.7999878
1450.285532	719.2000122
1450.809839	717.7999878
1451.33409	718.7999878
1451.858287	721.2000122
1452.382428	715.0
1452.906515	717.7999878
1453.430546	719.2000122
1453.954523	714.7999878
1454.478444	718.5999756
1455.002311	718.5999756
1455.526123	717.7999878
1456.049879	718.2000122
1456.573581	719.5999756
1457.097227	719.5999756
1457.620819	723.0
1458.144356	718.7999878
1458.667837	719.0
1459.191264	717.0
1459.714636	716.2000122
1460.237952	716.0
1460.761214	713.7999878
1461.284421	717.4000244
1461.807573	722.4000244
1462.33067	716.2000122
1463.899632	730.0
1464.422509	716.4000244
1464.945331	720.0
1465.468099	716.7999878
1465.990811	722.2000122
1466.513469	713.5999756
1467.036071	715.0
1467.558619	720.4000244
1468.081112	718.7999878
1468.60355	718.4000244
1469.125933	719.5999756
1469.648261	715.0
1470.170534	714.0
1470.692752	714.2000122
1471.214916	719.2000122
1471.737024	711.5999756
1472.259078	713.7999878
1472.781077	717.0
1473.303021	714.5999756
1473.82491	717.0
1474.346744	710.4000244
1474.868523	715.5999756
1475.390248	712.2000122
1475.911917	712.5999756
1476.433532	711.0
1476.955092	716.0
1477.476597	712.0
1477.998047	709.4000244
1478.519442	715.0
1479.040783	714.4000244
1479.562068	712.0
1480.083299	716.0
1480.604475	707.4000244
1481.125596	716.2000122
1481.646663	717.0
1482.167674	713.0
1482.688631	709.2000122
1483.209533	713.2000122
1483.73038	708.7999878
1484.251172	708.7999878
1484.771909	708.7999878
1485.292592	708.5999756
1485.81322	707.4000244
1486.333793	711.5999756
1486.854311	711.5999756
1487.374775	712.7999878
1487.895183	707.7999878
1488.415537	707.2000122
1488.935836	705.4000244
1489.456081	706.7999878
1489.97627	709.0
1490.496405	706.7999878
1491.016485	706.7999878
1491.536511	707.5999756
1492.056481	707.7999878
1492.576397	707.7999878
1493.096258	711.4000244
1493.616064	706.5999756
1494.135816	704.0
1494.655513	710.4000244
1495.175155	706.2000122
1495.694742	709.0
1496.214274	704.4000244
1496.733752	705.7999878
1497.253175	710.5999756
1497.772544	710.0
1498.291858	713.5999756
1498.811116	710.5999756
1499.330321	707.4000244
1499.84947	719.7999878
1500.368565	704.0
1500.887605	707.0
1501.406591	707.4000244
1501.925521	705.5999756
1502.444397	705.0
1502.963219	708.4000244
1503.481985	707.2000122
1504.000697	706.2000122
1504.519355	713.0
1505.037957	708.7999878
1505.556505	703.2000122
1506.074999	707.4000244
1506.593437	704.4000244
1507.111821	703.5999756
1507.63015	709.5999756
1508.148425	707.2000122
1508.666645	708.7999878
1509.18481	709.4000244
1509.702921	709.2000122
1510.220977	707.5999756
1510.738979	716.0
1511.256925	710.7999878
1511.774817	711.4000244
1512.292655	707.5999756
1512.810438	707.0
1513.328166	710.4000244
1513.84584	708.7999878
1514.363459	711.2000122
1514.881023	706.5999756
1515.398533	709.7999878
1515.915988	707.2000122
1516.433389	710.7999878
1516.950734	708.2000122
1517.468026	708.2000122
1517.985263	706.5999756
1518.502445	705.4000244
1519.019572	709.2000122
1519.536645	705.4000244
1520.053664	703.4000244
1520.570628	710.5999756
1521.087537	707.4000244
1521.604392	706.4000244
1522.121192	705.4000244
1522.637937	705.0
1523.154628	711.0
1523.671265	708.4000244
1524.187847	704.5999756
1524.704374	706.7999878
1525.220847	701.0
1525.737265	718.2000122
1526.769938	727.4000244
1527.286192	709.5999756
1527.802392	711.5999756
1528.318538	706.0
1528.834629	702.5999756
1529.350666	707.4000244
1529.866648	708.0
1530.382575	706.0
1530.898448	709.7999878
1531.414266	705.0
1531.93003	707.7999878
1532.44574	704.5999756
1532.961395	708.5999756
1533.476995	705.5999756
1533.992541	709.0
1534.508033	706.0
1535.02347	712.4000244
1535.538852	709.2000122
1536.05418	703.4000244
1536.569454	711.5999756
1537.084673	708.0
1537.599837	706.5999756
1538.114947	709.2000122
1538.630003	706.2000122
1539.145004	705.7999878
1539.659951	705.7999878
1540.174843	705.7999878
1540.689681	711.4000244
1541.204465	705.5999756
1541.719194	706.5999756
1542.233868	704.4000244
1542.748488	705.7999878
1543.263054	708.7999878
1543.777565	708.7999878
1544.292022	712.7999878
1544.806424	714.7999878
1545.320772	708.7999878
1545.835066	709.2000122
1546.349305	713.4000244
1546.863489	708.4000244
1547.37762	708.2000122
1547.891696	710.5999756
1548.405717	707.7999878
1548.919684	716.5999756
1549.433597	710.5999756
1549.947455	708.4000244
1550.461259	711.2000122
1550.975009	708.5999756
1551.488704	712.0
1552.002345	712.0
1552.515931	710.4000244
1553.029463	707.0
1553.542941	707.4000244
1554.056364	710.7999878
1554.569733	712.4000244
1555.083048	708.5999756
1555.596308	709.0
1556.109514	708.7999878
1556.622665	706.7999878
1557.135762	712.0
1557.648805	709.4000244
1558.161794	713.0
1558.674728	711.7999878
1559.187608	708.2000122
1559.700433	708.0
1560.213205	708.5999756
1560.725921	710.7999878
1561.238584	709.7999878
1561.751192	709.4000244
1562.263746	710.4000244
1562.776246	710.2000122
1563.288691	713.0
1563.801082	715.5999756
1564.313419	710.4000244
1564.825701	713.5999756
1565.337929	712.7999878
1565.850103	709.7999878
1566.362223	715.0
1566.874288	723.4000244
1567.386299	714.7999878
1567.898256	710.5999756
1568.410158	712.2000122
1568.922007	714.0
1569.4338	719.2000122
1569.94554	714.5999756
1570.457226	713.4000244
1570.968857	711.0
1571.480434	712.4000244
1571.991956	712.5999756
1572.503425	710.0
1573.014839	710.4000244
1573.526199	710.4000244
1574.037505	709.0
1574.548756	716.4000244
1575.059953	712.5999756
1575.571096	716.7999878
1576.082185	710.2000122
1576.59322	715.0
1577.1042	711.0
1577.615126	713.7999878
1578.125998	716.0
1578.636816	715.4000244
1579.14758	716.2000122
1579.658289	711.0
1580.168944	718.0
1580.679545	718.2000122
1581.190092	714.4000244
1581.700585	714.5999756
1582.211023	712.2000122
1582.721407	712.7999878
1583.231737	714.2000122
1583.742013	713.5999756
1584.252235	715.0
1584.762403	708.5999756
1585.272516	712.5999756
1585.782575	712.7999878
1586.292581	709.0
1586.802532	713.0
1587.312428	714.2000122
1587.822271	715.7999878
1588.33206	711.7999878
1588.841794	712.4000244
1589.351474	714.7999878
1589.8611	711.0
1590.370672	714.7999878
1590.88019	712.0
1591.389654	710.4000244
1591.899064	709.0
1592.408419	710.4000244
