1042.452273	720.2000122
1043.018714	715.0
1043.585098	719.7999878
1044.151424	717.7999878
1044.717692	718.2000122
1045.283903	720.4000244
1045.850056	713.7999878
1046.416151	714.0
1046.982188	720.2000122
1047.548167	713.2000122
1048.114089	713.7999878
1048.679953	714.0
1049.24576	712.2000122
1049.811509	714.4000244
1050.3772	717.7999878
1050.942833	714.5999756
1051.508408	712.4000244
1052.073926	712.2000122
1052.639387	706.4000244
1053.204789	715.4000244
1053.770134	714.0
1054.335421	711.4000244
1054.900651	708.0
1055.465823	706.0
1056.030937	712.0
1056.595993	708.7999878
1057.160992	708.7999878
1057.725934	709.7999878
1058.290817	711.0
1058.855643	705.7999878
1059.420411	710.0
1059.985122	709.2000122
1060.549775	709.5999756
1061.114371	709.4000244
1061.678908	709.4000244
1062.243389	710.0
1062.807811	704.7999878
1063.372176	706.5999756
1063.936483	712.0
1064.500733	707.4000244
1065.064925	710.7999878
1065.62906	708.5999756
1066.193137	704.4000244
1066.757156	709.0
1067.321118	704.7999878
1067.885022	706.2000122
1068.448869	708.7999878
1069.012658	709.2000122
1069.57639	710.5999756
1070.140063	714.5999756
1070.70368	707.5999756
1071.267239	710.2000122
1071.83074	706.7999878
1072.394184	709.5999756
1072.95757	707.7999878
1073.520899	707.0
1074.08417	706.2000122
1074.647383	706.7999878
1075.21054	710.4000244
1075.773638	709.4000244
1076.336679	710.7999878
1076.899663	707.0
1077.462589	708.4000244
1078.025457	712.2000122
1078.588268	710.4000244
1079.151022	706.7999878
1079.713718	709.2000122
1080.276356	709.0
1080.838937	708.2000122
1081.401461	709.4000244
1081.963927	706.4000244
1082.526336	710.2000122
1083.088687	707.2000122
1083.650981	707.7999878
1084.213217	709.7999878
1084.775396	708.4000244
1085.337517	709.2000122
1085.899581	708.5999756
1086.461587	710.7999878
1087.023536	712.5999756
1087.585428	708.4000244
1088.147262	708.7999878
1088.709039	711.7999878
1089.270758	710.4000244
1089.83242	708.5999756
1090.394024	705.5999756
1090.955571	710.0
1091.517061	711.5999756
1092.078493	714.2000122
1092.639868	707.5999756
1093.201185	706.2000122
1093.762445	707.0
1094.323648	711.2000122
1094.884793	711.0
1095.445881	711.2000122
1096.006911	707.4000244
1096.567884	708.2000122
1097.1288	715.7999878
1097.689659	708.7999878
1098.25046	707.5999756
1098.811203	710.5999756
1099.37189	708.4000244
1099.932518	708.7999878
1100.49309	709.2000122
1101.053604	702.7999878
1101.614061	710.5999756
1102.174461	704.0
1102.734803	709.2000122
1103.295088	708.2000122
1103.855316	707.4000244
1104.415486	709.5999756
1104.975599	705.5999756
1105.535655	712.4000244
1106.095653	707.5999756
1106.655594	711.7999878
1107.215478	713.0
1107.775305	714.7999878
1108.335074	716.4000244
1108.894786	712.4000244
1109.45444	713.5999756
1110.014038	716.2000122
1110.573578	723.4000244
1111.133061	717.2000122
1111.692486	719.0
1112.251854	725.0
1112.811165	718.5999756
1113.370419	715.4000244
1113.929616	722.0
1114.488755	722.5999756
1115.047837	719.0
1115.606862	720.4000244
1116.16583	716.2000122
1116.72474	714.4000244
1117.283593	718.0
1117.842389	713.2000122
1118.401128	715.4000244
1118.959809	711.7999878
1119.518433	713.7999878
1120.077	711.4000244
1120.63551	708.7999878
1121.193963	706.5999756
1121.752358	710.4000244
1122.310697	711.5999756
1122.868978	703.7999878
1123.427202	706.0
1123.985368	705.2000122
1124.543478	712.7999878
1125.10153	706.7999878
1125.659526	708.5999756
1126.217464	709.4000244
1126.775345	714.0
1127.333168	713.5999756
1127.890935	709.4000244
1128.448644	705.4000244
1129.006297	716.2000122
1129.563892	710.2000122
1130.12143	710.4000244
1130.678911	710.4000244
1131.236335	706.0
1131.793701	704.7999878
1132.351011	707.7999878
1132.908263	710.7999878
1133.465458	707.4000244
1134.022597	709.4000244
1134.579678	707.2000122
1135.136702	708.0
1135.693669	707.4000244
1136.250578	706.0
1136.807431	707.2000122
1137.364227	704.4000244
1137.920965	704.7999878
1138.477647	708.0
1139.034271	707.4000244
1139.590839	706.0
1140.147349	708.5999756
1140.703802	706.7999878
1141.260198	709.0
1141.816537	706.2000122
1142.37282	705.5999756
1142.929045	709.0
1143.485213	707.0
1144.041323	704.4000244
1144.597377	707.0
1145.153374	704.2000122
1145.709314	707.0
1146.265197	711.2000122
1146.821023	701.4000244
1147.376792	705.7999878
1147.932503	707.7999878
1148.488158	703.0
1149.043756	706.7999878
1149.599297	705.7999878
1150.154781	708.4000244
1150.710207	705.2000122
1151.265577	705.7999878
1151.82089	704.0
1152.376146	703.0
1152.931345	707.0
1153.486487	706.5999756
1154.041572	709.0
1154.5966	709.2000122
1155.151571	709.5999756
1155.706485	708.0
1156.261342	707.0
1156.816142	707.2000122
1157.370885	707.5999756
1157.925572	709.4000244
1158.480201	705.4000244
1159.034774	710.5999756
1159.589289	713.4000244
1160.143748	708.4000244
1160.698149	709.2000122
1161.252494	705.4000244
1161.806782	702.5999756
1162.361013	704.7999878
1162.915187	706.5999756
1163.469304	704.5999756
1164.023364	710.4000244
1164.577368	704.4000244
1165.131314	709.7999878
1165.685204	707.0
1166.239036	710.2000122
1166.792812	706.7999878
1167.346531	708.2000122
1167.900193	711.7999878
1168.453798	704.4000244
1169.007347	706.2000122
1169.560838	710.7999878
1170.114273	705.0
1170.66765	707.0
1171.220971	707.7999878
1171.774235	710.5999756
1172.327443	709.2000122
1172.880593	706.2000122
1173.433687	706.5999756
1173.986723	711.4000244
1174.539703	709.7999878
1175.092626	703.7999878
1175.645493	704.4000244
1176.198302	711.7999878
1176.751055	703.2000122
1177.303751	705.0
1177.85639	709.2000122
1178.408972	709.4000244
1178.961498	707.7999878
1179.513966	710.7999878
1180.066378	705.2000122
1180.618733	712.4000244
1181.171032	710.0
1181.723273	708.5999756
1182.275458	707.2000122
1182.827586	712.2000122
1183.379657	714.4000244
1183.931672	710.4000244
1184.48363	718.0
1185.035531	714.5999756
1185.587375	712.2000122
1186.139162	713.4000244
1186.690893	713.4000244
1187.242567	711.0
1187.794184	715.5999756
1188.345745	711.7999878
1188.897249	719.5999756
1189.448696	711.2000122
1190.000086	710.4000244
1190.55142	711.2000122
1191.102697	711.2000122
1191.653918	709.5999756
1192.205081	712.7999878
1192.756188	712.4000244
1193.307238	728.5999756
1193.858232	710.4000244
1194.409169	705.2000122
1194.960049	710.2000122
1195.510872	707.5999756
1196.061639	702.7999878
1196.612349	707.7999878
1197.163003	708.4000244
1197.713599	700.5999756
1198.264139	707.7999878
1198.814623	708.4000244
1199.36505	703.7999878
1199.91542	705.2000122
1200.465734	701.2000122
1201.01599	704.5999756
1201.566191	703.2000122
1202.116334	706.2000122
1202.666421	707.5999756
1203.216452	707.0
1203.766425	702.0
1204.316343	705.2000122
1204.866203	706.2000122
1205.416007	705.0
1205.965754	707.7999878
1206.515445	705.7999878
1207.065079	704.2000122
1207.614657	707.2000122
1208.164177	703.4000244
1208.713642	704.5999756
1209.26305	706.5999756
1209.812401	706.7999878
1210.361695	707.7999878
1210.910933	705.0
1211.460115	702.7999878
1212.00924	707.4000244
1212.558308	709.0
1213.10732	706.0
1213.656275	711.2000122
1214.205174	709.7999878
1214.754016	712.0
1215.302801	707.7999878
1215.85153	704.5999756
1216.400203	710.5999756
1216.948819	708.2000122
1217.497378	707.2000122
1218.045881	708.5999756
1218.594327	710.7999878
1219.142717	707.4000244
1219.691051	708.7999878
1220.239327	714.7999878
1220.787548	709.4000244
1221.335712	711.7999878
1221.883819	710.0
1222.43187	712.0
1222.979864	711.5999756
1223.527802	712.5999756
1224.075683	714.7999878
1224.623508	714.4000244
1225.171277	713.0
1225.718989	713.7999878
1226.266644	712.7999878
1226.814243	714.0
1227.361786	717.0
1227.909272	713.0
1228.456702	715.0
1229.004075	713.5999756
1229.551392	713.5999756
1230.098652	712.4000244
1230.645856	707.2000122
1231.193003	709.2000122
1231.740094	715.0
1232.287129	713.2000122
1232.834107	711.4000244
1233.381029	715.0
1233.927894	712.7999878
1234.474703	713.7999878
1235.021455	717.4000244
1235.568151	713.0
1236.114791	706.5999756
1236.661374	706.7999878
1237.207901	710.4000244
1237.754372	711.0
1238.300786	707.2000122
1238.847144	705.2000122
1239.393445	710.0
1239.93969	708.5999756
1240.485879	712.4000244
1241.032011	714.4000244
1241.578087	715.2000122
1242.124106	714.2000122
1242.67007	711.0
1243.215976	709.0
1243.761827	711.0
1244.307621	715.4000244
1244.853359	712.2000122
1245.39904	711.4000244
1245.944665	710.4000244
1246.490234	712.7999878
1247.035746	713.4000244
1247.581203	710.4000244
1248.126602	711.2000122
1248.671946	710.4000244
1249.217233	708.7999878
1249.762464	713.4000244
1250.307638	710.4000244
1250.852757	710.5999756
1251.397819	710.4000244
1251.942824	707.7999878
1252.487774	715.7999878
1253.032667	716.5999756
1253.577503	708.5999756
1254.122284	714.5999756
1254.667008	711.0
1255.211676	716.4000244
1255.756288	710.5999756
1256.300843	711.7999878
1256.845342	713.7999878
1257.389785	713.2000122
1257.934172	711.2000122
1258.478502	714.7999878
1259.022776	714.7999878
1259.566994	713.2000122
1260.111156	732.4000244
1260.655261	711.4000244
1261.199311	718.4000244
1261.743304	719.5999756
1262.28724	715.5999756
1262.831121	720.5999756
1263.374945	724.0
1263.918713	727.4000244
1264.462425	725.2000122
1265.006081	724.4000244
1265.54968	724.5999756
1266.093223	716.7999878
1266.636711	712.7999878
1267.180141	714.0
1267.723516	715.5999756
1268.266835	714.7999878
1268.810097	710.5999756
1269.353303	713.4000244
1269.896453	710.5999756
1270.439547	711.4000244
1270.982584	712.5999756
1271.525566	713.7999878
1272.068491	715.5999756
1272.61136	706.7999878
1273.154173	714.4000244
1273.69693	713.0
1274.239631	708.5999756
1274.782275	710.7999878
1275.324864	711.4000244
1275.867396	711.4000244
1276.409872	713.0
1276.952292	711.2000122
1277.494656	713.4000244
1278.036964	709.7999878
1278.579215	713.7999878
1279.121411	717.4000244
1279.66355	712.4000244
1280.205634	719.0
1280.747661	723.0
1281.289632	723.2000122
1281.831547	736.5999756
1282.373406	755.0
1282.915209	795.2000122
1283.456955	863.2000122
1283.998646	960.2000122
1284.540281	1006.0
1285.081859	922.2000122
1285.623381	816.2000122
1286.164848	761.4000244
1286.706258	739.7999878
1287.247612	725.2000122
1287.788911	719.0
1288.330153	725.2000122
1288.871339	722.0
1289.412469	710.7999878
1289.953543	713.7999878
1290.494561	719.2000122
1291.035523	717.2000122
1291.576428	717.0
1292.117278	715.2000122
1292.658072	713.5999756
1293.19881	712.5999756
1293.739492	710.4000244
1294.280118	714.5999756
1294.820687	712.5999756
1295.361201	714.5999756
1295.901659	714.2000122
1296.442061	714.4000244
1296.982406	712.4000244
1297.522696	711.0
1298.06293	711.7999878
1298.603108	710.0
1299.143229	713.4000244
1299.683295	714.4000244
1300.223305	708.5999756
1300.763259	715.4000244
1301.303157	711.4000244
1301.842999	709.0
1302.382785	715.5999756
1302.922515	714.2000122
1303.462189	716.5999756
1304.001807	711.2000122
1304.541369	709.0
1305.080875	707.0
1305.620326	711.0
1306.15972	710.0
1306.699058	713.7999878
1307.238341	712.4000244
1307.777567	709.2000122
1308.316738	710.0
1308.855853	710.4000244
1309.394912	709.4000244
1309.933915	709.2000122
1310.472862	709.0
1311.011753	710.5999756
1311.550588	706.5999756
1312.089367	708.5999756
1312.62809	707.0
1313.166758	712.5999756
1313.70537	710.2000122
1314.243925	709.5999756
1314.782425	704.5999756
1315.320869	704.0
1315.859257	705.5999756
1316.397589	706.7999878
1316.935866	708.7999878
1317.474086	706.2000122
1318.012251	708.7999878
1318.55036	706.2000122
1319.088413	706.0
1319.62641	707.4000244
1320.164351	705.2000122
1320.702236	699.7999878
1321.240066	707.5999756
1321.777839	708.5999756
1322.315557	701.5999756
1322.853219	707.5999756
1323.390826	702.4000244
1323.928376	713.5999756
1324.465871	705.5999756
1325.003309	703.4000244
1325.540692	706.2000122
1326.07802	712.2000122
1326.615291	711.4000244
1327.152506	707.4000244
1327.689666	704.7999878
1328.22677	703.7999878
1328.763818	706.2000122
1329.300811	702.2000122
1329.837747	706.2000122
1330.374628	707.4000244
1330.911453	703.7999878
1331.448222	705.5999756
1331.984936	706.2000122
1332.521594	705.2000122
1333.058196	706.2000122
1333.594742	706.2000122
1334.131232	704.2000122
1334.667667	704.2000122
1335.204046	708.0
1335.740369	704.7999878
1336.276637	704.4000244
1336.812848	703.0
1337.349004	708.4000244
1337.885105	706.0
1338.421149	709.4000244
1338.957138	706.2000122
1339.493071	706.7999878
1340.028949	706.5999756
1340.56477	706.4000244
1341.100536	703.2000122
1341.636246	705.4000244
1342.171901	705.5999756
1342.7075	708.5999756
1343.243043	705.4000244
1343.77853	706.4000244
1344.313962	704.0
1344.849338	707.2000122
1345.384659	702.0
1345.919923	704.0
1346.455133	708.4000244
1346.990286	705.2000122
1347.525384	712.0
1348.060426	708.7999878
1348.595412	707.0
1349.130343	708.2000122
1349.665218	711.7999878
1350.200037	707.4000244
1350.734801	708.5999756
1351.269509	705.5999756
1351.804162	707.7999878
1352.338758	706.0
1352.8733	703.4000244
1353.407785	705.0
1353.942215	708.0
1354.476589	703.2000122
1355.010908	704.2000122
1355.545171	703.4000244
1356.079379	703.7999878
1356.61353	705.7999878
1357.147627	704.0
1357.681667	709.5999756
1358.215652	707.4000244
1358.749582	708.4000244
1359.283456	702.4000244
1359.817274	709.5999756
1360.351037	703.2000122
1360.884744	702.7999878
1361.418395	709.7999878
1361.951991	708.0
1362.485531	706.5999756
1363.019016	705.0
1363.552445	706.0
1364.085819	709.2000122
1364.619137	706.7999878
1365.1524	708.5999756
1365.685607	707.4000244
1366.218758	706.5999756
1366.751854	709.4000244
1367.284894	709.0
1367.817879	706.2000122
1368.350808	708.4000244
1368.883682	711.0
1369.4165	716.0
1369.949263	713.7999878
1370.48197	719.2000122
1371.014622	711.0
1371.547218	709.5999756
1372.079758	706.0
1372.612244	712.4000244
1373.144673	709.7999878
1373.677047	703.0
1374.209366	707.7999878
1374.741629	711.0
1375.273836	708.2000122
1375.805989	710.5999756
1376.338085	708.2000122
1376.870126	705.2000122
1377.402112	708.4000244
1377.934042	711.4000244
1378.465917	707.7999878
1378.997736	712.4000244
1379.5295	711.0
1380.061208	710.7999878
1380.592861	709.5999756
1381.124459	710.2000122
1381.656	711.7999878
1382.187487	714.2000122
1382.718918	717.4000244
1383.250294	715.2000122
1383.781614	718.0
1384.312879	721.5999756
1384.844088	723.5999756
1385.375242	732.0
1385.90634	742.2000122
1386.437383	773.0
1386.968371	835.4000244
1387.499303	991.5999756
1388.03018	1267.400024
1388.561001	1266.0
1389.091767	981.7999878
1389.622478	811.7999878
1390.153133	754.4000244
1390.683733	736.2000122
1391.214277	730.4000244
1391.744766	722.2000122
1392.2752	716.2000122
1392.805578	713.5999756
1393.335901	718.2000122
1393.866168	715.7999878
1394.396381	709.7999878
1394.926537	715.0
1395.456639	709.5999756
1395.986685	708.0
1396.516675	711.5999756
1397.046611	705.2000122
1397.576491	705.0
1398.106315	713.7999878
1398.636084	708.4000244
1399.165798	706.7999878
1399.695457	708.4000244
1400.22506	710.5999756
1400.754608	709.5999756
1401.284101	715.5999756
1401.813538	705.0
1402.34292	708.0
1402.872247	707.4000244
1403.401518	711.5999756
1403.930734	709.4000244
1404.459895	706.2000122
1404.989	709.5999756
1405.51805	713.5999756
1406.047045	710.0
1406.575984	710.4000244
1407.104869	713.5999756
1407.633697	715.7999878
1408.162471	720.0
1408.691189	725.5999756
1409.219852	736.2000122
1409.74846	743.4000244
1410.277013	739.4000244
1410.80551	728.5999756
1411.333952	722.7999878
1411.862339	713.2000122
1412.39067	714.2000122
1412.918946	708.7999878
1413.447167	706.5999756
1413.975333	709.2000122
1414.503444	709.7999878
1415.031499	707.7999878
1415.559499	720.4000244
1416.087444	710.0
1416.615333	708.7999878
1417.143167	706.7999878
1417.670947	709.5999756
1418.19867	706.5999756
1418.726339	707.0
1419.253952	708.7999878
1419.781511	706.7999878
1420.309014	707.5999756
1420.836461	704.5999756
1421.363854	709.0
1421.891191	704.7999878
1422.418474	708.0
1422.945701	703.7999878
1423.472872	704.4000244
1423.999989	706.7999878
1424.52705	704.0
1425.054057	707.5999756
1425.581008	708.0
1426.107904	706.5999756
1426.634745	703.5999756
1427.16153	707.5999756
1427.688261	704.0
1428.214936	700.7999878
1428.741556	703.5999756
1429.268121	705.5999756
1429.794631	702.2000122
1430.321085	706.0
1430.847485	709.7999878
1431.373829	706.4000244
1431.900118	705.0
1432.426353	707.0
1432.952532	707.0
1433.478655	704.0
1434.004724	712.2000122
1434.530738	707.0
1435.056696	706.0
1435.5826	708.0
1436.108448	704.7999878
1436.634241	709.4000244
1437.159979	708.4000244
1437.685662	711.5999756
1438.21129	709.7999878
1438.736863	706.0
1439.262381	705.4000244
1439.787843	703.4000244
1440.313251	708.0
1440.838603	706.4000244
1441.3639	709.0
1441.889143	708.7999878
1442.41433	709.0
1442.939462	704.5999756
1443.464539	707.0
1443.989561	707.7999878
1444.514528	706.5999756
1445.03944	705.0
1445.564297	709.7999878
1446.089099	705.0
1446.613846	707.0
1447.138537	709.0
1447.663174	709.0
1448.187756	706.5999756
1448.712282	709.2000122
1449.236754	704.7999878
1449.761171	705.2000122
1450.285532	709.7999878
1450.809839	711.5999756
1451.33409	709.7999878
1451.858287	705.7999878
1452.382428	706.7999878
1452.906515	710.4000244
1453.430546	705.5999756
1453.954523	705.2000122
1454.478444	708.2000122
1455.002311	709.4000244
1455.526123	708.2000122
1456.049879	705.4000244
1456.573581	706.7999878
1457.097227	708.4000244
1457.620819	709.7999878
1458.144356	709.5999756
1458.667837	706.2000122
1459.191264	702.4000244
1459.714636	705.5999756
1460.237952	708.5999756
1460.761214	712.4000244
1461.284421	709.2000122
1461.807573	706.0
1462.33067	708.4000244
1462.853712	731.2000122
1463.899632	715.5999756
1464.422509	709.0
1464.945331	706.5999756
1465.468099	707.2000122
1465.990811	712.0
1466.513469	709.2000122
1467.036071	710.0
1467.558619	705.5999756
1468.081112	708.5999756
1468.60355	707.7999878
1469.125933	704.2000122
1469.648261	705.7999878
1470.170534	705.7999878
1470.692752	706.5999756
1471.214916	705.2000122
1471.737024	708.4000244
1472.259078	703.0
1472.781077	704.4000244
1473.303021	706.5999756
1473.82491	704.7999878
1474.346744	703.7999878
1474.868523	707.5999756
1475.390248	704.2000122
1475.911917	701.5999756
1476.433532	704.4000244
1476.955092	706.4000244
1477.476597	702.5999756
1477.998047	704.0
1478.519442	698.5999756
1479.040783	702.4000244
1479.562068	705.4000244
1480.083299	702.4000244
1480.604475	704.0
1481.125596	702.7999878
1481.646663	702.2000122
1482.167674	699.2000122
1482.688631	703.2000122
1483.209533	700.2000122
1483.73038	702.7999878
1484.251172	701.7999878
1484.771909	699.4000244
1485.292592	699.7999878
1485.81322	702.4000244
1486.333793	703.2000122
1486.854311	697.7999878
1487.374775	701.4000244
1487.895183	702.2000122
1488.415537	703.7999878
1488.935836	704.0
1489.456081	700.5999756
1489.97627	705.2000122
1490.496405	700.2000122
1491.016485	701.7999878
1491.536511	705.2000122
1492.056481	699.7999878
1492.576397	702.2000122
1493.096258	700.2000122
1493.616064	701.7999878
1494.135816	697.7999878
1494.655513	700.7999878
1495.175155	705.2000122
1495.694742	701.5999756
1496.214274	700.0
1496.733752	699.0
1497.253175	701.4000244
1497.772544	703.2000122
1498.291858	699.2000122
1498.811116	704.0
1499.330321	702.2000122
1499.84947	711.0
1500.368565	699.5999756
1500.887605	704.0
1501.406591	701.0
1501.925521	697.7999878
1502.444397	698.4000244
1502.963219	701.7999878
1503.481985	698.0
1504.000697	702.5999756
1504.519355	700.4000244
1505.037957	698.2000122
1505.556505	701.4000244
1506.074999	705.2000122
1506.593437	701.0
1507.111821	702.2000122
1507.63015	704.0
1508.148425	695.5999756
1508.666645	700.4000244
1509.18481	700.5999756
1509.702921	698.5999756
1510.220977	699.4000244
1510.738979	708.7999878
1511.256925	702.0
1511.774817	697.0
1512.292655	703.0
1512.810438	698.5999756
1513.328166	698.4000244
1513.84584	702.0
1514.363459	703.2000122
1514.881023	699.7999878
1515.398533	698.4000244
1515.915988	700.7999878
1516.433389	703.0
1516.950734	699.0
1517.468026	699.5999756
1517.985263	697.2000122
1518.502445	699.2000122
1519.019572	700.0
1519.536645	701.0
1520.053664	697.4000244
1520.570628	698.4000244
1521.087537	701.0
1521.604392	704.7999878
1522.121192	698.4000244
1522.637937	698.5999756
1523.154628	700.4000244
1523.671265	694.7999878
1524.187847	697.5999756
1524.704374	701.0
1525.220847	701.4000244
1525.737265	710.2000122
1526.253629	733.2000122
1526.769938	713.7999878
1527.286192	704.2000122
1527.802392	702.4000244
1528.318538	699.5999756
1528.834629	698.2000122
1529.350666	704.0
1529.866648	704.4000244
1530.382575	700.2000122
1530.898448	698.5999756
1531.414266	702.4000244
1531.93003	698.5999756
1532.44574	702.7999878
1532.961395	703.4000244
1533.476995	699.0
1533.992541	700.2000122
1534.508033	702.4000244
1535.02347	703.7999878
1535.538852	700.4000244
1536.05418	702.2000122
1536.569454	703.4000244
1537.084673	704.0
1537.599837	696.4000244
1538.114947	700.0
1538.630003	699.2000122
1539.145004	701.5999756
1539.659951	702.2000122
1540.174843	701.2000122
1540.689681	699.7999878
1541.204465	699.4000244
1541.719194	702.7999878
1542.233868	702.4000244
1542.748488	698.5999756
1543.263054	701.0
1543.777565	700.0
1544.292022	701.2000122
1544.806424	696.5999756
1545.320772	706.0
1545.835066	699.5999756
1546.349305	700.2000122
1546.863489	699.2000122
1547.37762	697.5999756
1547.891696	705.7999878
1548.405717	698.5999756
1548.919684	701.5999756
1549.433597	699.4000244
1549.947455	701.5999756
1550.461259	699.2000122
1550.975009	703.4000244
1551.488704	697.4000244
1552.002345	700.5999756
1552.515931	703.4000244
1553.029463	704.7999878
1553.542941	701.2000122
1554.056364	697.4000244
1554.569733	700.5999756
1555.083048	703.0
1555.596308	702.4000244
1556.109514	700.5999756
1556.622665	700.0
1557.135762	697.4000244
1557.648805	703.2000122
1558.161794	703.5999756
1558.674728	702.5999756
1559.187608	699.0
1559.700433	706.7999878
1560.213205	698.7999878
1560.725921	705.2000122
1561.238584	702.4000244
1561.751192	703.4000244
1562.263746	698.4000244
1562.776246	701.4000244
1563.288691	702.5999756
1563.801082	704.5999756
1564.313419	703.2000122
1564.825701	704.4000244
1565.337929	704.2000122
1565.850103	706.5999756
1566.362223	704.2000122
1566.874288	706.7999878
1567.386299	703.4000244
1567.898256	704.4000244
1568.410158	703.4000244
1568.922007	702.4000244
1569.4338	703.0
1569.94554	703.0
1570.457226	702.5999756
1570.968857	702.5999756
1571.480434	705.4000244
1571.991956	701.7999878
1572.503425	701.2000122
1573.014839	698.0
1573.526199	699.7999878
1574.037505	699.4000244
1574.548756	705.5999756
1575.059953	699.5999756
1575.571096	699.4000244
1576.082185	700.2000122
1576.59322	698.5999756
1577.1042	707.4000244
1577.615126	701.2000122
1578.125998	702.5999756
1578.636816	701.7999878
1579.14758	705.7999878
1579.658289	702.4000244
1580.168944	704.2000122
1580.679545	704.0
1581.190092	702.2000122
1581.700585	701.2000122
1582.211023	704.2000122
1582.721407	708.7999878
1583.231737	703.7999878
1583.742013	704.0
1584.252235	700.2000122
1584.762403	706.2000122
1585.272516	703.5999756
1585.782575	703.2000122
1586.292581	705.0
1586.802532	703.2000122
1587.312428	703.5999756
1587.822271	700.7999878
1588.33206	698.0
1588.841794	704.0
1589.351474	700.4000244
1589.8611	705.0
1590.370672	700.0
1590.88019	705.5999756
1591.389654	699.0
1591.899064	706.7999878
1592.408419	704.7999878
