1042.452273	703.5999756
1043.018714	702.7999878
1043.585098	705.2000122
1044.151424	703.2000122
1044.717692	705.7999878
1045.283903	705.2000122
1045.850056	704.4000244
1046.416151	702.2000122
1046.982188	704.5999756
1047.548167	699.0
1048.114089	697.5999756
1048.679953	699.4000244
1049.24576	698.7999878
1049.811509	696.7999878
1050.3772	697.7999878
1050.942833	695.2000122
1051.508408	700.0
1052.073926	697.7999878
1052.639387	694.2000122
1053.204789	700.5999756
1053.770134	701.7999878
1054.335421	698.7999878
1054.900651	700.4000244
1055.465823	698.7999878
1056.030937	698.2000122
1056.595993	695.4000244
1057.160992	696.2000122
1057.725934	697.7999878
1058.290817	694.0
1058.855643	695.7999878
1059.420411	696.4000244
1059.985122	698.7999878
1060.549775	698.7999878
1061.114371	694.2000122
1061.678908	695.4000244
1062.243389	692.4000244
1062.807811	691.5999756
1063.372176	693.5999756
1063.936483	691.4000244
1064.500733	696.4000244
1065.064925	691.5999756
1065.62906	690.7999878
1066.193137	694.7999878
1066.757156	690.5999756
1067.321118	692.4000244
1067.885022	690.7999878
1068.448869	694.4000244
1069.012658	691.7999878
1069.57639	693.0
1070.140063	705.5999756
1070.70368	697.7999878
1071.267239	691.4000244
1071.83074	695.0
1072.394184	696.5999756
1072.95757	694.0
1073.520899	692.0
1074.08417	693.4000244
1074.647383	691.2000122
1075.21054	691.7999878
1075.773638	694.2000122
1076.336679	696.5999756
1076.899663	696.4000244
1077.462589	693.4000244
1078.025457	694.7999878
1078.588268	694.0
1079.151022	695.0
1079.713718	697.5999756
1080.276356	695.7999878
1080.838937	695.0
1081.401461	694.2000122
1081.963927	692.4000244
1082.526336	693.0
1083.088687	692.2000122
1083.650981	693.7999878
1084.213217	696.7999878
1084.775396	695.5999756
1085.337517	696.4000244
1085.899581	695.5999756
1086.461587	692.2000122
1087.023536	693.4000244
1087.585428	698.2000122
1088.147262	694.5999756
1088.709039	697.4000244
1089.270758	696.4000244
1089.83242	697.2000122
1090.394024	692.5999756
1090.955571	694.2000122
1091.517061	692.4000244
1092.078493	696.4000244
1092.639868	693.7999878
1093.201185	692.5999756
1093.762445	696.7999878
1094.323648	698.7999878
1094.884793	694.2000122
1095.445881	692.5999756
1096.006911	694.2000122
1096.567884	695.5999756
1097.1288	705.0
1097.689659	693.4000244
1098.25046	693.5999756
1098.811203	693.0
1099.37189	695.7999878
1099.932518	695.7999878
1100.49309	696.0
1101.053604	695.5999756
1101.614061	694.5999756
1102.174461	694.2000122
1102.734803	692.7999878
1103.295088	691.0
1103.855316	693.7999878
1104.415486	694.4000244
1104.975599	697.0
1105.535655	697.0
1106.095653	694.5999756
1106.655594	695.7999878
1107.215478	696.0
1107.775305	695.0
1108.335074	696.4000244
1108.894786	699.0
1109.45444	701.5999756
1110.014038	701.7999878
1110.573578	698.2000122
1111.133061	699.5999756
1111.692486	699.7999878
1112.251854	700.7999878
1112.811165	700.2000122
1113.370419	703.2000122
1113.929616	699.7999878
1114.488755	699.2000122
1115.047837	702.5999756
1115.606862	707.2000122
1116.16583	700.4000244
1116.72474	697.4000244
1117.283593	704.7999878
1117.842389	696.5999756
1118.401128	700.0
1118.959809	696.2000122
1119.518433	692.7999878
1120.077	690.2000122
1120.63551	699.4000244
1121.193963	694.0
1121.752358	695.5999756
1122.310697	694.5999756
1122.868978	691.7999878
1123.427202	689.5999756
1123.985368	693.7999878
1124.543478	693.2000122
1125.10153	694.7999878
1125.659526	692.5999756
1126.217464	693.0
1126.775345	695.0
1127.333168	694.2000122
1127.890935	695.0
1128.448644	694.2000122
1129.006297	691.7999878
1129.563892	694.0
1130.12143	693.0
1130.678911	692.2000122
1131.236335	692.0
1131.793701	695.7999878
1132.351011	691.4000244
1132.908263	691.2000122
1133.465458	693.5999756
1134.022597	689.7999878
1134.579678	691.4000244
1135.136702	690.2000122
1135.693669	691.0
1136.250578	693.4000244
1136.807431	693.4000244
1137.364227	687.2000122
1137.920965	691.5999756
1138.477647	694.4000244
1139.034271	693.4000244
1139.590839	691.5999756
1140.147349	693.5999756
1140.703802	692.2000122
1141.260198	690.7999878
1141.816537	692.4000244
1142.37282	692.2000122
1142.929045	691.2000122
1143.485213	693.0
1144.041323	691.5999756
1144.597377	692.7999878
1145.153374	695.4000244
1145.709314	691.4000244
1146.265197	691.7999878
1146.821023	691.5999756
1147.376792	694.4000244
1147.932503	689.7999878
1148.488158	689.4000244
1149.043756	691.7999878
1149.599297	694.2000122
1150.154781	692.0
1150.710207	694.7999878
1151.265577	693.0
1151.82089	692.2000122
1152.376146	693.0
1152.931345	694.0
1153.486487	692.4000244
1154.041572	696.7999878
1154.5966	689.0
1155.151571	689.7999878
1155.706485	696.5999756
1156.261342	693.0
1156.816142	696.2000122
1157.370885	693.5999756
1157.925572	688.5999756
1158.480201	692.7999878
1159.034774	692.5999756
1159.589289	690.7999878
1160.143748	692.2000122
1160.698149	693.5999756
1161.252494	695.2000122
1161.806782	689.7999878
1162.361013	691.0
1162.915187	694.0
1163.469304	692.0
1164.023364	692.5999756
1164.577368	691.7999878
1165.131314	696.5999756
1165.685204	692.5999756
1166.239036	692.2000122
1166.792812	688.0
1167.346531	691.0
1167.900193	693.2000122
1168.453798	689.5999756
1169.007347	692.0
1169.560838	694.0
1170.114273	690.5999756
1170.66765	690.4000244
1171.220971	692.7999878
1171.774235	694.4000244
1172.327443	695.2000122
1172.880593	690.5999756
1173.433687	693.4000244
1173.986723	691.7999878
1174.539703	693.0
1175.092626	693.7999878
1175.645493	691.7999878
1176.198302	692.2000122
1176.751055	695.5999756
1177.303751	694.0
1177.85639	697.7999878
1178.408972	693.4000244
1178.961498	690.2000122
1179.513966	693.5999756
1180.066378	694.2000122
1180.618733	693.2000122
1181.171032	697.2000122
1181.723273	695.0
1182.275458	695.0
1182.827586	696.5999756
1183.379657	699.0
1183.931672	698.7999878
1184.48363	698.7999878
1185.035531	693.0
1185.587375	698.5999756
1186.139162	701.0
1186.690893	695.7999878
1187.242567	702.7999878
1187.794184	699.5999756
1188.345745	693.2000122
1188.897249	697.4000244
1189.448696	695.4000244
1190.000086	692.5999756
1190.55142	699.0
1191.102697	696.4000244
1191.653918	693.5999756
1192.205081	695.5999756
1192.756188	698.5999756
1193.307238	716.4000244
1193.858232	696.0
1194.409169	696.0
1194.960049	689.5999756
1195.510872	691.4000244
1196.061639	695.4000244
1196.612349	694.0
1197.163003	695.5999756
1197.713599	692.2000122
1198.264139	691.0
1198.814623	689.7999878
1199.36505	695.2000122
1199.91542	693.2000122
1200.465734	692.0
1201.01599	692.4000244
1201.566191	691.2000122
1202.116334	693.0
1202.666421	691.2000122
1203.216452	692.7999878
1203.766425	693.4000244
1204.316343	687.7999878
1204.866203	689.7999878
1205.416007	691.7999878
1205.965754	691.7999878
1206.515445	694.2000122
1207.065079	692.2000122
1207.614657	691.7999878
1208.164177	691.2000122
1208.713642	697.4000244
1209.26305	694.2000122
1209.812401	691.4000244
1210.361695	690.7999878
1210.910933	691.5999756
1211.460115	695.2000122
1212.00924	697.5999756
1212.558308	691.5999756
1213.10732	697.5999756
1213.656275	693.4000244
1214.205174	693.7999878
1214.754016	695.2000122
1215.302801	694.5999756
1215.85153	692.5999756
1216.400203	696.0
1216.948819	691.5999756
1217.497378	693.0
1218.045881	693.5999756
1218.594327	693.4000244
1219.142717	694.5999756
1219.691051	696.7999878
1220.239327	694.0
1220.787548	695.2000122
1221.335712	698.4000244
1221.883819	695.4000244
1222.43187	693.4000244
1222.979864	695.2000122
1223.527802	696.0
1224.075683	698.4000244
1224.623508	698.5999756
1225.171277	695.0
1225.718989	696.2000122
1226.266644	696.4000244
1226.814243	695.4000244
1227.361786	698.0
1227.909272	700.4000244
1228.456702	693.0
1229.004075	700.2000122
1229.551392	692.0
1230.098652	698.5999756
1230.645856	695.5999756
1231.193003	697.0
1231.740094	699.7999878
1232.287129	699.4000244
1232.834107	697.0
1233.381029	695.5999756
1233.927894	698.4000244
1234.474703	697.2000122
1235.021455	693.2000122
1235.568151	694.0
1236.114791	700.5999756
1236.661374	698.2000122
1237.207901	698.0
1237.754372	698.4000244
1238.300786	695.2000122
1238.847144	694.7999878
1239.393445	694.7999878
1239.93969	698.5999756
1240.485879	696.7999878
1241.032011	696.0
1241.578087	693.7999878
1242.124106	694.4000244
1242.67007	699.5999756
1243.215976	696.4000244
1243.761827	694.4000244
1244.307621	694.4000244
1244.853359	696.4000244
1245.39904	700.0
1245.944665	693.2000122
1246.490234	697.0
1247.035746	697.0
1247.581203	694.7999878
1248.126602	699.4000244
1248.671946	693.5999756
1249.217233	694.2000122
1249.762464	694.7999878
1250.307638	695.4000244
1250.852757	693.7999878
1251.397819	696.4000244
1251.942824	697.4000244
1252.487774	693.7999878
1253.032667	700.0
1253.577503	696.2000122
1254.122284	695.5999756
1254.667008	694.2000122
1255.211676	696.2000122
1255.756288	696.7999878
1256.300843	698.5999756
1256.845342	698.0
1257.389785	694.7999878
1257.934172	700.4000244
1258.478502	696.2000122
1259.022776	696.5999756
1259.566994	696.4000244
1260.655261	697.7999878
1261.199311	695.7999878
1261.743304	697.4000244
1262.28724	699.2000122
1262.831121	700.5999756
1263.374945	694.2000122
1263.918713	702.2000122
1264.462425	698.2000122
1265.006081	692.0
1265.54968	698.7999878
1266.093223	693.5999756
1266.636711	693.2000122
1267.180141	694.4000244
1267.723516	692.5999756
1268.266835	692.7999878
1268.810097	697.4000244
1269.353303	693.2000122
1269.896453	691.7999878
1270.439547	693.5999756
1270.982584	695.7999878
1271.525566	694.2000122
1272.068491	692.0
1272.61136	694.2000122
1273.154173	697.4000244
1273.69693	691.5999756
1274.239631	692.7999878
1274.782275	697.7999878
1275.324864	690.5999756
1275.867396	695.4000244
1276.409872	697.0
1276.952292	696.4000244
1277.494656	695.5999756
1278.036964	694.5999756
1278.579215	693.7999878
1279.121411	697.5999756
1279.66355	691.4000244
1280.205634	698.7999878
1280.747661	692.4000244
1281.289632	700.5999756
1281.831547	705.2000122
1282.373406	706.0
1282.915209	718.5999756
1283.456955	741.2000122
1283.998646	759.0
1284.540281	756.5999756
1285.081859	728.4000244
1285.623381	712.4000244
1286.164848	703.7999878
1286.706258	702.5999756
1287.247612	696.2000122
1287.788911	695.4000244
1288.330153	694.2000122
1288.871339	697.0
1289.412469	695.2000122
1289.953543	695.5999756
1290.494561	694.0
1291.035523	700.7999878
1291.576428	696.5999756
1292.117278	695.7999878
1292.658072	696.5999756
1293.19881	697.0
1293.739492	694.4000244
1294.280118	695.5999756
1294.820687	693.7999878
1295.361201	693.5999756
1295.901659	696.5999756
1296.442061	696.7999878
1296.982406	691.4000244
1297.522696	697.2000122
1298.06293	696.0
1298.603108	698.0
1299.143229	696.7999878
1299.683295	692.5999756
1300.223305	695.5999756
1300.763259	695.4000244
1301.303157	697.0
1301.842999	697.5999756
1302.382785	700.4000244
1302.922515	692.7999878
1303.462189	696.2000122
1304.001807	694.2000122
1304.541369	695.2000122
1305.080875	695.4000244
1305.620326	694.4000244
1306.15972	693.4000244
1306.699058	693.5999756
1307.238341	695.4000244
1307.777567	692.4000244
1308.316738	690.7999878
1308.855853	694.5999756
1309.394912	695.4000244
1309.933915	695.5999756
1310.472862	694.2000122
1311.011753	691.0
1311.550588	691.0
1312.089367	693.0
1312.62809	696.0
1313.166758	694.5999756
1313.70537	694.2000122
1314.243925	694.2000122
1314.782425	693.7999878
1315.320869	694.4000244
1315.859257	692.7999878
1316.397589	692.0
1316.935866	696.0
1317.474086	692.7999878
1318.012251	694.2000122
1318.55036	693.4000244
1319.088413	691.2000122
1319.62641	694.2000122
1320.164351	693.5999756
1320.702236	693.4000244
1321.240066	692.5999756
1321.777839	693.0
1322.315557	693.4000244
1322.853219	697.5999756
1323.390826	695.2000122
1323.928376	694.2000122
1324.465871	692.4000244
1325.003309	692.7999878
1325.540692	695.2000122
1326.07802	692.7999878
1326.615291	691.5999756
1327.152506	694.2000122
1327.689666	691.4000244
1328.22677	692.2000122
1328.763818	691.5999756
1329.300811	694.5999756
1329.837747	689.7999878
1330.374628	691.7999878
1330.911453	688.5999756
1331.448222	693.7999878
1331.984936	693.0
1332.521594	690.7999878
1333.058196	689.5999756
1333.594742	690.0
1334.131232	693.2000122
1334.667667	692.7999878
1335.204046	690.2000122
1335.740369	694.0
1336.276637	689.5999756
1336.812848	689.7999878
1337.349004	693.5999756
1337.885105	691.2000122
1338.421149	694.5999756
1338.957138	696.4000244
1339.493071	691.4000244
1340.028949	691.7999878
1340.56477	690.2000122
1341.100536	690.2000122
1341.636246	691.0
1342.171901	691.5999756
1342.7075	692.2000122
1343.243043	692.0
1343.77853	691.0
1344.313962	693.2000122
1344.849338	691.0
1345.384659	689.5999756
1345.919923	691.4000244
1346.455133	690.0
1346.990286	694.2000122
1347.525384	690.5999756
1348.060426	691.2000122
1348.595412	690.4000244
1349.130343	692.2000122
1349.665218	693.4000244
1350.200037	691.2000122
1350.734801	690.5999756
1351.269509	692.4000244
1351.804162	694.2000122
1352.338758	693.2000122
1352.8733	693.7999878
1353.407785	694.0
1353.942215	692.2000122
1354.476589	693.2000122
1355.010908	691.0
1355.545171	691.4000244
1356.079379	691.2000122
1356.61353	694.4000244
1357.147627	690.2000122
1357.681667	693.5999756
1358.215652	693.7999878
1358.749582	692.5999756
1359.283456	688.7999878
1359.817274	694.2000122
1360.351037	694.7999878
1360.884744	694.4000244
1361.418395	686.7999878
1361.951991	693.7999878
1362.485531	694.4000244
1363.019016	694.2000122
1363.552445	692.5999756
1364.085819	690.5999756
1364.619137	692.7999878
1365.1524	692.7999878
1365.685607	693.7999878
1366.218758	689.2000122
1366.751854	693.4000244
1367.284894	689.0
1367.817879	692.4000244
1368.350808	688.7999878
1368.883682	691.4000244
1369.4165	698.2000122
1369.949263	694.5999756
1370.48197	691.2000122
1371.014622	693.7999878
1371.547218	690.4000244
1372.079758	689.0
1372.612244	692.4000244
1373.144673	691.2000122
1373.677047	690.7999878
1374.209366	693.0
1374.741629	692.7999878
1375.273836	691.5999756
1375.805989	695.4000244
1376.338085	694.4000244
1376.870126	691.2000122
1377.402112	694.2000122
1377.934042	693.7999878
1378.465917	692.0
1378.997736	693.2000122
1379.5295	690.5999756
1380.061208	689.5999756
1380.592861	691.4000244
1381.124459	692.0
1381.656	691.7999878
1382.187487	690.0
1382.718918	696.0
1383.250294	694.5999756
1383.781614	696.2000122
1384.312879	699.2000122
1384.844088	699.7999878
1385.375242	696.5999756
1385.90634	706.2000122
1386.437383	715.4000244
1386.968371	733.2000122
1387.499303	777.7999878
1388.03018	829.2000122
1388.561001	803.0
1389.091767	746.5999756
1389.622478	716.2000122
1390.153133	701.0
1390.683733	696.0
1391.214277	695.5999756
1391.744766	696.2000122
1392.2752	695.7999878
1392.805578	695.7999878
1393.335901	693.5999756
1393.866168	695.7999878
1394.396381	691.2000122
1394.926537	692.5999756
1395.456639	694.5999756
1395.986685	691.5999756
1396.516675	694.4000244
1397.046611	692.4000244
1397.576491	689.2000122
1398.106315	692.5999756
1398.636084	693.4000244
1399.165798	692.7999878
1399.695457	693.5999756
1400.22506	689.4000244
1400.754608	694.7999878
1401.284101	692.2000122
1401.813538	693.2000122
1402.34292	690.7999878
1402.872247	693.2000122
1403.401518	694.0
1403.930734	695.2000122
1404.459895	693.2000122
1404.989	689.2000122
1405.51805	690.5999756
1406.047045	692.0
1406.575984	691.4000244
1407.104869	695.2000122
1407.633697	692.7999878
1408.162471	697.4000244
1408.691189	693.5999756
1409.219852	697.5999756
1409.74846	695.2000122
1410.277013	699.0
1410.80551	692.4000244
1411.333952	696.4000244
1411.862339	693.5999756
1412.39067	691.2000122
1412.918946	691.5999756
1413.447167	688.7999878
1413.975333	694.7999878
1414.503444	694.4000244
1415.031499	693.2000122
1415.559499	704.2000122
1416.087444	696.7999878
1416.615333	695.7999878
1417.143167	691.0
1417.670947	691.0
1418.19867	691.4000244
1418.726339	695.5999756
1419.253952	693.7999878
1419.781511	690.4000244
1420.309014	695.7999878
1420.836461	695.2000122
1421.363854	691.4000244
1421.891191	690.4000244
1422.418474	688.7999878
1422.945701	696.4000244
1423.472872	696.0
1423.999989	691.0
1424.52705	692.2000122
1425.054057	693.7999878
1425.581008	695.5999756
1426.107904	696.2000122
1426.634745	689.7999878
1427.16153	693.7999878
1427.688261	693.7999878
1428.214936	692.4000244
1428.741556	692.0
1429.268121	695.2000122
1429.794631	690.0
1430.321085	691.4000244
1430.847485	698.7999878
1431.373829	691.5999756
1431.900118	692.2000122
1432.426353	691.5999756
1432.952532	695.4000244
1433.478655	695.0
1434.004724	690.2000122
1434.530738	692.4000244
1435.056696	695.0
1435.5826	693.7999878
1436.108448	695.5999756
1436.634241	692.0
1437.159979	691.5999756
1437.685662	694.5999756
1438.21129	690.5999756
1438.736863	694.5999756
1439.262381	689.7999878
1439.787843	694.2000122
1440.313251	694.7999878
1440.838603	693.2000122
1441.3639	694.7999878
1441.889143	696.0
1442.41433	696.5999756
1442.939462	694.7999878
1443.464539	698.5999756
1443.989561	698.0
1444.514528	692.0
1445.03944	695.4000244
1445.564297	693.2000122
1446.089099	695.4000244
1446.613846	694.5999756
1447.138537	695.0
1447.663174	699.7999878
1448.187756	695.0
1448.712282	692.2000122
1449.236754	696.4000244
1449.761171	697.2000122
1450.285532	694.4000244
1450.809839	695.5999756
1451.33409	696.4000244
1451.858287	692.7999878
1452.382428	694.4000244
1452.906515	692.5999756
1453.430546	696.7999878
1453.954523	690.4000244
1454.478444	695.5999756
1455.002311	697.0
1455.526123	695.4000244
1456.049879	690.2000122
1456.573581	692.7999878
1457.097227	695.7999878
1457.620819	699.2000122
1458.144356	695.0
1458.667837	694.7999878
1459.191264	691.2000122
1459.714636	694.0
1460.237952	692.4000244
1460.761214	695.0
1461.284421	695.2000122
1461.807573	696.4000244
1462.33067	697.7999878
1463.899632	704.0
1464.422509	697.2000122
1464.945331	701.2000122
1465.468099	695.7999878
1465.990811	693.5999756
1466.513469	695.5999756
1467.036071	692.0
1467.558619	695.0
1468.081112	697.2000122
1468.60355	695.7999878
1469.125933	692.2000122
1469.648261	697.0
1470.170534	696.0
1470.692752	695.7999878
1471.214916	693.2000122
1471.737024	693.5999756
1472.259078	693.4000244
1472.781077	696.4000244
1473.303021	697.0
1473.82491	692.5999756
1474.346744	695.4000244
1474.868523	692.5999756
1475.390248	694.0
1475.911917	693.0
1476.433532	692.7999878
1476.955092	695.4000244
1477.476597	694.0
1477.998047	692.4000244
1478.519442	693.4000244
1479.040783	695.5999756
1479.562068	690.0
1480.083299	691.4000244
1480.604475	688.2000122
1481.125596	695.0
1481.646663	692.4000244
1482.167674	691.4000244
1482.688631	688.7999878
1483.209533	691.7999878
1483.73038	693.2000122
1484.251172	692.7999878
1484.771909	692.2000122
1485.292592	688.4000244
1485.81322	696.7999878
1486.333793	692.2000122
1486.854311	695.2000122
1487.374775	691.0
1487.895183	689.7999878
1488.415537	690.2000122
1488.935836	692.5999756
1489.456081	691.7999878
1489.97627	689.4000244
1490.496405	692.4000244
1491.016485	691.7999878
1491.536511	692.7999878
1492.056481	686.7999878
1492.576397	688.4000244
1493.096258	693.0
1493.616064	692.7999878
1494.135816	689.0
1494.655513	690.5999756
1495.175155	690.4000244
1495.694742	694.2000122
1496.214274	689.5999756
1496.733752	689.0
1497.253175	695.0
1497.772544	690.5999756
1498.291858	690.2000122
1498.811116	692.2000122
1499.330321	691.4000244
1499.84947	702.7999878
1500.368565	692.0
1500.887605	689.4000244
1501.406591	692.4000244
1501.925521	692.0
1502.444397	691.0
1502.963219	691.7999878
1503.481985	691.2000122
1504.000697	687.5999756
1504.519355	690.5999756
1505.037957	691.7999878
1505.556505	690.4000244
1506.074999	691.5999756
1506.593437	689.5999756
1507.111821	689.2000122
1507.63015	693.7999878
1508.148425	696.0
1508.666645	688.5999756
1509.18481	687.7999878
1509.702921	689.4000244
1510.220977	690.4000244
1510.738979	699.2000122
1511.256925	689.5999756
1511.774817	692.0
1512.292655	691.7999878
1512.810438	694.5999756
1513.328166	692.4000244
1513.84584	690.4000244
1514.363459	691.7999878
1514.881023	693.7999878
1515.398533	689.0
1515.915988	688.5999756
1516.433389	692.2000122
1516.950734	692.4000244
1517.468026	689.0
1517.985263	687.2000122
1518.502445	687.2000122
1519.019572	693.2000122
1519.536645	691.2000122
1520.053664	690.4000244
1520.570628	689.4000244
1521.087537	690.2000122
1521.604392	693.4000244
1522.121192	688.4000244
1522.637937	692.4000244
1523.154628	693.2000122
1523.671265	693.7999878
1524.187847	694.5999756
1524.704374	695.0
1525.220847	693.0
1525.737265	705.7999878
1526.769938	712.2000122
1527.286192	693.2000122
1527.802392	694.5999756
1528.318538	691.2000122
1528.834629	694.4000244
1529.350666	691.4000244
1529.866648	692.4000244
1530.382575	690.5999756
1530.898448	686.5999756
1531.414266	693.2000122
1531.93003	693.4000244
1532.44574	689.4000244
1532.961395	693.4000244
1533.476995	689.2000122
1533.992541	694.4000244
1534.508033	691.4000244
1535.02347	690.0
1535.538852	690.7999878
1536.05418	692.4000244
1536.569454	691.4000244
1537.084673	692.2000122
1537.599837	687.4000244
1538.114947	693.4000244
1538.630003	696.0
1539.145004	692.0
1539.659951	696.2000122
1540.174843	692.5999756
1540.689681	693.5999756
1541.204465	694.0
1541.719194	691.5999756
1542.233868	692.7999878
1542.748488	688.2000122
1543.263054	690.2000122
1543.777565	687.2000122
1544.292022	692.2000122
1544.806424	695.2000122
1545.320772	691.0
1545.835066	693.5999756
1546.349305	692.0
1546.863489	688.7999878
1547.37762	688.4000244
1547.891696	694.7999878
1548.405717	692.7999878
1548.919684	696.4000244
1549.433597	692.5999756
1549.947455	696.0
1550.461259	691.7999878
1550.975009	689.0
1551.488704	692.4000244
1552.002345	695.0
1552.515931	693.5999756
1553.029463	689.5999756
1553.542941	694.4000244
1554.056364	745.7999878
1554.569733	742.7999878
1555.083048	696.7999878
1555.596308	694.0
1556.109514	696.2000122
1556.622665	694.2000122
1557.135762	695.7999878
1557.648805	697.0
1558.161794	691.7999878
1558.674728	695.7999878
1559.187608	692.7999878
1559.700433	694.7999878
1560.213205	692.7999878
1560.725921	693.5999756
1561.238584	697.4000244
1561.751192	694.5999756
1562.263746	691.7999878
1562.776246	693.4000244
1563.288691	694.2000122
1563.801082	692.4000244
1564.313419	692.5999756
1564.825701	696.5999756
1565.337929	698.5999756
1565.850103	699.4000244
1566.362223	696.0
1566.874288	696.7999878
1567.386299	692.5999756
1567.898256	696.7999878
1568.410158	698.2000122
1568.922007	695.0
1569.4338	696.0
1569.94554	698.0
1570.457226	695.4000244
1570.968857	694.4000244
1571.480434	695.0
1571.991956	692.4000244
1572.503425	692.7999878
1573.014839	689.4000244
1573.526199	696.2000122
1574.037505	692.4000244
1574.548756	695.7999878
1575.059953	690.7999878
1575.571096	690.4000244
1576.082185	694.7999878
1576.59322	690.2000122
1577.1042	693.7999878
1577.615126	695.5999756
1578.125998	693.2000122
1578.636816	694.4000244
1579.14758	694.5999756
1579.658289	694.7999878
1580.168944	690.4000244
1580.679545	694.4000244
1581.190092	692.5999756
1581.700585	696.0
1582.211023	695.2000122
1582.721407	695.5999756
1583.231737	691.7999878
1583.742013	695.2000122
1584.252235	693.0
1584.762403	692.4000244
1585.272516	693.0
1585.782575	692.7999878
1586.292581	693.5999756
1586.802532	689.7999878
1587.312428	692.4000244
1587.822271	690.5999756
1588.33206	697.7999878
1588.841794	696.5999756
1589.351474	694.7999878
1589.8611	693.5999756
1590.370672	693.4000244
1590.88019	689.7999878
1591.389654	692.4000244
1591.899064	695.4000244
1592.408419	692.4000244
