1042.452273	698.2000122
1043.018714	704.5999756
1043.585098	702.7999878
1044.151424	706.0
1044.717692	701.2000122
1045.283903	699.5999756
1045.850056	697.0
1046.416151	697.7999878
1046.982188	696.7999878
1047.548167	699.4000244
1048.114089	696.7999878
1048.679953	699.4000244
1049.24576	693.0
1049.811509	696.0
1050.3772	694.2000122
1050.942833	692.4000244
1051.508408	689.5999756
1052.073926	693.0
1052.639387	692.7999878
1053.204789	693.4000244
1053.770134	696.2000122
1054.335421	695.4000244
1054.900651	695.0
1055.465823	693.4000244
1056.030937	693.7999878
1056.595993	694.0
1057.160992	689.4000244
1057.725934	692.2000122
1058.290817	695.5999756
1058.855643	693.2000122
1059.420411	692.4000244
1059.985122	691.4000244
1060.549775	690.4000244
1061.114371	690.4000244
1061.678908	693.7999878
1062.243389	695.0
1062.807811	690.7999878
1063.372176	688.2000122
1063.936483	690.7999878
1064.500733	688.7999878
1065.064925	690.7999878
1065.62906	693.0
1066.193137	689.4000244
1066.757156	691.0
1067.321118	690.0
1067.885022	689.2000122
1068.448869	701.2000122
1070.140063	697.0
1070.70368	688.7999878
1071.267239	690.5999756
1071.83074	694.2000122
1072.394184	690.5999756
1072.95757	692.2000122
1073.520899	689.4000244
1074.08417	690.5999756
1074.647383	691.2000122
1075.21054	689.4000244
1075.773638	691.7999878
1076.336679	690.0
1076.899663	691.4000244
1077.462589	691.0
1078.025457	693.4000244
1078.588268	692.2000122
1079.151022	691.2000122
1079.713718	690.4000244
1080.276356	692.5999756
1080.838937	692.4000244
1081.401461	692.4000244
1081.963927	688.5999756
1082.526336	695.5999756
1083.088687	694.2000122
1083.650981	691.5999756
1084.213217	691.4000244
1084.775396	691.2000122
1085.337517	690.2000122
1085.899581	693.2000122
1086.461587	688.0
1087.023536	691.2000122
1087.585428	693.2000122
1088.147262	691.7999878
1088.709039	695.0
1089.270758	692.4000244
1089.83242	692.7999878
1090.394024	696.0
1090.955571	693.0
1091.517061	692.7999878
1092.078493	694.5999756
1092.639868	691.7999878
1093.201185	690.7999878
1093.762445	694.2000122
1094.323648	693.4000244
1094.884793	688.0
1095.445881	693.5999756
1096.006911	693.0
1096.567884	689.5999756
1097.1288	702.0
1097.689659	691.4000244
1098.25046	689.0
1098.811203	693.7999878
1099.37189	690.4000244
1099.932518	691.0
1100.49309	693.2000122
1101.053604	692.2000122
1101.614061	690.0
1102.174461	690.0
1102.734803	690.4000244
1103.295088	691.2000122
1103.855316	687.2000122
1104.415486	691.0
1104.975599	697.0
1105.535655	694.4000244
1106.095653	692.2000122
1106.655594	693.7999878
1107.215478	694.4000244
1107.775305	692.4000244
1108.335074	696.5999756
1108.894786	697.5999756
1109.45444	697.7999878
1110.014038	698.0
1110.573578	694.0
1111.133061	696.4000244
1111.692486	700.4000244
1112.251854	701.0
1112.811165	699.0
1113.370419	703.2000122
1113.929616	697.5999756
1114.488755	700.4000244
1115.047837	700.5999756
1115.606862	696.5999756
1116.16583	699.4000244
1116.72474	697.4000244
1117.283593	695.5999756
1117.842389	691.5999756
1118.401128	695.5999756
1118.959809	693.5999756
1119.518433	696.0
1120.077	692.5999756
1120.63551	695.2000122
1121.193963	693.5999756
1121.752358	694.2000122
1122.310697	691.0
1122.868978	689.0
1123.427202	692.0
1123.985368	689.7999878
1124.543478	686.5999756
1125.10153	693.2000122
1125.659526	688.7999878
1126.217464	688.4000244
1126.775345	692.5999756
1127.333168	692.4000244
1127.890935	693.0
1128.448644	691.0
1129.006297	692.2000122
1129.563892	690.2000122
1130.12143	688.7999878
1130.678911	695.2000122
1131.236335	691.7999878
1131.793701	688.7999878
1132.351011	690.5999756
1132.908263	690.0
1133.465458	690.5999756
1134.022597	691.4000244
1134.579678	687.5999756
1135.136702	689.2000122
1135.693669	689.5999756
1136.250578	690.7999878
1136.807431	690.2000122
1137.364227	690.7999878
1137.920965	689.2000122
1138.477647	688.0
1139.034271	690.5999756
1139.590839	690.4000244
1140.147349	685.5999756
1140.703802	690.7999878
1141.260198	687.7999878
1141.816537	688.4000244
1142.37282	690.4000244
1142.929045	687.2000122
1143.485213	692.2000122
1144.041323	688.0
1144.597377	688.7999878
1145.153374	689.2000122
1145.709314	690.4000244
1146.265197	687.5999756
1146.821023	690.0
1147.376792	690.2000122
1147.932503	691.0
1148.488158	690.7999878
1149.043756	686.7999878
1149.599297	689.0
1150.154781	691.5999756
1150.710207	689.2000122
1151.265577	691.7999878
1151.82089	686.5999756
1152.376146	691.4000244
1152.931345	690.4000244
1153.486487	689.4000244
1154.041572	689.5999756
1154.5966	691.4000244
1155.151571	689.5999756
1155.706485	691.4000244
1156.261342	690.0
1156.816142	690.0
1157.370885	690.5999756
1157.925572	693.7999878
1158.480201	688.4000244
1159.034774	690.4000244
1159.589289	687.7999878
1160.143748	688.0
1160.698149	691.4000244
1161.252494	689.7999878
1161.806782	687.0
1162.361013	689.4000244
1162.915187	688.7999878
1163.469304	687.0
1164.023364	689.7999878
1164.577368	690.7999878
1165.131314	690.2000122
1165.685204	688.0
1166.239036	689.2000122
1166.792812	688.4000244
1167.346531	688.5999756
1167.900193	690.4000244
1168.453798	687.7999878
1169.007347	686.0
1169.560838	688.4000244
1170.114273	688.2000122
1170.66765	687.4000244
1171.220971	690.2000122
1171.774235	691.5999756
1172.327443	691.5999756
1172.880593	688.2000122
1173.433687	687.2000122
1173.986723	687.7999878
1174.539703	691.0
1175.092626	690.4000244
1175.645493	688.5999756
1176.198302	690.0
1176.751055	694.7999878
1177.303751	689.5999756
1177.85639	690.4000244
1178.408972	688.7999878
1178.961498	690.4000244
1179.513966	690.5999756
1180.066378	694.4000244
1180.618733	692.5999756
1181.171032	691.0
1181.723273	693.5999756
1182.275458	693.4000244
1182.827586	693.5999756
1183.379657	693.5999756
1183.931672	696.2000122
1184.48363	691.5999756
1185.035531	694.4000244
1185.587375	691.7999878
1186.139162	691.5999756
1186.690893	698.7999878
1187.242567	695.5999756
1187.794184	695.2000122
1188.345745	692.5999756
1188.897249	695.0
1189.448696	694.2000122
1190.000086	694.0
1190.55142	693.0
1191.102697	695.7999878
1191.653918	686.5999756
1192.205081	694.5999756
1192.756188	692.2000122
1193.307238	716.0
1193.858232	693.2000122
1194.409169	691.4000244
1194.960049	687.7999878
1195.510872	693.7999878
1196.061639	695.5999756
1196.612349	692.0
1197.163003	685.2000122
1197.713599	686.4000244
1198.264139	693.2000122
1198.814623	692.0
1199.36505	693.4000244
1199.91542	689.4000244
1200.465734	690.4000244
1201.01599	693.4000244
1201.566191	689.0
1202.116334	691.4000244
1202.666421	687.2000122
1203.216452	692.2000122
1203.766425	686.0
1204.316343	687.2000122
1204.866203	686.7999878
1205.416007	685.4000244
1205.965754	689.0
1206.515445	688.7999878
1207.065079	689.5999756
1207.614657	691.5999756
1208.164177	690.2000122
1208.713642	690.0
1209.26305	687.7999878
1209.812401	691.5999756
1210.361695	691.7999878
1210.910933	690.2000122
1211.460115	688.0
1212.00924	692.0
1212.558308	692.4000244
1213.10732	691.2000122
1213.656275	693.0
1214.205174	687.7999878
1214.754016	687.2000122
1215.302801	692.5999756
1215.85153	692.7999878
1216.400203	691.7999878
1216.948819	693.5999756
1217.497378	692.2000122
1218.045881	690.5999756
1218.594327	691.4000244
1219.142717	691.7999878
1219.691051	694.5999756
1220.239327	694.5999756
1220.787548	692.7999878
1221.335712	689.7999878
1221.883819	693.5999756
1222.43187	691.0
1222.979864	691.7999878
1223.527802	695.5999756
1224.075683	692.5999756
1224.623508	693.5999756
1225.171277	694.5999756
1225.718989	690.4000244
1226.266644	691.4000244
1226.814243	693.0
1227.361786	694.0
1227.909272	693.4000244
1228.456702	694.0
1229.004075	693.2000122
1229.551392	694.7999878
1230.098652	695.5999756
1230.645856	689.7999878
1231.193003	690.5999756
1231.740094	696.4000244
1232.287129	691.0
1232.834107	692.0
1233.381029	697.2000122
1233.927894	695.2000122
1234.474703	693.4000244
1235.021455	694.2000122
1235.568151	695.0
1236.114791	691.2000122
1236.661374	689.7999878
1237.207901	691.4000244
1237.754372	693.4000244
1238.300786	688.5999756
1238.847144	690.5999756
1239.393445	692.2000122
1239.93969	691.7999878
1240.485879	690.7999878
1241.032011	690.2000122
1241.578087	690.0
1242.124106	696.4000244
1242.67007	694.4000244
1243.215976	691.4000244
1243.761827	691.7999878
1244.307621	690.7999878
1244.853359	691.7999878
1245.39904	686.5999756
1245.944665	690.4000244
1246.490234	693.0
1247.035746	695.2000122
1247.581203	691.4000244
1248.126602	695.7999878
1248.671946	691.5999756
1249.217233	697.0
1249.762464	690.4000244
1250.307638	687.4000244
1250.852757	692.5999756
1251.397819	689.5999756
1251.942824	691.5999756
1252.487774	692.5999756
1253.032667	692.5999756
1253.577503	693.4000244
1254.122284	694.2000122
1254.667008	692.5999756
1255.211676	692.4000244
1255.756288	690.4000244
1256.300843	695.2000122
1256.845342	690.4000244
1257.389785	695.2000122
1257.934172	691.0
1258.478502	696.0
1259.022776	689.7999878
1259.566994	695.0
1260.655261	692.0
1261.199311	691.2000122
1261.743304	692.7999878
1262.28724	696.2000122
1262.831121	693.0
1263.374945	693.2000122
1263.918713	696.7999878
1264.462425	695.5999756
1265.006081	696.5999756
1265.54968	692.7999878
1266.093223	689.4000244
1266.636711	696.2000122
1267.180141	688.2000122
1267.723516	692.7999878
1268.266835	693.7999878
1268.810097	692.2000122
1269.353303	691.7999878
1269.896453	693.5999756
1270.439547	691.2000122
1270.982584	690.7999878
1271.525566	689.4000244
1272.068491	690.7999878
1272.61136	690.4000244
1273.154173	690.0
1273.69693	690.7999878
1274.239631	693.2000122
1274.782275	688.2000122
1275.324864	692.4000244
1275.867396	689.5999756
1276.409872	692.4000244
1276.952292	687.5999756
1277.494656	694.5999756
1278.036964	693.7999878
1278.579215	691.2000122
1279.121411	690.2000122
1279.66355	690.0
1280.205634	692.0
1280.747661	692.0
1281.289632	693.4000244
1281.831547	700.2000122
1282.373406	708.0
1282.915209	720.2000122
1283.456955	745.2000122
1283.998646	761.4000244
1284.540281	750.4000244
1285.081859	732.0
1285.623381	707.7999878
1286.164848	704.2000122
1286.706258	694.2000122
1287.247612	697.0
1287.788911	693.5999756
1288.330153	697.0
1288.871339	696.0
1289.412469	693.4000244
1289.953543	692.5999756
1290.494561	691.5999756
1291.035523	692.7999878
1291.576428	697.0
1292.117278	694.0
1292.658072	691.7999878
1293.19881	691.7999878
1293.739492	693.4000244
1294.280118	693.5999756
1294.820687	693.5999756
1295.361201	692.4000244
1295.901659	697.7999878
1296.442061	695.0
1296.982406	691.5999756
1297.522696	691.2000122
1298.06293	692.0
1298.603108	689.2000122
1299.143229	694.7999878
1299.683295	693.2000122
1300.223305	692.7999878
1300.763259	693.5999756
1301.303157	692.7999878
1301.842999	692.0
1302.382785	690.5999756
1302.922515	693.2000122
1303.462189	692.5999756
1304.001807	688.7999878
1304.541369	691.4000244
1305.080875	691.2000122
1305.620326	690.7999878
1306.15972	695.4000244
1306.699058	692.7999878
1307.238341	692.7999878
1307.777567	690.4000244
1308.316738	688.2000122
1308.855853	690.5999756
1309.394912	694.4000244
1309.933915	691.2000122
1310.472862	690.5999756
1311.011753	687.7999878
1311.550588	690.0
1312.089367	691.4000244
1312.62809	691.4000244
1313.166758	690.0
1313.70537	687.0
1314.243925	691.2000122
1314.782425	688.2000122
1315.320869	689.5999756
1315.859257	692.4000244
1316.397589	689.0
1316.935866	687.4000244
1317.474086	692.5999756
1318.012251	692.0
1318.55036	686.2000122
1319.088413	690.7999878
1319.62641	687.4000244
1320.164351	691.5999756
1320.702236	691.0
1321.240066	689.2000122
1321.777839	686.0
1322.315557	683.2000122
1322.853219	686.5999756
1323.390826	690.2000122
1323.928376	695.5999756
1324.465871	688.2000122
1325.003309	690.5999756
1325.540692	689.2000122
1326.07802	690.7999878
1326.615291	687.2000122
1327.152506	693.4000244
1327.689666	690.0
1328.22677	690.7999878
1328.763818	685.5999756
1329.300811	691.0
1329.837747	692.0
1330.374628	692.7999878
1330.911453	686.5999756
1331.448222	689.5999756
1331.984936	689.7999878
1332.521594	690.2000122
1333.058196	688.4000244
1333.594742	691.4000244
1334.131232	692.0
1334.667667	688.4000244
1335.204046	684.2000122
1335.740369	686.4000244
1336.276637	688.7999878
1336.812848	688.7999878
1337.349004	686.7999878
1337.885105	686.7999878
1338.421149	688.0
1338.957138	688.2000122
1339.493071	690.4000244
1340.028949	691.7999878
1340.56477	690.0
1341.100536	686.7999878
1341.636246	688.7999878
1342.171901	688.7999878
1342.7075	688.7999878
1343.243043	691.2000122
1343.77853	688.2000122
1344.313962	685.4000244
1344.849338	690.2000122
1345.384659	688.5999756
1345.919923	692.0
1346.455133	689.4000244
1346.990286	687.4000244
1347.525384	691.2000122
1348.060426	688.7999878
1348.595412	687.2000122
1349.130343	689.4000244
1349.665218	687.4000244
1350.200037	688.7999878
1350.734801	689.2000122
1351.269509	686.2000122
1351.804162	691.7999878
1352.338758	692.7999878
1352.8733	686.2000122
1353.407785	691.0
1353.942215	686.5999756
1354.476589	685.0
1355.010908	691.5999756
1355.545171	690.7999878
1356.079379	689.5999756
1356.61353	687.5999756
1357.147627	689.2000122
1357.681667	688.2000122
1358.215652	688.4000244
1358.749582	688.4000244
1359.283456	691.2000122
1359.817274	690.0
1360.351037	687.4000244
1360.884744	688.5999756
1361.418395	689.2000122
1361.951991	686.0
1362.485531	689.4000244
1363.019016	690.0
1363.552445	688.7999878
1364.085819	690.0
1364.619137	688.0
1365.1524	689.2000122
1365.685607	689.5999756
1366.218758	691.0
1366.751854	687.7999878
1367.284894	689.7999878
1367.817879	686.5999756
1368.350808	690.0
1368.883682	691.0
1369.4165	685.2000122
1369.949263	693.4000244
1370.48197	692.2000122
1371.014622	686.5999756
1371.547218	690.2000122
1372.079758	688.2000122
1372.612244	688.5999756
1373.144673	690.7999878
1373.677047	690.2000122
1374.209366	690.2000122
1374.741629	688.0
1375.273836	689.5999756
1375.805989	693.4000244
1376.338085	689.5999756
1376.870126	691.7999878
1377.402112	685.2000122
1377.934042	691.4000244
1378.465917	689.0
1378.997736	690.0
1379.5295	692.4000244
1380.061208	690.4000244
1380.592861	688.0
1381.124459	688.0
1381.656	689.5999756
1382.187487	691.7999878
1382.718918	690.0
1383.250294	694.0
1383.781614	691.0
1384.312879	691.4000244
1384.844088	695.5999756
1385.375242	697.4000244
1385.90634	700.5999756
1386.437383	710.0
1386.968371	732.4000244
1387.499303	778.7999878
1388.03018	834.4000244
1388.561001	806.0
1389.091767	741.5999756
1389.622478	713.0
1390.153133	697.0
1390.683733	694.7999878
1391.214277	698.5999756
1391.744766	691.5999756
1392.2752	695.4000244
1392.805578	689.4000244
1393.335901	691.0
1393.866168	693.0
1394.396381	690.5999756
1394.926537	691.2000122
1395.456639	689.5999756
1395.986685	690.4000244
1396.516675	691.5999756
1397.046611	690.0
1397.576491	691.0
1398.106315	687.7999878
1398.636084	688.7999878
1399.165798	689.0
1399.695457	689.4000244
1400.22506	687.7999878
1400.754608	687.4000244
1401.284101	688.4000244
1401.813538	685.7999878
1402.34292	689.4000244
1402.872247	691.5999756
1403.401518	688.5999756
1403.930734	688.4000244
1404.459895	689.4000244
1404.989	690.0
1405.51805	692.0
1406.047045	686.7999878
1406.575984	688.0
1407.104869	688.5999756
1407.633697	688.0
1408.162471	690.7999878
1408.691189	695.5999756
1409.219852	697.0
1409.74846	696.2000122
1410.277013	699.7999878
1410.80551	691.5999756
1411.333952	693.4000244
1411.862339	691.2000122
1412.39067	687.0
1412.918946	689.0
1413.447167	690.5999756
1413.975333	691.0
1414.503444	688.2000122
1415.031499	692.0
1415.559499	702.0
1416.087444	688.5999756
1416.615333	687.0
1417.143167	685.4000244
1417.670947	688.2000122
1418.19867	689.0
1418.726339	688.0
1419.253952	688.2000122
1419.781511	687.4000244
1420.309014	689.0
1420.836461	688.0
1421.363854	689.5999756
1421.891191	691.7999878
1422.418474	686.5999756
1422.945701	689.0
1423.472872	687.2000122
1423.999989	689.5999756
1424.52705	690.0
1425.054057	687.4000244
1425.581008	687.5999756
1426.107904	691.2000122
1426.634745	687.5999756
1427.16153	688.2000122
1427.688261	687.0
1428.214936	687.5999756
1428.741556	686.4000244
1429.268121	689.7999878
1429.794631	686.7999878
1430.321085	690.4000244
1430.847485	690.5999756
1431.373829	688.2000122
1431.900118	690.0
1432.426353	689.5999756
1432.952532	690.4000244
1433.478655	688.4000244
1434.004724	688.2000122
1434.530738	692.4000244
1435.056696	690.5999756
1435.5826	692.0
1436.108448	690.5999756
1436.634241	687.4000244
1437.159979	691.7999878
1437.685662	688.4000244
1438.21129	688.7999878
1438.736863	687.0
1439.262381	690.0
1439.787843	689.5999756
1440.313251	692.0
1440.838603	691.2000122
1441.3639	688.5999756
1441.889143	689.4000244
1442.41433	691.0
1442.939462	690.5999756
1443.464539	692.5999756
1443.989561	693.7999878
1444.514528	691.0
1445.03944	691.7999878
1445.564297	691.7999878
1446.089099	692.0
1446.613846	692.0
1447.138537	693.4000244
1447.663174	691.4000244
1448.187756	690.0
1448.712282	690.7999878
1449.236754	691.0
1449.761171	692.7999878
1450.285532	688.4000244
1450.809839	693.0
1451.33409	689.4000244
1451.858287	688.2000122
1452.382428	690.0
1452.906515	687.5999756
1453.430546	691.2000122
1453.954523	689.2000122
1454.478444	688.7999878
1455.002311	691.5999756
1455.526123	693.5999756
1456.049879	693.2000122
1456.573581	690.0
1457.097227	689.0
1457.620819	691.4000244
1458.144356	692.5999756
1458.667837	692.4000244
1459.191264	693.2000122
1459.714636	690.0
1460.237952	695.2000122
1460.761214	690.7999878
1461.284421	693.5999756
1461.807573	691.7999878
1462.33067	695.5999756
1463.899632	702.2000122
1464.422509	693.2000122
1464.945331	692.0
1465.468099	689.2000122
1465.990811	695.2000122
1466.513469	691.7999878
1467.036071	689.2000122
1467.558619	691.7999878
1468.081112	691.2000122
1468.60355	690.0
1469.125933	690.5999756
1469.648261	692.2000122
1470.170534	691.4000244
1470.692752	691.0
1471.214916	689.5999756
1471.737024	687.4000244
1472.259078	691.0
1472.781077	691.4000244
1473.303021	691.5999756
1473.82491	688.7999878
1474.346744	693.7999878
1474.868523	691.5999756
1475.390248	690.5999756
1475.911917	689.5999756
1476.433532	688.2000122
1476.955092	689.5999756
1477.476597	688.0
1477.998047	689.4000244
1478.519442	692.7999878
1479.040783	690.7999878
1479.562068	693.4000244
1480.083299	689.0
1480.604475	686.0
1481.125596	689.2000122
1481.646663	686.2000122
1482.167674	690.4000244
1482.688631	690.7999878
1483.209533	688.4000244
1483.73038	691.4000244
1484.251172	686.7999878
1484.771909	686.2000122
1485.292592	685.5999756
1485.81322	686.0
1486.333793	690.4000244
1486.854311	685.4000244
1487.374775	683.4000244
1487.895183	690.0
1488.415537	685.4000244
1488.935836	687.5999756
1489.456081	685.7999878
1489.97627	686.7999878
1490.496405	689.4000244
1491.016485	692.0
1491.536511	687.7999878
1492.056481	687.7999878
1492.576397	689.2000122
1493.096258	688.7999878
1493.616064	686.5999756
1494.135816	690.2000122
1494.655513	688.4000244
1495.175155	687.2000122
1495.694742	684.0
1496.214274	684.7999878
1496.733752	687.4000244
1497.253175	689.7999878
1497.772544	688.5999756
1498.291858	689.4000244
1498.811116	691.5999756
1499.330321	683.4000244
1499.84947	697.4000244
1500.368565	686.0
1500.887605	691.5999756
1501.406591	688.2000122
1501.925521	689.0
1502.444397	691.4000244
1502.963219	686.2000122
1503.481985	689.2000122
1504.000697	686.0
1504.519355	690.7999878
1505.037957	686.4000244
1505.556505	688.5999756
1506.074999	688.0
1506.593437	687.4000244
1507.111821	686.7999878
1507.63015	686.2000122
1508.148425	684.5999756
1508.666645	685.2000122
1509.18481	688.2000122
1509.702921	690.7999878
1510.220977	689.7999878
1510.738979	698.5999756
1511.256925	688.5999756
1511.774817	685.7999878
1512.292655	687.7999878
1512.810438	690.0
1513.328166	686.4000244
1513.84584	689.2000122
1514.363459	688.5999756
1514.881023	685.4000244
1515.398533	685.7999878
1515.915988	687.7999878
1516.433389	686.5999756
1516.950734	688.0
1517.468026	689.0
1517.985263	688.5999756
1518.502445	692.2000122
1519.019572	688.0
1519.536645	686.5999756
1520.053664	686.4000244
1520.570628	687.7999878
1521.087537	688.0
1521.604392	687.2000122
1522.121192	688.5999756
1522.637937	687.4000244
1523.154628	689.0
1523.671265	693.2000122
1524.187847	688.0
1524.704374	688.2000122
1525.220847	690.5999756
1525.737265	700.5999756
1526.769938	702.7999878
1527.286192	689.5999756
1527.802392	685.7999878
1528.318538	688.5999756
1528.834629	685.5999756
1529.350666	692.5999756
1529.866648	690.5999756
1530.382575	688.4000244
1530.898448	687.0
1531.414266	683.5999756
1531.93003	687.5999756
1532.44574	686.7999878
1532.961395	687.5999756
1533.476995	685.7999878
1533.992541	688.5999756
1534.508033	686.2000122
1535.02347	687.7999878
1535.538852	688.4000244
1536.05418	685.4000244
1536.569454	688.5999756
1537.084673	690.7999878
1537.599837	688.4000244
1538.114947	687.4000244
1538.630003	688.0
1539.145004	688.7999878
1539.659951	689.2000122
1540.174843	688.2000122
1540.689681	689.2000122
1541.204465	687.0
1541.719194	687.2000122
1542.233868	689.5999756
1542.748488	690.2000122
1543.263054	689.0
1543.777565	691.5999756
1544.292022	687.2000122
1544.806424	687.7999878
1545.320772	686.0
1545.835066	686.4000244
1546.349305	688.5999756
1546.863489	685.0
1547.37762	688.7999878
1547.891696	687.2000122
1548.405717	688.0
1548.919684	690.0
1549.433597	691.5999756
1549.947455	691.7999878
1550.461259	689.4000244
1550.975009	689.5999756
1551.488704	688.7999878
1552.002345	684.2000122
1552.515931	690.0
1553.029463	690.5999756
1553.542941	687.2000122
1554.056364	688.5999756
1554.569733	691.5999756
1555.083048	693.4000244
1555.596308	690.7999878
1556.109514	687.4000244
1556.622665	690.5999756
1557.135762	687.2000122
1557.648805	689.5999756
1558.161794	692.4000244
1558.674728	688.4000244
1559.187608	688.2000122
1559.700433	691.7999878
1560.213205	687.5999756
1560.725921	690.5999756
1561.238584	688.4000244
1561.751192	688.5999756
1562.263746	693.4000244
1562.776246	690.0
1563.288691	691.5999756
1563.801082	692.7999878
1564.313419	692.5999756
1564.825701	693.4000244
1565.337929	694.4000244
1565.850103	696.4000244
1566.362223	695.2000122
1566.874288	695.7999878
1567.386299	697.2000122
1567.898256	692.7999878
1568.410158	691.5999756
1568.922007	692.0
1569.4338	690.2000122
1569.94554	688.5999756
1570.457226	689.0
1570.968857	690.4000244
1571.480434	692.7999878
1571.991956	694.2000122
1572.503425	689.2000122
1573.014839	686.5999756
1573.526199	687.5999756
1574.037505	692.2000122
1574.548756	691.7999878
1575.059953	687.0
1575.571096	690.7999878
1576.082185	690.5999756
1576.59322	689.0
1577.1042	690.5999756
1577.615126	688.7999878
1578.125998	689.4000244
1578.636816	690.7999878
1579.14758	692.2000122
1579.658289	689.5999756
1580.168944	690.0
1580.679545	687.2000122
1581.190092	689.2000122
1581.700585	691.7999878
1582.211023	690.2000122
1582.721407	692.0
1583.231737	689.0
1583.742013	691.7999878
1584.252235	691.0
1584.762403	689.2000122
1585.272516	689.0
1585.782575	691.2000122
1586.292581	689.0
1586.802532	690.2000122
1587.312428	691.0
1587.822271	690.2000122
1588.33206	689.0
1588.841794	687.7999878
1589.351474	690.4000244
1589.8611	690.5999756
1590.370672	692.4000244
1590.88019	690.2000122
1591.389654	691.4000244
1591.899064	695.0
1592.408419	690.2000122
