1042.452273	680.5999756
1043.018714	683.5999756
1043.585098	678.4000244
1044.151424	680.0
1044.717692	678.2000122
1045.283903	678.2000122
1045.850056	677.7999878
1046.416151	676.2000122
1046.982188	674.7999878
1047.548167	674.2000122
1048.114089	674.7999878
1048.679953	672.7999878
1049.24576	674.4000244
1049.811509	673.5999756
1050.3772	672.5999756
1050.942833	674.0
1051.508408	671.5999756
1052.073926	672.4000244
1052.639387	672.2000122
1053.204789	674.2000122
1053.770134	669.2000122
1054.335421	672.2000122
1054.900651	672.4000244
1055.465823	668.5999756
1056.030937	672.0
1056.595993	666.5999756
1057.160992	670.7999878
1057.725934	671.5999756
1058.290817	671.0
1058.855643	668.4000244
1059.420411	666.7999878
1059.985122	668.5999756
1060.549775	665.2000122
1061.114371	667.0
1061.678908	666.2000122
1062.243389	667.5999756
1062.807811	668.0
1063.372176	670.2000122
1063.936483	668.5999756
1064.500733	671.2000122
1065.064925	670.2000122
1065.62906	669.2000122
1066.193137	668.0
1066.757156	668.4000244
1067.321118	666.5999756
1067.885022	666.0
1068.448869	665.5999756
1069.012658	667.4000244
1069.57639	667.2000122
1070.140063	676.0
1070.70368	668.4000244
1071.267239	668.5999756
1071.83074	667.7999878
1072.394184	668.4000244
1072.95757	670.0
1073.520899	665.4000244
1074.08417	668.4000244
1074.647383	666.7999878
1075.21054	668.4000244
1075.773638	669.5999756
1076.336679	668.0
1076.899663	669.4000244
1077.462589	668.4000244
1078.025457	669.4000244
1078.588268	667.5999756
1079.151022	668.5999756
1079.713718	668.4000244
1080.276356	668.5999756
1080.838937	668.5999756
1081.401461	666.2000122
1081.963927	668.5999756
1082.526336	670.2000122
1083.088687	668.0
1083.650981	670.0
1084.213217	669.5999756
1084.775396	671.5999756
1085.337517	669.7999878
1085.899581	670.5999756
1086.461587	672.5999756
1087.023536	671.5999756
1087.585428	671.4000244
1088.147262	672.2000122
1088.709039	674.2000122
1089.270758	676.2000122
1089.83242	671.2000122
1090.394024	674.5999756
1090.955571	677.0
1091.517061	678.0
1092.078493	678.4000244
1092.639868	676.7999878
1093.201185	676.5999756
1093.762445	675.0
1094.323648	674.4000244
1094.884793	675.4000244
1095.445881	674.2000122
1096.006911	670.7999878
1096.567884	672.0
1097.1288	683.4000244
1097.689659	674.0
1098.25046	672.7999878
1098.811203	673.4000244
1099.37189	669.5999756
1099.932518	670.4000244
1100.49309	671.7999878
1101.053604	667.0
1101.614061	668.4000244
1102.174461	670.0
1102.734803	667.7999878
1103.295088	666.7999878
1103.855316	669.5999756
1104.415486	667.5999756
1104.975599	668.0
1105.535655	670.5999756
1106.095653	670.0
1106.655594	670.2000122
1107.215478	667.7999878
1107.775305	668.0
1108.335074	666.2000122
1108.894786	666.0
1109.45444	665.7999878
1110.014038	666.7999878
1110.573578	669.4000244
1111.133061	667.4000244
1111.692486	666.7999878
1112.251854	671.4000244
1112.811165	665.5999756
1113.370419	665.4000244
1113.929616	667.5999756
1114.488755	668.7999878
1115.047837	665.4000244
1115.606862	665.7999878
1116.16583	668.5999756
1116.72474	666.7999878
1117.283593	670.0
1117.842389	666.7999878
1118.401128	665.4000244
1118.959809	665.2000122
1119.518433	663.7999878
1120.077	666.7999878
1120.63551	666.4000244
1121.193963	667.4000244
1121.752358	667.7999878
1122.310697	663.2000122
1122.868978	665.0
1123.427202	667.2000122
1123.985368	664.2000122
1124.543478	663.7999878
1125.10153	666.7999878
1125.659526	663.2000122
1126.217464	666.2000122
1126.775345	664.7999878
1127.333168	665.5999756
1127.890935	666.5999756
1128.448644	665.4000244
1129.006297	665.2000122
1129.563892	665.2000122
1130.12143	667.2000122
1130.678911	662.4000244
1131.236335	664.0
1131.793701	665.0
1132.351011	667.2000122
1132.908263	665.0
1133.465458	662.7999878
1134.022597	664.2000122
1134.579678	667.0
1135.136702	665.2000122
1135.693669	664.0
1136.250578	666.7999878
1136.807431	664.5999756
1137.364227	664.4000244
1137.920965	664.5999756
1138.477647	661.7999878
1139.034271	663.0
1139.590839	664.0
1140.147349	664.0
1140.703802	662.7999878
1141.260198	664.7999878
1141.816537	663.5999756
1142.37282	663.7999878
1142.929045	664.0
1143.485213	662.7999878
1144.041323	665.5999756
1144.597377	663.5999756
1145.153374	665.5999756
1145.709314	664.7999878
1146.265197	667.0
1146.821023	663.7999878
1147.376792	666.5999756
1147.932503	662.0
1148.488158	662.5999756
1149.043756	664.5999756
1149.599297	664.2000122
1150.154781	664.4000244
1150.710207	664.2000122
1151.265577	666.2000122
1151.82089	665.7999878
1152.376146	665.0
1152.931345	664.0
1153.486487	664.2000122
1154.041572	663.4000244
1154.5966	664.5999756
1155.151571	665.4000244
1155.706485	667.7999878
1156.261342	662.4000244
1156.816142	666.4000244
1157.370885	665.4000244
1157.925572	664.7999878
1158.480201	665.0
1159.034774	668.7999878
1159.589289	665.0
1160.143748	665.2000122
1160.698149	664.0
1161.252494	665.5999756
1161.806782	664.7999878
1162.361013	665.5999756
1162.915187	664.5999756
1163.469304	664.5999756
1164.023364	666.2000122
1164.577368	665.7999878
1165.131314	665.4000244
1165.685204	663.7999878
1166.239036	664.2000122
1166.792812	662.2000122
1167.346531	664.7999878
1167.900193	661.2000122
1168.453798	661.7999878
1169.007347	661.4000244
1169.560838	664.0
1170.114273	666.5999756
1170.66765	664.4000244
1171.220971	663.0
1171.774235	662.7999878
1172.327443	664.0
1172.880593	662.5999756
1173.433687	664.4000244
1173.986723	662.2000122
1174.539703	665.0
1175.092626	663.4000244
1175.645493	665.2000122
1176.198302	664.0
1176.751055	666.4000244
1177.303751	666.2000122
1177.85639	664.4000244
1178.408972	665.4000244
1178.961498	663.7999878
1179.513966	666.7999878
1180.066378	665.2000122
1180.618733	663.4000244
1181.171032	665.2000122
1181.723273	665.5999756
1182.275458	663.5999756
1182.827586	666.0
1183.379657	664.5999756
1183.931672	665.2000122
1184.48363	664.5999756
1185.035531	664.7999878
1185.587375	666.2000122
1186.139162	664.4000244
1186.690893	663.7999878
1187.242567	663.5999756
1187.794184	661.2000122
1188.345745	664.0
1188.897249	664.7999878
1189.448696	664.5999756
1190.000086	661.7999878
1190.55142	661.4000244
1191.102697	664.7999878
1191.653918	665.5999756
1192.205081	661.7999878
1192.756188	666.7999878
1193.307238	683.4000244
1193.858232	663.2000122
1194.409169	664.2000122
1194.960049	666.5999756
1195.510872	665.2000122
1196.061639	665.7999878
1196.612349	663.0
1197.163003	664.5999756
1197.713599	665.7999878
1198.264139	664.4000244
1198.814623	663.7999878
1199.36505	666.4000244
1199.91542	662.4000244
1200.465734	666.5999756
1201.01599	661.4000244
1201.566191	664.5999756
1202.116334	664.5999756
1202.666421	663.5999756
1203.216452	663.2000122
1203.766425	663.4000244
1204.316343	664.4000244
1204.866203	667.0
1205.416007	661.2000122
1205.965754	664.7999878
1206.515445	665.4000244
1207.065079	661.7999878
1207.614657	660.0
1208.164177	666.7999878
1208.713642	664.2000122
1209.26305	663.4000244
1209.812401	664.2000122
1210.361695	665.0
1210.910933	666.0
1211.460115	664.2000122
1212.00924	664.7999878
1212.558308	664.7999878
1213.10732	663.5999756
1213.656275	663.0
1214.205174	666.5999756
1214.754016	663.5999756
1215.302801	663.7999878
1215.85153	666.4000244
1216.400203	663.7999878
1216.948819	665.7999878
1217.497378	664.5999756
1218.045881	664.7999878
1218.594327	664.0
1219.142717	662.7999878
1219.691051	665.2000122
1220.239327	667.7999878
1220.787548	662.0
1221.335712	663.7999878
1221.883819	665.2000122
1222.43187	666.7999878
1222.979864	663.0
1223.527802	665.2000122
1224.075683	665.0
1224.623508	666.0
1225.171277	665.5999756
1225.718989	665.5999756
1226.266644	663.4000244
1226.814243	663.2000122
1227.361786	665.5999756
1227.909272	664.7999878
1228.456702	666.2000122
1229.004075	663.2000122
1229.551392	666.2000122
1230.098652	663.4000244
1230.645856	663.2000122
1231.193003	665.0
1231.740094	667.7999878
1232.287129	663.5999756
1232.834107	664.2000122
1233.381029	664.7999878
1233.927894	665.5999756
1234.474703	667.2000122
1235.021455	661.2000122
1235.568151	664.5999756
1236.114791	663.5999756
1236.661374	662.5999756
1237.207901	664.7999878
1237.754372	664.4000244
1238.300786	665.0
1238.847144	665.7999878
1239.393445	666.4000244
1239.93969	665.5999756
1240.485879	664.0
1241.032011	664.5999756
1241.578087	664.5999756
1242.124106	665.7999878
1242.67007	662.5999756
1243.215976	665.7999878
1243.761827	666.4000244
1244.307621	664.2000122
1244.853359	667.4000244
1245.39904	663.4000244
1245.944665	668.2000122
1246.490234	666.0
1247.035746	666.2000122
1247.581203	665.4000244
1248.126602	665.2000122
1248.671946	664.7999878
1249.217233	663.2000122
1249.762464	666.2000122
1250.307638	666.5999756
1250.852757	666.0
1251.397819	663.2000122
1251.942824	664.7999878
1252.487774	664.2000122
1253.032667	663.5999756
1253.577503	664.7999878
1254.122284	666.2000122
1254.667008	664.5999756
1255.211676	665.7999878
1255.756288	664.2000122
1256.300843	664.2000122
1256.845342	663.4000244
1257.389785	665.7999878
1257.934172	666.4000244
1258.478502	669.5999756
1259.022776	666.5999756
1259.566994	667.2000122
1260.655261	665.5999756
1261.199311	668.0
1261.743304	668.0
1262.28724	668.4000244
1262.831121	673.0
1263.374945	671.0
1263.918713	676.7999878
1264.462425	676.7999878
1265.006081	677.0
1265.54968	672.0
1266.093223	668.4000244
1266.636711	669.2000122
1267.180141	666.0
1267.723516	665.0
1268.266835	665.4000244
1268.810097	667.0
1269.353303	666.2000122
1269.896453	666.0
1270.439547	664.5999756
1270.982584	667.0
1271.525566	667.5999756
1272.068491	667.5999756
1272.61136	665.5999756
1273.154173	664.0
1273.69693	667.4000244
1274.239631	667.0
1274.782275	667.0
1275.324864	667.7999878
1275.867396	666.4000244
1276.409872	666.5999756
1276.952292	669.2000122
1277.494656	663.4000244
1278.036964	670.2000122
1278.579215	668.7999878
1279.121411	668.0
1279.66355	669.2000122
1280.205634	671.0
1280.747661	672.4000244
1281.289632	674.7999878
1281.831547	679.0
1282.373406	689.2000122
1282.915209	711.7999878
1283.456955	756.0
1283.998646	826.2000122
1284.540281	883.0
1285.081859	857.2000122
1285.623381	768.2000122
1286.164848	705.0
1286.706258	687.5999756
1287.247612	675.7999878
1287.788911	671.2000122
1288.330153	668.4000244
1288.871339	670.5999756
1289.412469	667.2000122
1289.953543	668.2000122
1290.494561	668.7999878
1291.035523	666.5999756
1291.576428	665.2000122
1292.117278	663.7999878
1292.658072	664.7999878
1293.19881	666.4000244
1293.739492	664.2000122
1294.280118	665.4000244
1294.820687	665.5999756
1295.361201	664.5999756
1295.901659	667.2000122
1296.442061	666.4000244
1296.982406	664.4000244
1297.522696	667.2000122
1298.06293	664.2000122
1298.603108	665.0
1299.143229	664.0
1299.683295	665.4000244
1300.223305	664.7999878
1300.763259	666.4000244
1301.303157	663.7999878
1301.842999	664.5999756
1302.382785	664.4000244
1302.922515	662.2000122
1303.462189	663.5999756
1304.001807	662.7999878
1304.541369	667.0
1305.080875	666.2000122
1305.620326	664.4000244
1306.15972	664.2000122
1306.699058	665.2000122
1307.238341	664.0
1307.777567	667.4000244
1308.316738	663.0
1308.855853	664.0
1309.394912	664.0
1309.933915	663.5999756
1310.472862	664.4000244
1311.011753	665.4000244
1311.550588	662.7999878
1312.089367	664.5999756
1312.62809	663.2000122
1313.166758	664.0
1313.70537	664.0
1314.243925	663.4000244
1314.782425	663.4000244
1315.320869	663.7999878
1315.859257	660.5999756
1316.397589	662.4000244
1316.935866	665.5999756
1317.474086	663.4000244
1318.012251	664.7999878
1318.55036	665.5999756
1319.088413	662.0
1319.62641	666.5999756
1320.164351	661.4000244
1320.702236	664.0
1321.240066	663.4000244
1321.777839	663.0
1322.315557	663.2000122
1322.853219	663.7999878
1323.390826	665.5999756
1323.928376	667.7999878
1324.465871	662.2000122
1325.003309	664.4000244
1325.540692	664.0
1326.07802	666.5999756
1326.615291	665.4000244
1327.152506	664.2000122
1327.689666	664.7999878
1328.22677	664.2000122
1328.763818	662.4000244
1329.300811	662.7999878
1329.837747	662.5999756
1330.374628	665.0
1330.911453	663.7999878
1331.448222	662.5999756
1331.984936	664.0
1332.521594	664.0
1333.058196	662.0
1333.594742	662.0
1334.131232	664.2000122
1334.667667	661.5999756
1335.204046	665.0
1335.740369	666.4000244
1336.276637	664.0
1336.812848	663.4000244
1337.349004	663.5999756
1337.885105	663.7999878
1338.421149	662.5999756
1338.957138	664.0
1339.493071	663.4000244
1340.028949	664.5999756
1340.56477	665.5999756
1341.100536	666.2000122
1341.636246	663.2000122
1342.171901	661.7999878
1342.7075	665.5999756
1343.243043	663.2000122
1343.77853	666.0
1344.313962	664.2000122
1344.849338	666.2000122
1345.384659	664.0
1345.919923	663.0
1346.455133	666.2000122
1346.990286	665.0
1347.525384	664.5999756
1348.060426	664.0
1348.595412	664.7999878
1349.130343	664.4000244
1349.665218	662.4000244
1350.200037	665.7999878
1350.734801	664.7999878
1351.269509	664.4000244
1351.804162	662.5999756
1352.338758	666.0
1352.8733	666.2000122
1353.407785	667.0
1353.942215	665.7999878
1354.476589	665.7999878
1355.010908	664.0
1355.545171	665.0
1356.079379	664.7999878
1356.61353	666.0
1357.147627	664.7999878
1357.681667	665.2000122
1358.215652	665.0
1358.749582	669.0
1359.283456	664.7999878
1359.817274	664.5999756
1360.351037	665.4000244
1360.884744	663.2000122
1361.418395	666.0
1361.951991	665.5999756
1362.485531	664.4000244
1363.019016	665.4000244
1363.552445	662.2000122
1364.085819	666.7999878
1364.619137	665.0
1365.1524	666.2000122
1365.685607	663.5999756
1366.218758	668.2000122
1366.751854	666.4000244
1367.284894	663.4000244
1367.817879	667.0
1368.350808	666.5999756
1368.883682	666.0
1369.4165	665.5999756
1369.949263	672.0
1370.48197	671.0
1371.014622	667.2000122
1371.547218	664.5999756
1372.079758	663.4000244
1372.612244	663.5999756
1373.144673	663.4000244
1373.677047	664.7999878
1374.209366	666.4000244
1374.741629	667.4000244
1375.273836	666.5999756
1375.805989	666.5999756
1376.338085	670.2000122
1376.870126	665.5999756
1377.402112	667.4000244
1377.934042	667.7999878
1378.465917	666.5999756
1378.997736	664.7999878
1379.5295	667.7999878
1380.061208	668.0
1380.592861	667.0
1381.124459	669.2000122
1381.656	668.0
1382.187487	669.2000122
1382.718918	669.4000244
1383.250294	669.7999878
1383.781614	673.0
1384.312879	671.2000122
1384.844088	676.4000244
1385.375242	683.0
1385.90634	686.5999756
1386.437383	704.5999756
1386.968371	740.4000244
1387.499303	840.4000244
1388.03018	1042.0
1388.561001	1121.0
1389.091767	909.7999878
1389.622478	750.2000122
1390.153133	697.2000122
1390.683733	684.4000244
1391.214277	677.7999878
1391.744766	672.2000122
1392.2752	672.2000122
1392.805578	669.2000122
1393.335901	669.0
1393.866168	672.4000244
1394.396381	668.5999756
1394.926537	667.5999756
1395.456639	667.4000244
1395.986685	667.5999756
1396.516675	669.7999878
1397.046611	665.2000122
1397.576491	666.0
1398.106315	666.5999756
1398.636084	666.0
1399.165798	665.2000122
1399.695457	668.7999878
1400.22506	664.2000122
1400.754608	665.0
1401.284101	664.5999756
1401.813538	666.2000122
1402.34292	666.5999756
1402.872247	665.7999878
1403.401518	667.7999878
1403.930734	665.2000122
1404.459895	666.7999878
1404.989	661.7999878
1405.51805	669.0
1406.047045	666.5999756
1406.575984	669.0
1407.104869	668.5999756
1407.633697	671.0
1408.162471	673.4000244
1408.691189	678.7999878
1409.219852	686.0
1409.74846	686.2000122
1410.277013	688.2000122
1410.80551	680.4000244
1411.333952	671.2000122
1411.862339	669.4000244
1412.39067	667.5999756
1412.918946	665.5999756
1413.447167	667.2000122
1413.975333	664.7999878
1414.503444	665.4000244
1415.031499	664.0
1415.559499	679.2000122
1416.087444	666.2000122
1416.615333	666.2000122
1417.143167	665.5999756
1417.670947	664.5999756
1418.19867	664.0
1418.726339	664.2000122
1419.253952	662.7999878
1419.781511	665.7999878
1420.309014	665.4000244
1420.836461	665.2000122
1421.363854	664.2000122
1421.891191	665.2000122
1422.418474	664.4000244
1422.945701	662.7999878
1423.472872	663.2000122
1423.999989	661.7999878
1424.52705	665.7999878
1425.054057	662.0
1425.581008	662.5999756
1426.107904	664.2000122
1426.634745	663.5999756
1427.16153	662.4000244
1427.688261	664.2000122
1428.214936	663.7999878
1428.741556	663.7999878
1429.268121	664.7999878
1429.794631	662.0
1430.321085	665.2000122
1430.847485	663.4000244
1431.373829	664.5999756
1431.900118	663.5999756
1432.426353	663.0
1432.952532	664.5999756
1433.478655	664.2000122
1434.004724	663.2000122
1434.530738	661.7999878
1435.056696	662.0
1435.5826	664.4000244
1436.108448	662.7999878
1436.634241	663.5999756
1437.159979	663.5999756
1437.685662	662.7999878
1438.21129	663.2000122
1438.736863	665.4000244
1439.262381	664.0
1439.787843	663.4000244
1440.313251	661.0
1440.838603	664.2000122
1441.3639	662.7999878
1441.889143	662.2000122
1442.41433	664.5999756
1442.939462	665.2000122
1443.464539	662.0
1443.989561	663.0
1444.514528	663.5999756
1445.03944	664.0
1445.564297	662.5999756
1446.089099	664.4000244
1446.613846	662.7999878
1447.138537	662.0
1447.663174	666.5999756
1448.187756	661.7999878
1448.712282	664.5999756
1449.236754	662.4000244
1449.761171	666.4000244
1450.285532	663.5999756
1450.809839	661.7999878
1451.33409	661.2000122
1451.858287	662.4000244
1452.382428	663.2000122
1452.906515	661.7999878
1453.430546	665.5999756
1453.954523	662.7999878
1454.478444	662.2000122
1455.002311	662.2000122
1455.526123	662.7999878
1456.049879	662.2000122
1456.573581	661.5999756
1457.097227	664.2000122
1457.620819	661.2000122
1458.144356	662.5999756
1458.667837	663.5999756
1459.191264	662.5999756
1459.714636	662.5999756
1460.237952	664.0
1460.761214	664.4000244
1461.284421	663.0
1461.807573	661.7999878
1462.33067	661.7999878
1462.853712	676.4000244
1463.376699	686.2000122
1463.899632	664.7999878
1464.422509	663.7999878
1464.945331	663.0
1465.468099	662.2000122
1465.990811	659.7999878
1466.513469	662.4000244
1467.036071	662.2000122
1467.558619	664.4000244
1468.081112	664.2000122
1468.60355	664.7999878
1469.125933	658.4000244
1469.648261	661.7999878
1470.170534	661.0
1470.692752	662.2000122
1471.214916	664.2000122
1471.737024	664.5999756
1472.259078	662.5999756
1472.781077	659.7999878
1473.303021	663.5999756
1473.82491	663.5999756
1474.346744	660.7999878
1474.868523	662.0
1475.390248	661.7999878
1475.911917	662.7999878
1476.433532	662.5999756
1476.955092	661.0
1477.476597	664.0
1477.998047	662.0
1478.519442	662.2000122
1479.040783	661.2000122
1479.562068	662.7999878
1480.083299	663.5999756
1480.604475	661.5999756
1481.125596	663.2000122
1481.646663	662.2000122
1482.167674	662.7999878
1482.688631	662.4000244
1483.209533	659.4000244
1483.73038	663.0
1484.251172	661.0
1484.771909	662.5999756
1485.292592	662.7999878
1485.81322	664.7999878
1486.333793	661.4000244
1486.854311	664.5999756
1487.374775	659.5999756
1487.895183	661.5999756
1488.415537	662.7999878
1488.935836	663.0
1489.456081	663.0
1489.97627	662.0
1490.496405	662.0
1491.016485	663.0
1491.536511	661.5999756
1492.056481	660.7999878
1492.576397	661.0
1493.096258	660.5999756
1493.616064	662.4000244
1494.135816	661.7999878
1494.655513	661.7999878
1495.175155	664.4000244
1495.694742	661.0
1496.214274	663.7999878
1496.733752	659.7999878
1497.253175	663.0
1497.772544	661.2000122
1498.291858	660.0
1498.811116	663.4000244
1499.330321	661.5999756
1499.84947	671.4000244
1500.368565	664.2000122
1500.887605	663.0
1501.406591	661.0
1501.925521	660.7999878
1502.444397	661.4000244
1502.963219	664.2000122
1503.481985	662.0
1504.000697	660.4000244
1504.519355	662.2000122
1505.037957	663.4000244
1505.556505	660.2000122
1506.074999	661.2000122
1506.593437	664.2000122
1507.111821	662.4000244
1507.63015	663.0
1508.148425	661.4000244
1508.666645	663.2000122
1509.18481	661.2000122
1509.702921	662.5999756
1510.220977	663.0
1510.738979	671.0
1511.256925	660.0
1511.774817	662.5999756
1512.292655	662.2000122
1512.810438	661.2000122
1513.328166	662.0
1513.84584	662.5999756
1514.363459	662.4000244
1514.881023	662.0
1515.398533	660.0
1515.915988	661.0
1516.433389	662.2000122
1516.950734	663.0
1517.468026	661.5999756
1517.985263	663.0
1518.502445	662.0
1519.019572	661.4000244
1519.536645	662.4000244
1520.053664	664.5999756
1520.570628	661.5999756
1521.087537	662.0
1521.604392	659.4000244
1522.121192	660.5999756
1522.637937	661.7999878
1523.154628	664.5999756
1523.671265	662.7999878
1524.187847	659.5999756
1524.704374	660.7999878
1525.220847	664.0
1525.737265	667.4000244
1526.253629	683.2000122
1526.769938	671.7999878
1527.286192	661.2000122
1527.802392	664.0
1528.318538	661.4000244
1528.834629	662.2000122
1529.350666	661.7999878
1529.866648	664.5999756
1530.382575	662.2000122
1530.898448	659.2000122
1531.414266	661.7999878
1531.93003	661.0
1532.44574	659.7999878
1532.961395	661.2000122
1533.476995	660.0
1533.992541	661.2000122
1534.508033	664.5999756
1535.02347	661.7999878
1535.538852	661.2000122
1536.05418	662.5999756
1536.569454	659.4000244
1537.084673	661.7999878
1537.599837	659.0
1538.114947	663.4000244
1538.630003	663.4000244
1539.145004	661.0
1539.659951	663.0
1540.174843	661.5999756
1540.689681	661.7999878
1541.204465	659.2000122
1541.719194	663.2000122
1542.233868	663.7999878
1542.748488	662.4000244
1543.263054	663.2000122
1543.777565	659.7999878
1544.292022	662.0
1544.806424	662.4000244
1545.320772	663.4000244
1545.835066	663.2000122
1546.349305	661.2000122
1546.863489	664.0
1547.37762	661.0
1547.891696	664.5999756
1548.405717	662.2000122
1548.919684	662.0
1549.433597	663.0
1549.947455	663.5999756
1550.461259	661.7999878
1550.975009	661.7999878
1551.488704	663.7999878
1552.002345	663.7999878
1552.515931	663.4000244
1553.029463	660.5999756
1553.542941	664.7999878
1554.056364	664.5999756
1554.569733	662.5999756
1555.083048	664.4000244
1555.596308	664.2000122
1556.109514	662.7999878
1556.622665	661.4000244
1557.135762	662.0
1557.648805	663.2000122
1558.161794	661.4000244
1558.674728	662.7999878
1559.187608	660.5999756
1559.700433	661.4000244
1560.213205	662.0
1560.725921	662.0
1561.238584	662.2000122
1561.751192	664.2000122
1562.263746	663.2000122
1562.776246	663.2000122
1563.288691	663.0
1563.801082	664.2000122
1564.313419	662.7999878
1564.825701	664.5999756
1565.337929	663.0
1565.850103	664.4000244
1566.362223	663.7999878
1566.874288	667.0
1567.386299	667.2000122
1567.898256	662.2000122
1568.410158	663.2000122
1568.922007	662.7999878
1569.4338	661.0
1569.94554	664.4000244
1570.457226	663.5999756
1570.968857	662.5999756
1571.480434	660.5999756
1571.991956	662.4000244
1572.503425	665.2000122
1573.014839	663.2000122
1573.526199	663.5999756
1574.037505	663.2000122
1574.548756	665.7999878
1575.059953	663.5999756
1575.571096	660.4000244
1576.082185	662.7999878
1576.59322	664.7999878
1577.1042	660.7999878
1577.615126	661.5999756
1578.125998	661.5999756
1578.636816	661.2000122
1579.14758	662.7999878
1579.658289	661.4000244
1580.168944	662.2000122
1580.679545	662.0
1581.190092	664.2000122
1581.700585	662.7999878
1582.211023	661.0
1582.721407	661.5999756
1583.231737	662.7999878
1583.742013	660.7999878
1584.252235	662.4000244
1584.762403	661.2000122
1585.272516	662.7999878
1585.782575	659.2000122
1586.292581	662.0
1586.802532	661.7999878
1587.312428	663.7999878
1587.822271	662.0
1588.33206	662.5999756
1588.841794	662.5999756
1589.351474	661.2000122
1589.8611	663.0
1590.370672	660.4000244
1590.88019	661.7999878
1591.389654	660.0
1591.899064	662.7999878
1592.408419	660.2000122
