1042.452273	681.7999878
1043.018714	683.2000122
1043.585098	680.0
1044.151424	680.5999756
1044.717692	682.7999878
1045.283903	678.7999878
1045.850056	675.7999878
1046.416151	679.0
1046.982188	677.4000244
1047.548167	676.7999878
1048.114089	676.7999878
1048.679953	677.5999756
1049.24576	675.2000122
1049.811509	673.0
1050.3772	676.4000244
1050.942833	672.2000122
1051.508408	673.7999878
1052.073926	669.5999756
1052.639387	668.5999756
1053.204789	669.4000244
1053.770134	672.0
1054.335421	672.0
1054.900651	669.5999756
1055.465823	671.2000122
1056.030937	669.7999878
1056.595993	668.4000244
1057.160992	671.0
1057.725934	667.7999878
1058.290817	669.2000122
1058.855643	670.5999756
1059.420411	666.0
1059.985122	668.7999878
1060.549775	670.5999756
1061.114371	668.2000122
1061.678908	671.0
1062.243389	671.0
1062.807811	666.7999878
1063.372176	670.2000122
1063.936483	666.7999878
1064.500733	667.7999878
1065.064925	670.5999756
1065.62906	668.7999878
1066.193137	668.4000244
1066.757156	669.5999756
1067.321118	666.2000122
1067.885022	669.2000122
1068.448869	667.7999878
1069.012658	670.7999878
1069.57639	667.5999756
1070.140063	677.7999878
1070.70368	668.5999756
1071.267239	667.4000244
1071.83074	668.5999756
1072.394184	667.7999878
1072.95757	667.7999878
1073.520899	668.2000122
1074.08417	669.0
1074.647383	666.5999756
1075.21054	668.4000244
1075.773638	668.0
1076.336679	671.0
1076.899663	671.4000244
1077.462589	666.0
1078.025457	666.0
1078.588268	668.5999756
1079.151022	669.5999756
1079.713718	667.7999878
1080.276356	668.7999878
1080.838937	665.5999756
1081.401461	668.4000244
1081.963927	670.4000244
1082.526336	670.5999756
1083.088687	671.7999878
1083.650981	669.2000122
1084.213217	670.4000244
1084.775396	668.7999878
1085.337517	670.2000122
1085.899581	670.5999756
1086.461587	672.0
1087.023536	671.0
1087.585428	671.7999878
1088.147262	672.4000244
1088.709039	675.7999878
1089.270758	672.0
1089.83242	674.2000122
1090.394024	671.0
1090.955571	673.2000122
1091.517061	675.2000122
1092.078493	676.2000122
1092.639868	672.0
1093.201185	674.4000244
1093.762445	673.0
1094.323648	674.4000244
1094.884793	674.0
1095.445881	672.4000244
1096.006911	674.7999878
1096.567884	672.4000244
1097.1288	679.4000244
1097.689659	673.7999878
1098.25046	672.4000244
1098.811203	668.4000244
1099.37189	669.2000122
1099.932518	672.4000244
1100.49309	670.7999878
1101.053604	670.7999878
1101.614061	670.5999756
1102.174461	669.0
1102.734803	668.0
1103.295088	668.5999756
1103.855316	667.7999878
1104.415486	664.7999878
1104.975599	668.7999878
1105.535655	669.5999756
1106.095653	668.2000122
1106.655594	670.4000244
1107.215478	665.4000244
1107.775305	669.4000244
1108.335074	668.2000122
1108.894786	662.7999878
1109.45444	665.5999756
1110.014038	665.7999878
1110.573578	666.0
1111.133061	667.0
1111.692486	666.0
1112.251854	666.5999756
1112.811165	668.5999756
1113.370419	667.7999878
1113.929616	665.7999878
1114.488755	663.4000244
1115.047837	667.7999878
1115.606862	665.2000122
1116.16583	668.0
1116.72474	668.2000122
1117.283593	669.2000122
1117.842389	663.7999878
1118.401128	665.2000122
1118.959809	666.2000122
1119.518433	668.2000122
1120.077	664.5999756
1120.63551	664.5999756
1121.193963	667.0
1121.752358	663.7999878
1122.310697	665.0
1122.868978	663.4000244
1123.427202	668.5999756
1123.985368	668.2000122
1124.543478	664.0
1125.10153	667.2000122
1125.659526	667.4000244
1126.217464	666.2000122
1126.775345	666.0
1127.333168	666.7999878
1127.890935	665.2000122
1128.448644	665.0
1129.006297	665.7999878
1129.563892	664.5999756
1130.12143	664.0
1130.678911	667.5999756
1131.236335	665.5999756
1131.793701	662.2000122
1132.351011	663.2000122
1132.908263	663.0
1133.465458	665.7999878
1134.022597	665.4000244
1134.579678	666.4000244
1135.136702	665.4000244
1135.693669	666.4000244
1136.250578	667.4000244
1136.807431	665.5999756
1137.364227	665.0
1137.920965	662.2000122
1138.477647	663.4000244
1139.034271	664.0
1139.590839	666.5999756
1140.147349	662.0
1140.703802	663.0
1141.260198	663.4000244
1141.816537	664.4000244
1142.37282	665.7999878
1142.929045	667.4000244
1143.485213	665.4000244
1144.041323	666.2000122
1144.597377	666.2000122
1145.153374	662.4000244
1145.709314	664.7999878
1146.265197	663.7999878
1146.821023	666.5999756
1147.376792	665.5999756
1147.932503	666.5999756
1148.488158	665.7999878
1149.043756	666.2000122
1149.599297	665.5999756
1150.154781	664.5999756
1150.710207	663.5999756
1151.265577	664.2000122
1151.82089	664.7999878
1152.376146	663.2000122
1152.931345	663.4000244
1153.486487	667.2000122
1154.041572	664.2000122
1154.5966	665.2000122
1155.151571	667.2000122
1155.706485	666.2000122
1156.261342	665.7999878
1156.816142	665.5999756
1157.370885	665.2000122
1157.925572	665.2000122
1158.480201	664.7999878
1159.034774	663.4000244
1159.589289	666.0
1160.143748	666.5999756
1160.698149	664.7999878
1161.252494	667.4000244
1161.806782	666.5999756
1162.361013	665.4000244
1162.915187	661.0
1163.469304	664.5999756
1164.023364	663.7999878
1164.577368	664.5999756
1165.131314	666.0
1165.685204	665.2000122
1166.239036	666.0
1166.792812	666.5999756
1167.346531	664.4000244
1167.900193	665.2000122
1168.453798	663.4000244
1169.007347	663.5999756
1169.560838	665.0
1170.114273	663.5999756
1170.66765	664.4000244
1171.220971	666.4000244
1171.774235	662.7999878
1172.327443	664.4000244
1172.880593	664.7999878
1173.433687	664.4000244
1173.986723	662.7999878
1174.539703	662.0
1175.092626	663.0
1175.645493	666.5999756
1176.198302	668.2000122
1176.751055	665.2000122
1177.303751	663.4000244
1177.85639	664.4000244
1178.408972	663.5999756
1178.961498	661.5999756
1179.513966	665.7999878
1180.066378	667.0
1180.618733	664.2000122
1181.171032	664.4000244
1181.723273	662.7999878
1182.275458	666.4000244
1182.827586	666.5999756
1183.379657	663.7999878
1183.931672	665.4000244
1184.48363	665.5999756
1185.035531	664.5999756
1185.587375	665.7999878
1186.139162	666.5999756
1186.690893	664.2000122
1187.242567	664.0
1187.794184	664.2000122
1188.345745	662.4000244
1188.897249	662.4000244
1189.448696	663.7999878
1190.000086	664.4000244
1190.55142	662.4000244
1191.102697	665.7999878
1191.653918	663.7999878
1192.205081	664.5999756
1192.756188	664.2000122
1193.307238	688.2000122
1193.858232	664.2000122
1194.409169	665.0
1194.960049	666.0
1195.510872	666.5999756
1196.061639	665.5999756
1196.612349	663.7999878
1197.163003	665.4000244
1197.713599	661.7999878
1198.264139	665.2000122
1198.814623	663.7999878
1199.36505	664.0
1199.91542	662.7999878
1200.465734	662.2000122
1201.01599	665.5999756
1201.566191	662.0
1202.116334	662.4000244
1202.666421	662.7999878
1203.216452	664.7999878
1203.766425	663.7999878
1204.316343	663.5999756
1204.866203	663.0
1205.416007	664.0
1205.965754	662.4000244
1206.515445	663.5999756
1207.065079	665.2000122
1207.614657	664.4000244
1208.164177	664.7999878
1208.713642	666.0
1209.26305	664.2000122
1209.812401	666.5999756
1210.361695	666.2000122
1210.910933	665.0
1211.460115	664.2000122
1212.00924	664.0
1212.558308	663.2000122
1213.10732	666.7999878
1213.656275	663.2000122
1214.205174	665.7999878
1214.754016	664.5999756
1215.302801	665.7999878
1215.85153	662.7999878
1216.400203	665.0
1216.948819	665.2000122
1217.497378	665.4000244
1218.045881	664.0
1218.594327	665.5999756
1219.142717	664.2000122
1219.691051	665.7999878
1220.239327	665.4000244
1220.787548	667.2000122
1221.335712	664.7999878
1221.883819	667.4000244
1222.43187	665.5999756
1222.979864	663.7999878
1223.527802	666.0
1224.075683	664.7999878
1224.623508	665.5999756
1225.171277	665.2000122
1225.718989	662.4000244
1226.266644	663.2000122
1226.814243	665.7999878
1227.361786	666.0
1227.909272	667.2000122
1228.456702	665.5999756
1229.004075	665.0
1229.551392	666.5999756
1230.098652	663.0
1230.645856	663.2000122
1231.193003	667.7999878
1231.740094	665.5999756
1232.287129	664.0
1232.834107	666.0
1233.381029	665.0
1233.927894	666.2000122
1234.474703	667.5999756
1235.021455	666.0
1235.568151	663.4000244
1236.114791	665.4000244
1236.661374	666.0
1237.207901	666.4000244
1237.754372	662.4000244
1238.300786	664.2000122
1238.847144	663.4000244
1239.393445	664.7999878
1239.93969	662.7999878
1240.485879	666.2000122
1241.032011	665.7999878
1241.578087	665.2000122
1242.124106	663.2000122
1242.67007	663.5999756
1243.215976	665.4000244
1243.761827	664.2000122
1244.307621	666.5999756
1244.853359	665.5999756
1245.39904	665.2000122
1245.944665	667.0
1246.490234	664.2000122
1247.035746	665.2000122
1247.581203	666.5999756
1248.126602	665.2000122
1248.671946	664.5999756
1249.217233	663.4000244
1249.762464	663.0
1250.307638	665.2000122
1250.852757	667.0
1251.397819	665.7999878
1251.942824	667.2000122
1252.487774	666.5999756
1253.032667	667.4000244
1253.577503	665.5999756
1254.122284	665.4000244
1254.667008	665.4000244
1255.211676	665.5999756
1255.756288	669.2000122
1256.300843	666.4000244
1256.845342	667.2000122
1257.389785	664.5999756
1257.934172	667.5999756
1258.478502	668.0
1259.022776	666.4000244
1259.566994	667.4000244
1260.655261	669.5999756
1261.199311	665.7999878
1261.743304	668.7999878
1262.28724	671.4000244
1262.831121	671.5999756
1263.374945	672.4000244
1263.918713	676.7999878
1264.462425	678.5999756
1265.006081	682.0
1265.54968	673.2000122
1266.093223	672.7999878
1266.636711	671.7999878
1267.180141	668.0
1267.723516	668.4000244
1268.266835	669.5999756
1268.810097	666.4000244
1269.353303	663.2000122
1269.896453	666.0
1270.439547	665.0
1270.982584	667.4000244
1271.525566	668.4000244
1272.068491	666.4000244
1272.61136	667.0
1273.154173	668.4000244
1273.69693	667.2000122
1274.239631	668.4000244
1274.782275	666.5999756
1275.324864	665.4000244
1275.867396	666.0
1276.409872	668.2000122
1276.952292	668.5999756
1277.494656	666.2000122
1278.036964	667.2000122
1278.579215	669.7999878
1279.121411	671.0
1279.66355	669.2000122
1280.205634	670.4000244
1280.747661	673.2000122
1281.289632	676.4000244
1281.831547	683.5999756
1282.373406	693.4000244
1282.915209	718.5999756
1283.456955	772.4000244
1283.998646	853.4000244
1284.540281	913.7999878
1285.081859	870.2000122
1285.623381	769.4000244
1286.164848	712.2000122
1286.706258	686.5999756
1287.247612	683.2000122
1287.788911	676.2000122
1288.330153	673.4000244
1288.871339	672.2000122
1289.412469	669.7999878
1289.953543	669.2000122
1290.494561	668.5999756
1291.035523	667.0
1291.576428	672.2000122
1292.117278	668.7999878
1292.658072	667.5999756
1293.19881	665.4000244
1293.739492	666.7999878
1294.280118	668.2000122
1294.820687	670.0
1295.361201	668.5999756
1295.901659	667.5999756
1296.442061	664.0
1296.982406	662.2000122
1297.522696	665.0
1298.06293	665.5999756
1298.603108	667.0
1299.143229	664.2000122
1299.683295	664.7999878
1300.223305	667.0
1300.763259	666.2000122
1301.303157	666.5999756
1301.842999	664.5999756
1302.382785	667.0
1302.922515	664.5999756
1303.462189	667.2000122
1304.001807	665.4000244
1304.541369	666.4000244
1305.080875	667.4000244
1305.620326	666.7999878
1306.15972	663.4000244
1306.699058	665.5999756
1307.238341	664.0
1307.777567	666.5999756
1308.316738	663.7999878
1308.855853	668.2000122
1309.394912	662.7999878
1309.933915	665.7999878
1310.472862	663.7999878
1311.011753	665.5999756
1311.550588	663.5999756
1312.089367	664.5999756
1312.62809	665.7999878
1313.166758	662.7999878
1313.70537	665.4000244
1314.243925	666.4000244
1314.782425	664.2000122
1315.320869	666.4000244
1315.859257	664.2000122
1316.397589	666.5999756
1316.935866	664.5999756
1317.474086	664.4000244
1318.012251	665.4000244
1318.55036	663.2000122
1319.088413	666.7999878
1319.62641	667.0
1320.164351	666.0
1320.702236	667.2000122
1321.240066	664.4000244
1321.777839	664.2000122
1322.315557	665.0
1322.853219	666.2000122
1323.390826	665.2000122
1323.928376	671.4000244
1324.465871	665.7999878
1325.003309	665.7999878
1325.540692	666.5999756
1326.07802	667.4000244
1326.615291	664.7999878
1327.152506	667.0
1327.689666	665.2000122
1328.22677	663.2000122
1328.763818	663.7999878
1329.300811	665.7999878
1329.837747	661.7999878
1330.374628	663.2000122
1330.911453	664.4000244
1331.448222	663.2000122
1331.984936	662.5999756
1332.521594	664.0
1333.058196	663.0
1333.594742	665.5999756
1334.131232	662.7999878
1334.667667	661.5999756
1335.204046	664.5999756
1335.740369	665.4000244
1336.276637	664.7999878
1336.812848	665.2000122
1337.349004	667.4000244
1337.885105	663.2000122
1338.421149	662.2000122
1338.957138	664.0
1339.493071	665.2000122
1340.028949	665.0
1340.56477	665.5999756
1341.100536	662.5999756
1341.636246	666.0
1342.171901	664.4000244
1342.7075	665.4000244
1343.243043	665.0
1343.77853	664.5999756
1344.313962	668.0
1344.849338	665.0
1345.384659	666.7999878
1345.919923	664.2000122
1346.455133	664.5999756
1346.990286	664.2000122
1347.525384	666.2000122
1348.060426	663.4000244
1348.595412	666.0
1349.130343	664.5999756
1349.665218	665.4000244
1350.200037	664.7999878
1350.734801	664.7999878
1351.269509	665.7999878
1351.804162	664.2000122
1352.338758	662.0
1352.8733	664.5999756
1353.407785	663.5999756
1353.942215	666.2000122
1354.476589	664.0
1355.010908	666.2000122
1355.545171	666.7999878
1356.079379	663.5999756
1356.61353	665.7999878
1357.147627	665.0
1357.681667	663.5999756
1358.215652	663.7999878
1358.749582	667.4000244
1359.283456	666.5999756
1359.817274	665.0
1360.351037	665.7999878
1360.884744	664.2000122
1361.418395	665.7999878
1361.951991	665.4000244
1362.485531	666.2000122
1363.019016	667.5999756
1363.552445	666.4000244
1364.085819	665.4000244
1364.619137	666.5999756
1365.1524	667.2000122
1365.685607	665.5999756
1366.218758	665.0
1366.751854	667.4000244
1367.284894	666.7999878
1367.817879	663.7999878
1368.350808	668.0
1368.883682	668.5999756
1369.4165	672.2000122
1369.949263	672.2000122
1370.48197	673.4000244
1371.014622	667.2000122
1371.547218	666.7999878
1372.079758	664.7999878
1372.612244	669.2000122
1373.144673	667.7999878
1373.677047	665.4000244
1374.209366	666.0
1374.741629	665.7999878
1375.273836	669.2000122
1375.805989	667.4000244
1376.338085	666.0
1376.870126	668.7999878
1377.402112	668.4000244
1377.934042	666.4000244
1378.465917	667.0
1378.997736	667.2000122
1379.5295	670.0
1380.061208	667.7999878
1380.592861	667.0
1381.124459	670.0
1381.656	669.7999878
1382.187487	668.4000244
1382.718918	674.7999878
1383.250294	670.2000122
1383.781614	673.4000244
1384.312879	674.5999756
1384.844088	679.5999756
1385.375242	683.0
1385.90634	692.7999878
1386.437383	712.2000122
1386.968371	755.0
1387.499303	866.5999756
1388.03018	1083.199951
1388.561001	1157.800049
1389.091767	913.7999878
1389.622478	760.5999756
1390.153133	708.0
1390.683733	688.0
1391.214277	683.4000244
1391.744766	675.2000122
1392.2752	673.4000244
1392.805578	670.5999756
1393.335901	673.2000122
1393.866168	675.0
1394.396381	671.2000122
1394.926537	670.4000244
1395.456639	666.0
1395.986685	666.4000244
1396.516675	671.2000122
1397.046611	668.7999878
1397.576491	669.0
1398.106315	667.4000244
1398.636084	669.4000244
1399.165798	667.4000244
1399.695457	667.7999878
1400.22506	667.7999878
1400.754608	666.7999878
1401.284101	666.7999878
1401.813538	665.7999878
1402.34292	666.5999756
1402.872247	665.5999756
1403.401518	668.7999878
1403.930734	669.0
1404.459895	666.7999878
1404.989	665.7999878
1405.51805	666.2000122
1406.047045	668.7999878
1406.575984	672.0
1407.104869	670.4000244
1407.633697	671.4000244
1408.162471	676.5999756
1408.691189	677.2000122
1409.219852	691.5999756
1409.74846	695.0
1410.277013	693.2000122
1410.80551	680.5999756
1411.333952	674.0
1411.862339	674.4000244
1412.39067	667.2000122
1412.918946	666.2000122
1413.447167	667.0
1413.975333	667.2000122
1414.503444	664.7999878
1415.031499	666.5999756
1415.559499	678.7999878
1416.087444	666.7999878
1416.615333	665.5999756
1417.143167	664.2000122
1417.670947	666.5999756
1418.19867	662.5999756
1418.726339	665.5999756
1419.253952	665.2000122
1419.781511	665.5999756
1420.309014	665.4000244
1420.836461	662.4000244
1421.363854	666.5999756
1421.891191	667.0
1422.418474	666.4000244
1422.945701	664.0
1423.472872	661.5999756
1423.999989	664.7999878
1424.52705	663.4000244
1425.054057	665.7999878
1425.581008	666.5999756
1426.107904	667.7999878
1426.634745	663.2000122
1427.16153	663.5999756
1427.688261	664.5999756
1428.214936	665.5999756
1428.741556	663.7999878
1429.268121	665.2000122
1429.794631	665.5999756
1430.321085	666.7999878
1430.847485	664.0
1431.373829	663.0
1431.900118	664.4000244
1432.426353	663.0
1432.952532	667.0
1433.478655	662.5999756
1434.004724	664.0
1434.530738	663.5999756
1435.056696	665.2000122
1435.5826	662.2000122
1436.108448	663.4000244
1436.634241	663.7999878
1437.159979	665.2000122
1437.685662	666.5999756
1438.21129	663.4000244
1438.736863	663.7999878
1439.262381	664.5999756
1439.787843	662.4000244
1440.313251	666.4000244
1440.838603	662.5999756
1441.3639	661.0
1441.889143	664.5999756
1442.41433	663.4000244
1442.939462	663.4000244
1443.464539	663.4000244
1443.989561	661.7999878
1444.514528	665.2000122
1445.03944	664.4000244
1445.564297	664.7999878
1446.089099	664.5999756
1446.613846	664.2000122
1447.138537	665.5999756
1447.663174	664.4000244
1448.187756	661.7999878
1448.712282	663.5999756
1449.236754	662.5999756
1449.761171	663.7999878
1450.285532	664.0
1450.809839	661.4000244
1451.33409	663.2000122
1451.858287	661.5999756
1452.382428	661.2000122
1452.906515	663.7999878
1453.430546	663.2000122
1453.954523	663.7999878
1454.478444	663.2000122
1455.002311	663.0
1455.526123	661.4000244
1456.049879	661.7999878
1456.573581	665.2000122
1457.097227	662.7999878
1457.620819	665.0
1458.144356	663.7999878
1458.667837	663.2000122
1459.191264	664.4000244
1459.714636	663.4000244
1460.237952	662.0
1460.761214	663.4000244
1461.284421	664.5999756
1461.807573	664.4000244
1462.33067	665.2000122
1462.853712	675.5999756
1463.376699	693.5999756
1463.899632	669.4000244
1464.422509	664.2000122
1464.945331	660.2000122
1465.468099	662.7999878
1465.990811	664.4000244
1466.513469	663.2000122
1467.036071	663.0
1467.558619	663.4000244
1468.081112	665.4000244
1468.60355	664.5999756
1469.125933	664.7999878
1469.648261	664.5999756
1470.170534	664.4000244
1470.692752	661.0
1471.214916	662.0
1471.737024	663.5999756
1472.259078	665.5999756
1472.781077	662.2000122
1473.303021	659.4000244
1473.82491	662.4000244
1474.346744	665.7999878
1474.868523	662.5999756
1475.390248	663.0
1475.911917	661.7999878
1476.433532	664.0
1476.955092	663.4000244
1477.476597	662.7999878
1477.998047	663.5999756
1478.519442	660.5999756
1479.040783	662.0
1479.562068	665.2000122
1480.083299	660.5999756
1480.604475	664.2000122
1481.125596	663.0
1481.646663	661.7999878
1482.167674	664.2000122
1482.688631	661.7999878
1483.209533	663.4000244
1483.73038	663.7999878
1484.251172	662.5999756
1484.771909	660.0
1485.292592	663.7999878
1485.81322	662.2000122
1486.333793	661.7999878
1486.854311	663.2000122
1487.374775	662.5999756
1487.895183	663.4000244
1488.415537	663.0
1488.935836	664.0
1489.456081	662.0
1489.97627	663.2000122
1490.496405	662.0
1491.016485	663.5999756
1491.536511	660.7999878
1492.056481	662.5999756
1492.576397	664.4000244
1493.096258	663.4000244
1493.616064	662.2000122
1494.135816	662.7999878
1494.655513	661.0
1495.175155	660.4000244
1495.694742	662.5999756
1496.214274	663.5999756
1496.733752	662.2000122
1497.253175	663.0
1497.772544	663.4000244
1498.291858	665.4000244
1498.811116	660.5999756
1499.330321	661.4000244
1499.84947	671.5999756
1500.368565	663.4000244
1500.887605	661.7999878
1501.406591	663.2000122
1501.925521	662.4000244
1502.444397	664.2000122
1502.963219	662.0
1503.481985	661.2000122
1504.000697	661.5999756
1504.519355	663.5999756
1505.037957	661.2000122
1505.556505	660.7999878
1506.074999	660.0
1506.593437	660.5999756
1507.111821	661.2000122
1507.63015	661.5999756
1508.148425	660.5999756
1508.666645	661.0
1509.18481	662.0
1509.702921	662.0
1510.220977	663.0
1510.738979	671.2000122
1511.256925	663.2000122
1511.774817	663.7999878
1512.292655	663.4000244
1512.810438	662.0
1513.328166	661.7999878
1513.84584	661.4000244
1514.363459	661.0
1514.881023	663.0
1515.398533	663.5999756
1515.915988	661.4000244
1516.433389	662.2000122
1516.950734	663.5999756
1517.468026	664.0
1517.985263	663.4000244
1518.502445	662.5999756
1519.019572	664.4000244
1519.536645	664.0
1520.053664	661.7999878
1520.570628	661.2000122
1521.087537	662.0
1521.604392	663.0
1522.121192	660.5999756
1522.637937	660.7999878
1523.154628	663.4000244
1523.671265	662.2000122
1524.187847	661.4000244
1524.704374	663.0
1525.220847	662.2000122
1525.737265	669.7999878
1526.253629	687.2000122
1526.769938	671.2000122
1527.286192	666.4000244
1527.802392	660.5999756
1528.318538	663.4000244
1528.834629	663.0
1529.350666	663.2000122
1529.866648	662.4000244
1530.382575	663.4000244
1530.898448	661.4000244
1531.414266	663.5999756
1531.93003	662.0
1532.44574	660.5999756
1532.961395	664.0
1533.476995	661.0
1533.992541	660.4000244
1534.508033	658.5999756
1535.02347	663.5999756
1535.538852	663.0
1536.05418	662.5999756
1536.569454	660.7999878
1537.084673	659.5999756
1537.599837	662.4000244
1538.114947	663.0
1538.630003	663.5999756
1539.145004	660.7999878
1539.659951	663.7999878
1540.174843	662.0
1540.689681	662.5999756
1541.204465	662.4000244
1541.719194	662.5999756
1542.233868	663.5999756
1542.748488	661.2000122
1543.263054	664.7999878
1543.777565	663.7999878
1544.292022	660.5999756
1544.806424	663.2000122
1545.320772	663.4000244
1545.835066	661.0
1546.349305	662.7999878
1546.863489	662.4000244
1547.37762	665.0
1547.891696	662.0
1548.405717	663.2000122
1548.919684	663.5999756
1549.433597	661.7999878
1549.947455	663.0
1550.461259	664.5999756
1550.975009	664.0
1551.488704	665.2000122
1552.002345	663.0
1552.515931	663.0
1553.029463	663.0
1553.542941	662.0
1554.056364	662.0
1554.569733	662.7999878
1555.083048	662.2000122
1555.596308	664.2000122
1556.109514	661.2000122
1556.622665	662.4000244
1557.135762	662.0
1557.648805	665.0
1558.161794	665.5999756
1558.674728	662.7999878
1559.187608	663.4000244
1559.700433	661.7999878
1560.213205	665.4000244
1560.725921	659.5999756
1561.238584	664.5999756
1561.751192	662.7999878
1562.263746	663.7999878
1562.776246	667.5999756
1563.288691	661.7999878
1563.801082	664.0
1564.313419	663.4000244
1564.825701	664.5999756
1565.337929	664.5999756
1565.850103	666.7999878
1566.362223	666.4000244
1566.874288	664.2000122
1567.386299	666.7999878
1567.898256	667.7999878
1568.410158	663.5999756
1568.922007	664.4000244
1569.4338	663.4000244
1569.94554	663.5999756
1570.457226	663.7999878
1570.968857	662.4000244
1571.480434	662.0
1571.991956	662.7999878
1572.503425	661.5999756
1573.014839	662.4000244
1573.526199	663.0
1574.037505	664.4000244
1574.548756	662.7999878
1575.059953	664.7999878
1576.59322	663.4000244
1577.1042	664.5999756
1577.615126	660.4000244
1578.125998	662.5999756
1578.636816	663.7999878
1579.14758	662.0
1579.658289	665.4000244
1580.168944	664.7999878
1580.679545	661.5999756
1581.190092	664.0
1581.700585	662.2000122
1582.211023	663.7999878
1582.721407	662.7999878
1583.231737	662.7999878
1583.742013	665.0
1584.252235	663.5999756
1584.762403	661.0
1585.272516	662.0
1585.782575	662.2000122
1586.292581	658.5999756
1586.802532	662.4000244
1587.312428	661.5999756
1587.822271	663.0
1588.33206	662.0
1588.841794	660.2000122
1589.351474	662.4000244
1589.8611	662.2000122
1590.370672	662.7999878
1590.88019	663.0
1591.389654	662.2000122
1591.899064	659.7999878
1592.408419	661.0
