1042.452273	705.0
1043.018714	697.4000244
1043.585098	697.0
1044.151424	699.7999878
1044.717692	696.0
1045.283903	693.0
1045.850056	692.4000244
1046.416151	696.4000244
1046.982188	690.5999756
1047.548167	690.7999878
1048.114089	693.7999878
1048.679953	692.7999878
1049.24576	693.2000122
1049.811509	692.5999756
1050.3772	690.4000244
1050.942833	692.4000244
1051.508408	687.0
1052.073926	690.2000122
1052.639387	688.4000244
1053.204789	689.5999756
1053.770134	690.2000122
1054.335421	686.5999756
1054.900651	689.5999756
1055.465823	689.5999756
1056.030937	688.4000244
1056.595993	680.7999878
1057.160992	686.2000122
1057.725934	685.7999878
1058.290817	686.4000244
1058.855643	685.2000122
1059.420411	684.0
1059.985122	683.4000244
1060.549775	686.2000122
1061.114371	686.5999756
1061.678908	686.7999878
1062.243389	682.4000244
1062.807811	684.4000244
1063.372176	685.4000244
1063.936483	683.7999878
1064.500733	685.0
1065.064925	682.7999878
1065.62906	685.2000122
1066.193137	681.7999878
1066.757156	688.2000122
1067.321118	682.7999878
1067.885022	687.0
1068.448869	682.7999878
1069.012658	685.0
1069.57639	682.7999878
1070.140063	691.2000122
1070.70368	685.0
1071.267239	678.7999878
1071.83074	683.7999878
1072.394184	684.0
1072.95757	685.2000122
1073.520899	684.0
1074.08417	687.0
1074.647383	684.2000122
1075.21054	686.2000122
1075.773638	680.4000244
1076.336679	684.7999878
1076.899663	681.4000244
1077.462589	684.5999756
1078.025457	683.2000122
1078.588268	681.2000122
1079.151022	687.0
1079.713718	682.5999756
1080.276356	682.7999878
1080.838937	683.7999878
1081.401461	685.5999756
1081.963927	683.5999756
1082.526336	684.4000244
1083.088687	683.0
1083.650981	684.7999878
1084.213217	683.2000122
1084.775396	684.2000122
1085.337517	679.0
1085.899581	684.5999756
1086.461587	685.5999756
1087.023536	686.2000122
1087.585428	688.4000244
1088.147262	679.0
1088.709039	682.7999878
1089.270758	684.7999878
1089.83242	679.2000122
1090.394024	681.4000244
1090.955571	684.2000122
1091.517061	678.7999878
1092.078493	683.4000244
1092.639868	686.0
1093.201185	680.0
1093.762445	683.7999878
1094.323648	682.7999878
1094.884793	680.7999878
1095.445881	680.5999756
1096.006911	680.2000122
1096.567884	683.0
1097.1288	688.5999756
1097.689659	686.4000244
1098.25046	681.0
1098.811203	681.4000244
1099.37189	682.0
1099.932518	684.5999756
1100.49309	682.7999878
1101.053604	683.0
1101.614061	680.2000122
1102.174461	684.4000244
1102.734803	680.2000122
1103.295088	677.5999756
1103.855316	681.2000122
1104.415486	682.2000122
1104.975599	681.5999756
1105.535655	682.4000244
1106.095653	683.7999878
1106.655594	682.2000122
1107.215478	685.5999756
1107.775305	684.2000122
1108.335074	683.2000122
1108.894786	685.0
1109.45444	685.0
1110.014038	685.0
1110.573578	683.2000122
1111.133061	682.2000122
1111.692486	678.2000122
1112.251854	684.0
1112.811165	688.4000244
1113.370419	685.4000244
1113.929616	681.5999756
1114.488755	685.4000244
1115.047837	681.0
1115.606862	684.7999878
1116.16583	682.2000122
1116.72474	682.7999878
1117.283593	685.7999878
1117.842389	683.2000122
1118.401128	682.5999756
1118.959809	679.4000244
1119.518433	681.4000244
1120.077	682.7999878
1120.63551	678.5999756
1121.193963	681.4000244
1121.752358	684.0
1122.310697	682.4000244
1122.868978	682.7999878
1123.427202	684.4000244
1123.985368	681.2000122
1124.543478	681.5999756
1125.10153	683.0
1125.659526	679.0
1126.217464	682.5999756
1126.775345	679.4000244
1127.333168	680.5999756
1127.890935	678.4000244
1128.448644	680.0
1129.006297	681.0
1129.563892	679.0
1130.12143	684.7999878
1130.678911	683.4000244
1131.236335	680.4000244
1131.793701	683.2000122
1132.351011	679.5999756
1132.908263	682.7999878
1133.465458	682.5999756
1134.022597	680.5999756
1134.579678	678.5999756
1135.136702	682.5999756
1135.693669	678.7999878
1136.250578	682.2000122
1136.807431	683.0
1137.364227	680.7999878
1137.920965	679.2000122
1138.477647	685.4000244
1139.034271	685.0
1139.590839	680.7999878
1140.147349	680.7999878
1140.703802	681.4000244
1141.260198	680.0
1141.816537	681.0
1142.37282	678.5999756
1142.929045	682.2000122
1143.485213	685.7999878
1144.041323	682.2000122
1144.597377	681.2000122
1145.153374	682.5999756
1145.709314	680.0
1146.265197	681.0
1146.821023	679.4000244
1147.376792	686.5999756
1147.932503	683.2000122
1148.488158	680.0
1149.043756	684.0
1149.599297	681.2000122
1150.154781	678.7999878
1150.710207	682.5999756
1151.265577	680.7999878
1151.82089	682.2000122
1152.376146	684.5999756
1152.931345	682.7999878
1153.486487	683.2000122
1154.041572	681.5999756
1154.5966	682.4000244
1155.151571	685.2000122
1155.706485	678.5999756
1156.261342	683.2000122
1156.816142	681.4000244
1157.370885	681.5999756
1157.925572	678.4000244
1158.480201	681.5999756
1159.034774	682.5999756
1159.589289	681.4000244
1160.143748	681.2000122
1160.698149	685.5999756
1161.252494	679.5999756
1161.806782	682.0
1162.361013	684.0
1162.915187	680.0
1163.469304	682.0
1164.023364	681.5999756
1164.577368	681.5999756
1165.131314	681.5999756
1165.685204	682.2000122
1166.239036	679.4000244
1166.792812	679.7999878
1167.346531	682.7999878
1167.900193	682.7999878
1168.453798	679.7999878
1169.007347	680.7999878
1169.560838	680.7999878
1170.114273	683.0
1170.66765	683.0
1171.220971	684.7999878
1171.774235	685.5999756
1172.327443	683.2000122
1172.880593	679.2000122
1173.433687	683.0
1173.986723	682.2000122
1174.539703	679.0
1175.092626	680.7999878
1175.645493	680.0
1176.198302	682.5999756
1176.751055	680.4000244
1177.303751	680.5999756
1177.85639	678.0
1178.408972	685.5999756
1178.961498	682.5999756
1179.513966	682.7999878
1180.066378	679.5999756
1180.618733	682.4000244
1181.171032	683.0
1181.723273	681.7999878
1182.275458	686.0
1182.827586	680.4000244
1183.379657	681.5999756
1183.931672	680.7999878
1184.48363	686.0
1185.035531	684.5999756
1185.587375	681.2000122
1186.139162	681.4000244
1186.690893	682.2000122
1187.242567	682.0
1187.794184	682.2000122
1188.345745	683.0
1188.897249	680.0
1189.448696	682.2000122
1190.000086	682.5999756
1190.55142	683.0
1191.102697	681.5999756
1191.653918	681.0
1192.205081	683.0
1192.756188	682.0
1193.307238	701.7999878
1193.858232	684.0
1194.409169	682.5999756
1194.960049	683.4000244
1195.510872	686.5999756
1196.061639	684.0
1196.612349	682.5999756
1197.163003	677.4000244
1197.713599	680.2000122
1198.264139	682.4000244
1198.814623	684.7999878
1199.36505	679.4000244
1199.91542	683.2000122
1200.465734	682.2000122
1201.01599	682.0
1201.566191	682.0
1202.116334	680.5999756
1202.666421	679.7999878
1203.216452	685.5999756
1203.766425	682.4000244
1204.316343	682.5999756
1204.866203	680.7999878
1205.416007	682.2000122
1205.965754	682.2000122
1206.515445	679.7999878
1207.065079	683.0
1207.614657	682.0
1208.164177	680.0
1208.713642	682.7999878
1209.26305	681.2000122
1209.812401	683.4000244
1210.361695	684.4000244
1210.910933	684.4000244
1211.460115	684.5999756
1212.00924	681.4000244
1212.558308	682.4000244
1213.10732	684.4000244
1213.656275	680.5999756
1214.205174	684.5999756
1214.754016	681.7999878
1215.302801	684.5999756
1215.85153	684.0
1216.400203	681.5999756
1216.948819	683.7999878
1217.497378	682.0
1218.045881	681.0
1218.594327	684.0
1219.142717	683.2000122
1219.691051	683.0
1220.239327	684.5999756
1220.787548	682.7999878
1221.335712	683.0
1221.883819	686.7999878
1222.43187	684.0
1222.979864	683.7999878
1223.527802	684.7999878
1224.075683	683.2000122
1224.623508	681.7999878
1225.171277	687.7999878
1225.718989	684.0
1226.266644	685.5999756
1226.814243	683.5999756
1227.361786	686.4000244
1227.909272	683.4000244
1228.456702	684.7999878
1229.004075	690.2000122
1229.551392	681.7999878
1230.098652	680.2000122
1230.645856	682.5999756
1231.193003	689.0
1231.740094	683.7999878
1232.287129	689.4000244
1232.834107	685.2000122
1233.381029	683.4000244
1233.927894	685.5999756
1234.474703	687.5999756
1235.021455	686.0
1235.568151	685.5999756
1236.114791	684.7999878
1236.661374	687.2000122
1237.207901	687.4000244
1237.754372	683.2000122
1238.300786	682.7999878
1238.847144	685.5999756
1239.393445	684.2000122
1239.93969	687.7999878
1240.485879	684.2000122
1241.032011	687.2000122
1241.578087	688.4000244
1242.124106	682.4000244
1242.67007	688.0
1243.215976	684.2000122
1243.761827	686.7999878
1244.307621	689.2000122
1244.853359	690.7999878
1245.39904	685.0
1245.944665	689.0
1246.490234	688.0
1247.035746	687.5999756
1247.581203	689.7999878
1248.126602	692.0
1248.671946	690.4000244
1249.217233	692.0
1249.762464	690.4000244
1250.307638	688.5999756
1250.852757	692.0
1251.397819	690.4000244
1251.942824	688.7999878
1252.487774	685.7999878
1253.032667	687.0
1253.577503	690.2000122
1254.122284	690.7999878
1254.667008	692.0
1255.211676	689.2000122
1255.756288	690.2000122
1256.300843	690.7999878
1256.845342	692.4000244
1257.389785	694.0
1257.934172	691.4000244
1258.478502	696.0
1259.022776	699.0
1259.566994	695.7999878
1260.111156	717.2000122
1260.655261	695.5999756
1261.199311	700.4000244
1261.743304	700.5999756
1262.28724	706.5999756
1262.831121	714.4000244
1263.374945	721.2000122
1263.918713	735.2000122
1264.462425	737.4000244
1265.006081	737.7999878
1265.54968	731.0
1266.093223	709.0
1266.636711	707.0
1267.180141	700.5999756
1267.723516	700.5999756
1268.266835	696.5999756
1268.810097	696.2000122
1269.353303	692.7999878
1269.896453	694.0
1270.439547	694.4000244
1270.982584	693.4000244
1271.525566	697.4000244
1272.068491	698.2000122
1272.61136	693.7999878
1273.154173	692.7999878
1273.69693	693.5999756
1274.239631	694.7999878
1274.782275	699.0
1275.324864	699.0
1275.867396	696.0
1276.409872	695.0
1276.952292	698.0
1277.494656	699.2000122
1278.036964	699.7999878
1278.579215	702.0
1279.121411	706.0
1279.66355	705.7999878
1280.205634	707.7999878
1280.747661	719.5999756
1281.289632	727.4000244
1281.831547	761.5999756
1282.373406	799.2000122
1282.915209	909.2000122
1283.456955	1065.0
1283.998646	1299.800049
1284.540281	1464.599976
1285.081859	1402.800049
1285.623381	1129.400024
1286.164848	884.4000244
1286.706258	772.4000244
1287.247612	739.7999878
1287.788911	722.2000122
1288.330153	715.2000122
1288.871339	710.4000244
1289.412469	697.2000122
1289.953543	704.5999756
1290.494561	701.2000122
1291.035523	700.0
1291.576428	697.7999878
1292.117278	695.7999878
1292.658072	696.0
1293.19881	696.0
1293.739492	697.7999878
1294.280118	695.7999878
1294.820687	696.2000122
1295.361201	699.4000244
1295.901659	693.4000244
1296.442061	692.0
1296.982406	693.2000122
1297.522696	691.0
1298.06293	689.7999878
1298.603108	691.2000122
1299.143229	693.2000122
1299.683295	692.5999756
1300.223305	688.5999756
1300.763259	687.7999878
1301.303157	693.2000122
1301.842999	688.4000244
1302.382785	690.5999756
1302.922515	694.0
1303.462189	693.2000122
1304.001807	691.4000244
1304.541369	693.2000122
1305.080875	690.4000244
1305.620326	691.4000244
1306.15972	687.5999756
1306.699058	692.7999878
1307.238341	685.0
1307.777567	691.2000122
1308.316738	689.5999756
1308.855853	692.5999756
1309.394912	691.2000122
1309.933915	688.7999878
1310.472862	689.2000122
1311.011753	690.4000244
1311.550588	685.2000122
1312.089367	691.2000122
1312.62809	689.5999756
1313.166758	686.0
1313.70537	692.0
1314.243925	689.5999756
1314.782425	688.5999756
1315.320869	691.0
1315.859257	692.2000122
1316.397589	684.4000244
1316.935866	687.2000122
1317.474086	690.2000122
1318.012251	689.7999878
1318.55036	686.7999878
1319.088413	688.2000122
1319.62641	691.0
1320.164351	689.0
1320.702236	682.4000244
1321.240066	689.5999756
1321.777839	686.4000244
1322.315557	688.0
1322.853219	692.0
1323.390826	687.4000244
1323.928376	693.5999756
1324.465871	685.2000122
1325.003309	688.5999756
1325.540692	688.7999878
1326.07802	692.7999878
1326.615291	687.2000122
1327.152506	684.5999756
1327.689666	690.0
1328.22677	687.2000122
1328.763818	685.2000122
1329.300811	690.5999756
1329.837747	683.5999756
1330.374628	687.4000244
1330.911453	687.7999878
1331.448222	689.2000122
1331.984936	684.7999878
1332.521594	686.4000244
1333.058196	687.2000122
1333.594742	687.7999878
1334.131232	689.7999878
1334.667667	689.2000122
1335.204046	688.0
1335.740369	687.4000244
1336.276637	691.2000122
1336.812848	689.0
1337.349004	686.7999878
1337.885105	686.5999756
1338.421149	685.5999756
1338.957138	686.5999756
1339.493071	687.5999756
1340.028949	685.5999756
1340.56477	686.5999756
1341.100536	686.4000244
1341.636246	688.2000122
1342.171901	684.7999878
1342.7075	686.7999878
1343.243043	689.0
1343.77853	686.7999878
1344.313962	688.0
1344.849338	685.4000244
1345.384659	687.4000244
1345.919923	689.4000244
1346.455133	688.7999878
1346.990286	686.4000244
1347.525384	686.4000244
1348.060426	688.2000122
1348.595412	688.5999756
1349.130343	688.5999756
1349.665218	688.0
1350.200037	687.5999756
1350.734801	683.5999756
1351.269509	690.5999756
1351.804162	689.7999878
1352.338758	686.4000244
1352.8733	689.0
1353.407785	690.4000244
1353.942215	688.5999756
1354.476589	690.2000122
1355.010908	688.5999756
1355.545171	691.0
1356.079379	689.4000244
1356.61353	687.5999756
1357.147627	689.0
1357.681667	690.4000244
1358.215652	689.2000122
1358.749582	689.4000244
1359.283456	691.2000122
1359.817274	688.0
1360.351037	690.2000122
1360.884744	689.7999878
1361.418395	688.2000122
1361.951991	690.4000244
1362.485531	693.2000122
1363.019016	687.0
1363.552445	689.2000122
1364.085819	691.4000244
1364.619137	691.2000122
1365.1524	689.2000122
1365.685607	695.4000244
1366.218758	693.7999878
1366.751854	692.4000244
1367.284894	691.4000244
1367.817879	688.7999878
1368.350808	693.4000244
1368.883682	693.4000244
1369.4165	693.5999756
1369.949263	715.7999878
1370.48197	720.2000122
1371.014622	708.0
1371.547218	697.7999878
1372.079758	694.4000244
1372.612244	693.5999756
1373.144673	695.0
1373.677047	695.7999878
1374.209366	694.2000122
1374.741629	693.0
1375.273836	697.2000122
1375.805989	699.4000244
1376.338085	698.4000244
1376.870126	693.7999878
1377.402112	697.5999756
1377.934042	699.7999878
1378.465917	695.7999878
1378.997736	693.5999756
1379.5295	699.4000244
1380.061208	700.0
1380.592861	698.5999756
1381.124459	707.4000244
1381.656	703.7999878
1382.187487	706.4000244
1382.718918	714.5999756
1383.250294	718.4000244
1383.781614	719.5999756
1384.312879	725.5999756
1384.844088	733.4000244
1385.375242	753.7999878
1385.90634	790.5999756
1386.437383	861.0
1386.968371	1007.400024
1387.499303	1422.199951
1388.03018	2121.199951
1388.561001	2329.600098
1389.091767	1663.199951
1389.622478	1047.199951
1390.153133	840.0
1390.683733	774.7999878
1391.214277	740.0
1391.744766	730.7999878
1392.2752	723.0
1392.805578	712.7999878
1393.335901	713.2000122
1393.866168	715.0
1394.396381	702.7999878
1394.926537	699.5999756
1395.456639	700.4000244
1395.986685	699.4000244
1396.516675	702.5999756
1397.046611	700.2000122
1397.576491	698.5999756
1398.106315	696.4000244
1398.636084	701.7999878
1399.165798	697.4000244
1399.695457	699.2000122
1400.22506	696.5999756
1400.754608	693.7999878
1401.284101	700.5999756
1401.813538	697.4000244
1402.34292	693.2000122
1402.872247	695.2000122
1403.401518	698.5999756
1403.930734	695.0
1404.459895	697.2000122
1404.989	704.0
1405.51805	699.4000244
1406.047045	705.0
1406.575984	700.0
1407.104869	704.0
1407.633697	715.0
1408.162471	731.4000244
1408.691189	747.5999756
1409.219852	768.5999756
1409.74846	793.5999756
1410.277013	789.5999756
1410.80551	754.0
1411.333952	733.4000244
1411.862339	704.2000122
1412.39067	706.2000122
1412.918946	696.7999878
1413.447167	695.7999878
1413.975333	689.4000244
1414.503444	696.2000122
1415.031499	691.5999756
1415.559499	703.2000122
1416.087444	690.0
1416.615333	689.0
1417.143167	692.7999878
1417.670947	684.5999756
1418.19867	688.5999756
1418.726339	687.0
1419.253952	688.4000244
1419.781511	689.2000122
1420.309014	691.4000244
1420.836461	687.5999756
1421.363854	685.2000122
1421.891191	684.0
1422.418474	685.2000122
1422.945701	689.7999878
1423.472872	685.7999878
1423.999989	687.0
1424.52705	688.2000122
1425.054057	689.4000244
1425.581008	687.5999756
1426.107904	688.0
1426.634745	689.2000122
1427.16153	686.5999756
1427.688261	689.0
1428.214936	684.7999878
1428.741556	686.0
1429.268121	685.4000244
1429.794631	685.4000244
1430.321085	688.0
1430.847485	686.7999878
1431.373829	685.5999756
1431.900118	685.4000244
1432.426353	687.0
1432.952532	683.2000122
1433.478655	683.2000122
1434.004724	687.0
1434.530738	685.0
1435.056696	685.2000122
1435.5826	684.5999756
1436.108448	686.7999878
1436.634241	683.7999878
1437.159979	682.0
1437.685662	682.4000244
1438.21129	682.2000122
1438.736863	685.4000244
1439.262381	681.7999878
1439.787843	682.5999756
1440.313251	681.4000244
1440.838603	682.0
1441.3639	682.5999756
1441.889143	683.4000244
1442.41433	685.4000244
1442.939462	683.0
1443.464539	682.4000244
1443.989561	684.7999878
1444.514528	683.2000122
1445.03944	684.0
1445.564297	682.0
1446.089099	684.0
1446.613846	684.0
1447.138537	685.4000244
1447.663174	685.0
1448.187756	684.7999878
1448.712282	682.4000244
1449.236754	684.2000122
1449.761171	683.4000244
1450.285532	682.5999756
1450.809839	686.0
1451.33409	682.0
1451.858287	680.7999878
1452.382428	682.4000244
1452.906515	678.7999878
1453.430546	680.2000122
1453.954523	683.7999878
1454.478444	681.2000122
1455.002311	681.0
1455.526123	678.2000122
1456.049879	682.4000244
1456.573581	682.4000244
1457.097227	678.5999756
1457.620819	682.5999756
1458.144356	682.4000244
1458.667837	681.4000244
1459.191264	683.2000122
1459.714636	681.7999878
1460.237952	681.2000122
1460.761214	681.7999878
1461.284421	683.2000122
1461.807573	686.0
1462.33067	679.2000122
1463.899632	689.7999878
1464.422509	683.7999878
1464.945331	681.7999878
1465.468099	683.7999878
1465.990811	680.4000244
1466.513469	677.5999756
1467.036071	681.0
1467.558619	678.5999756
1468.081112	684.2000122
1468.60355	681.2000122
1469.125933	681.7999878
1469.648261	678.5999756
1470.170534	684.4000244
1470.692752	677.0
1471.214916	680.2000122
1471.737024	683.5999756
1472.259078	681.2000122
1472.781077	677.0
1473.303021	679.4000244
1473.82491	679.2000122
1474.346744	680.0
1474.868523	681.4000244
1475.390248	681.4000244
1475.911917	678.2000122
1476.433532	679.4000244
1476.955092	674.4000244
1477.476597	680.4000244
1477.998047	680.0
1478.519442	681.4000244
1479.040783	683.0
1479.562068	678.5999756
1480.083299	679.7999878
1480.604475	680.4000244
1481.125596	679.0
1481.646663	678.4000244
1482.167674	679.7999878
1482.688631	679.0
1483.209533	679.7999878
1483.73038	675.4000244
1484.251172	679.5999756
1484.771909	680.7999878
1485.292592	679.4000244
1485.81322	680.2000122
1486.333793	680.7999878
1486.854311	679.5999756
1487.374775	679.2000122
1487.895183	681.5999756
1488.415537	679.4000244
1488.935836	678.0
1489.456081	680.0
1489.97627	680.0
1490.496405	678.5999756
1491.016485	678.5999756
1491.536511	679.5999756
1492.056481	679.4000244
1492.576397	680.4000244
1493.096258	677.2000122
1493.616064	678.5999756
1494.135816	679.5999756
1494.655513	681.2000122
1495.175155	680.7999878
1495.694742	677.5999756
1496.214274	681.5999756
1496.733752	679.4000244
1497.253175	678.2000122
1497.772544	677.5999756
1498.291858	679.7999878
1498.811116	677.7999878
1499.330321	676.2000122
1499.84947	686.0
1500.368565	681.2000122
1500.887605	679.4000244
1501.406591	677.4000244
1501.925521	681.4000244
1502.444397	681.4000244
1502.963219	676.4000244
1503.481985	682.5999756
1504.000697	674.5999756
1504.519355	681.2000122
1505.037957	680.7999878
1505.556505	680.7999878
1506.074999	677.2000122
1506.593437	675.2000122
1507.111821	674.2000122
1507.63015	679.4000244
1508.148425	675.0
1508.666645	678.5999756
1509.18481	677.4000244
1509.702921	677.5999756
1510.220977	680.0
1510.738979	685.4000244
1511.256925	681.0
1511.774817	677.0
1512.292655	679.2000122
1512.810438	677.0
1513.328166	681.5999756
1513.84584	680.5999756
1514.363459	677.0
1514.881023	679.7999878
1515.398533	681.0
1515.915988	677.4000244
1516.433389	679.7999878
1516.950734	677.5999756
1517.468026	676.4000244
1517.985263	678.5999756
1518.502445	679.5999756
1519.019572	678.4000244
1519.536645	679.7999878
1520.053664	676.5999756
1520.570628	679.7999878
1521.087537	681.4000244
1521.604392	676.0
1522.121192	675.4000244
1522.637937	677.4000244
1523.154628	678.2000122
1523.671265	679.5999756
1524.187847	677.7999878
1524.704374	679.2000122
1525.220847	681.5999756
1525.737265	694.4000244
1526.253629	712.4000244
1526.769938	694.0
1527.286192	681.0
1527.802392	681.2000122
1528.318538	676.4000244
1528.834629	682.4000244
1529.350666	680.2000122
1529.866648	677.2000122
1530.382575	675.7999878
1530.898448	676.2000122
1531.414266	682.4000244
1531.93003	679.4000244
1532.44574	677.0
1532.961395	680.0
1533.476995	679.2000122
1533.992541	680.7999878
1534.508033	678.7999878
1535.02347	680.0
1535.538852	677.0
1536.05418	676.5999756
1536.569454	678.7999878
1537.084673	681.5999756
1537.599837	677.2000122
1538.114947	676.7999878
1538.630003	678.5999756
1539.145004	680.4000244
1539.659951	680.2000122
1540.174843	678.4000244
1540.689681	679.5999756
1541.204465	677.2000122
1541.719194	676.7999878
1542.233868	677.4000244
1542.748488	677.5999756
1543.263054	678.4000244
1543.777565	678.4000244
1544.292022	679.0
1544.806424	679.2000122
1545.320772	681.5999756
1545.835066	678.0
1546.349305	680.5999756
1546.863489	681.2000122
1547.37762	681.4000244
1547.891696	680.0
1548.405717	680.7999878
1548.919684	681.2000122
1549.433597	679.5999756
1549.947455	681.4000244
1550.461259	681.2000122
1550.975009	678.5999756
1551.488704	681.0
1552.002345	682.5999756
1552.515931	680.4000244
1553.029463	679.7999878
1553.542941	679.2000122
1554.056364	681.7999878
1554.569733	679.0
1555.083048	677.4000244
1555.596308	679.5999756
1556.109514	680.2000122
1556.622665	681.2000122
1557.135762	681.4000244
1557.648805	682.5999756
1558.161794	677.5999756
1558.674728	679.7999878
1559.187608	682.2000122
1559.700433	682.4000244
1560.213205	681.2000122
1560.725921	679.5999756
1561.238584	679.4000244
1561.751192	681.2000122
1562.263746	678.5999756
1562.776246	681.4000244
1563.288691	679.4000244
1563.801082	679.5999756
1564.313419	682.7999878
1564.825701	684.7999878
1565.337929	683.5999756
1565.850103	686.5999756
1566.362223	682.5999756
1566.874288	685.2000122
1567.386299	682.5999756
1567.898256	680.2000122
1568.410158	685.5999756
1568.922007	682.4000244
1569.4338	677.0
1569.94554	682.5999756
1570.457226	680.7999878
1570.968857	680.7999878
1571.480434	680.4000244
1571.991956	679.7999878
1572.503425	683.0
1573.014839	679.0
1573.526199	677.0
1574.037505	675.7999878
1574.548756	681.4000244
1575.059953	680.5999756
1575.571096	680.5999756
1576.082185	677.4000244
1576.59322	681.0
1577.1042	680.2000122
1577.615126	682.4000244
1578.125998	677.0
1578.636816	678.4000244
1579.14758	680.2000122
1579.658289	678.0
1580.168944	680.2000122
1580.679545	678.7999878
1581.190092	679.5999756
1581.700585	679.7999878
1582.211023	676.7999878
1582.721407	676.7999878
1583.231737	677.7999878
1583.742013	678.4000244
1584.252235	679.0
1584.762403	677.2000122
1585.272516	678.5999756
1585.782575	680.2000122
1586.292581	678.5999756
1586.802532	677.0
1587.312428	678.2000122
1587.822271	678.5999756
1588.33206	678.4000244
1588.841794	679.4000244
1589.351474	678.5999756
1589.8611	680.0
1590.370672	681.5999756
1590.88019	682.5999756
1591.389654	680.2000122
1591.899064	680.7999878
1592.408419	679.7999878
