1042.452273	703.4000244
1043.018714	703.2000122
1043.585098	701.5999756
1044.151424	701.2000122
1044.717692	699.4000244
1045.283903	702.0
1045.850056	696.7999878
1046.416151	701.0
1046.982188	698.0
1047.548167	698.2000122
1048.114089	695.7999878
1048.679953	695.4000244
1049.24576	692.4000244
1049.811509	689.7999878
1050.3772	695.5999756
1050.942833	692.2000122
1051.508408	690.5999756
1052.073926	687.4000244
1052.639387	690.5999756
1053.204789	692.5999756
1053.770134	688.7999878
1054.335421	689.0
1054.900651	693.0
1055.465823	687.5999756
1056.030937	688.7999878
1056.595993	688.2000122
1057.160992	687.0
1057.725934	689.7999878
1058.290817	687.5999756
1058.855643	687.0
1059.420411	686.0
1059.985122	686.0
1060.549775	684.4000244
1061.114371	687.4000244
1061.678908	684.2000122
1062.243389	686.2000122
1062.807811	682.4000244
1063.372176	685.5999756
1063.936483	683.7999878
1064.500733	682.7999878
1065.064925	682.5999756
1065.62906	690.7999878
1066.757156	684.4000244
1067.321118	683.2000122
1067.885022	686.0
1068.448869	684.7999878
1069.012658	682.7999878
1069.57639	684.0
1070.140063	692.2000122
1070.70368	685.0
1071.267239	683.7999878
1071.83074	686.4000244
1072.394184	683.4000244
1072.95757	684.2000122
1073.520899	679.0
1074.08417	684.2000122
1074.647383	685.0
1075.21054	680.2000122
1075.773638	681.0
1076.336679	683.2000122
1076.899663	684.7999878
1077.462589	681.2000122
1078.025457	682.2000122
1078.588268	682.5999756
1079.151022	683.2000122
1079.713718	681.2000122
1080.276356	687.2000122
1080.838937	682.0
1081.401461	681.4000244
1081.963927	680.7999878
1082.526336	687.4000244
1083.088687	683.4000244
1083.650981	684.0
1084.213217	681.2000122
1084.775396	683.2000122
1085.337517	685.4000244
1085.899581	688.2000122
1086.461587	685.4000244
1087.023536	684.5999756
1087.585428	683.5999756
1088.147262	684.4000244
1088.709039	688.5999756
1089.270758	685.0
1089.83242	682.2000122
1090.394024	683.7999878
1090.955571	684.2000122
1091.517061	682.2000122
1092.078493	686.4000244
1092.639868	684.4000244
1093.201185	684.5999756
1093.762445	686.2000122
1094.323648	681.7999878
1094.884793	681.0
1095.445881	684.0
1096.006911	686.0
1096.567884	683.5999756
1097.1288	692.0
1097.689659	685.0
1098.25046	683.4000244
1098.811203	684.0
1099.37189	684.0
1099.932518	681.7999878
1100.49309	684.4000244
1101.053604	683.4000244
1101.614061	682.0
1102.174461	682.7999878
1102.734803	683.5999756
1103.295088	683.2000122
1103.855316	681.2000122
1104.415486	682.2000122
1104.975599	683.0
1105.535655	681.2000122
1106.095653	684.5999756
1106.655594	680.0
1107.215478	686.0
1107.775305	685.5999756
1108.335074	685.5999756
1108.894786	683.2000122
1109.45444	685.4000244
1110.014038	688.7999878
1110.573578	686.7999878
1111.133061	685.4000244
1111.692486	688.2000122
1112.251854	684.4000244
1112.811165	684.5999756
1113.370419	685.5999756
1113.929616	688.0
1114.488755	690.2000122
1115.047837	685.0
1115.606862	686.2000122
1116.16583	682.5999756
1116.72474	683.0
1117.283593	685.4000244
1117.842389	684.2000122
1118.401128	684.4000244
1118.959809	685.2000122
1119.518433	685.2000122
1120.077	680.2000122
1120.63551	682.0
1121.193963	684.5999756
1121.752358	683.0
1122.310697	679.2000122
1122.868978	683.7999878
1123.427202	680.2000122
1123.985368	682.7999878
1124.543478	680.5999756
1125.10153	683.4000244
1125.659526	679.2000122
1126.217464	684.4000244
1126.775345	681.0
1127.333168	684.2000122
1127.890935	681.5999756
1128.448644	680.4000244
1129.006297	682.0
1129.563892	678.2000122
1130.12143	679.4000244
1130.678911	681.4000244
1131.236335	683.5999756
1131.793701	678.7999878
1132.351011	681.4000244
1132.908263	683.5999756
1133.465458	680.7999878
1134.022597	680.0
1134.579678	683.2000122
1135.136702	682.5999756
1135.693669	684.2000122
1136.250578	681.4000244
1136.807431	683.5999756
1137.364227	677.7999878
1137.920965	682.5999756
1138.477647	685.0
1139.034271	680.0
1139.590839	681.2000122
1140.147349	683.4000244
1140.703802	681.7999878
1141.260198	680.2000122
1141.816537	681.7999878
1142.37282	679.5999756
1142.929045	683.4000244
1143.485213	684.0
1144.041323	681.2000122
1144.597377	682.5999756
1145.153374	682.0
1145.709314	679.2000122
1146.265197	679.0
1146.821023	683.2000122
1147.376792	682.2000122
1147.932503	681.7999878
1148.488158	679.4000244
1149.043756	680.7999878
1149.599297	682.0
1150.154781	682.7999878
1150.710207	681.4000244
1151.265577	682.4000244
1151.82089	680.5999756
1152.376146	683.0
1152.931345	686.2000122
1153.486487	683.7999878
1154.041572	679.7999878
1154.5966	680.4000244
1155.151571	682.7999878
1155.706485	682.2000122
1156.261342	682.2000122
1156.816142	682.7999878
1157.370885	680.0
1157.925572	680.4000244
1158.480201	683.2000122
1159.034774	682.5999756
1159.589289	679.4000244
1160.143748	681.2000122
1160.698149	685.2000122
1161.252494	683.2000122
1161.806782	682.7999878
1162.361013	683.0
1162.915187	681.4000244
1163.469304	678.5999756
1164.023364	685.7999878
1164.577368	683.4000244
1165.131314	686.2000122
1165.685204	682.2000122
1166.239036	676.5999756
1166.792812	680.0
1167.346531	681.0
1167.900193	681.0
1168.453798	679.5999756
1169.007347	681.0
1169.560838	687.2000122
1170.114273	676.4000244
1170.66765	679.7999878
1171.220971	682.5999756
1171.774235	681.4000244
1172.327443	681.7999878
1172.880593	681.0
1173.433687	681.2000122
1173.986723	677.4000244
1174.539703	685.7999878
1175.092626	678.4000244
1175.645493	678.5999756
1176.198302	679.2000122
1176.751055	681.5999756
1177.303751	681.2000122
1177.85639	680.2000122
1178.408972	682.2000122
1178.961498	684.7999878
1179.513966	680.0
1180.066378	684.0
1180.618733	682.2000122
1181.171032	684.0
1181.723273	683.5999756
1182.275458	683.2000122
1182.827586	680.7999878
1183.379657	680.5999756
1183.931672	681.5999756
1184.48363	683.4000244
1185.035531	686.2000122
1185.587375	685.0
1186.139162	684.5999756
1186.690893	680.0
1187.242567	684.2000122
1187.794184	683.0
1188.345745	682.4000244
1188.897249	680.7999878
1189.448696	683.5999756
1190.000086	682.4000244
1190.55142	684.4000244
1191.102697	682.4000244
1191.653918	682.7999878
1192.205081	680.0
1192.756188	682.5999756
1193.307238	697.2000122
1193.858232	678.7999878
1194.409169	680.0
1194.960049	681.0
1195.510872	680.0
1196.061639	679.4000244
1196.612349	683.0
1197.163003	680.5999756
1197.713599	683.0
1198.264139	681.0
1198.814623	680.4000244
1199.36505	680.7999878
1199.91542	677.0
1200.465734	678.2000122
1201.01599	677.5999756
1201.566191	679.7999878
1202.116334	681.7999878
1202.666421	679.7999878
1203.216452	683.4000244
1203.766425	680.4000244
1204.316343	679.7999878
1204.866203	680.4000244
1205.416007	681.4000244
1205.965754	681.7999878
1206.515445	678.7999878
1207.065079	684.5999756
1207.614657	680.5999756
1208.164177	682.2000122
1208.713642	681.4000244
1209.26305	682.0
1209.812401	683.5999756
1210.361695	680.7999878
1210.910933	686.4000244
1211.460115	683.7999878
1212.00924	682.5999756
1212.558308	681.0
1213.10732	685.5999756
1213.656275	680.4000244
1214.205174	680.5999756
1214.754016	683.7999878
1215.302801	680.5999756
1215.85153	681.2000122
1216.400203	684.5999756
1216.948819	684.0
1217.497378	685.0
1218.045881	682.0
1218.594327	684.7999878
1219.142717	682.4000244
1219.691051	685.2000122
1220.239327	681.2000122
1220.787548	685.4000244
1221.335712	682.7999878
1221.883819	683.7999878
1222.43187	684.5999756
1222.979864	686.0
1223.527802	687.7999878
1224.075683	684.5999756
1224.623508	685.2000122
1225.171277	684.4000244
1225.718989	681.2000122
1226.266644	683.0
1226.814243	683.4000244
1227.361786	682.2000122
1227.909272	683.2000122
1228.456702	685.0
1229.004075	684.2000122
1229.551392	682.0
1230.098652	686.0
1230.645856	684.4000244
1231.193003	683.7999878
1231.740094	688.4000244
1232.287129	683.2000122
1232.834107	686.2000122
1233.381029	685.0
1233.927894	685.5999756
1234.474703	682.0
1235.021455	682.4000244
1235.568151	685.0
1236.114791	686.5999756
1236.661374	681.5999756
1237.207901	683.4000244
1237.754372	682.7999878
1238.300786	684.0
1238.847144	686.4000244
1239.393445	684.5999756
1239.93969	686.7999878
1240.485879	680.2000122
1241.032011	687.0
1241.578087	684.4000244
1242.124106	683.4000244
1242.67007	683.4000244
1243.215976	687.5999756
1243.761827	683.2000122
1244.307621	684.2000122
1244.853359	683.5999756
1245.39904	685.0
1245.944665	687.0
1246.490234	687.5999756
1247.035746	684.5999756
1247.581203	681.7999878
1248.126602	685.4000244
1248.671946	681.7999878
1249.217233	684.5999756
1249.762464	686.7999878
1250.307638	685.0
1250.852757	687.0
1251.397819	686.7999878
1251.942824	684.5999756
1252.487774	685.7999878
1253.032667	684.4000244
1253.577503	684.0
1254.122284	687.5999756
1254.667008	687.0
1255.211676	684.0
1255.756288	688.4000244
1256.300843	687.7999878
1256.845342	686.0
1257.389785	687.4000244
1257.934172	687.4000244
1258.478502	691.4000244
1259.022776	692.2000122
1259.566994	692.4000244
1260.111156	712.0
1260.655261	693.0
1261.199311	693.5999756
1261.743304	696.0
1262.28724	702.4000244
1262.831121	707.2000122
1263.374945	713.4000244
1263.918713	715.2000122
1264.462425	719.4000244
1265.006081	716.0
1265.54968	708.2000122
1266.093223	701.7999878
1266.636711	694.0
1267.180141	689.7999878
1267.723516	695.5999756
1268.266835	690.7999878
1268.810097	688.4000244
1269.353303	690.2000122
1269.896453	688.0
1270.439547	688.4000244
1270.982584	691.0
1271.525566	689.0
1272.068491	692.7999878
1272.61136	687.5999756
1273.154173	690.7999878
1273.69693	685.5999756
1274.239631	688.0
1274.782275	687.0
1275.324864	689.0
1275.867396	690.2000122
1276.409872	692.4000244
1276.952292	688.0
1277.494656	692.2000122
1278.036964	691.7999878
1278.579215	695.0
1279.121411	699.4000244
1279.66355	696.5999756
1280.205634	701.0
1280.747661	709.0
1281.289632	723.7999878
1281.831547	749.4000244
1282.373406	798.5999756
1282.915209	891.2000122
1283.456955	1046.599976
1283.998646	1229.599976
1284.540281	1279.400024
1285.081859	1087.0
1285.623381	891.7999878
1286.164848	785.0
1286.706258	739.4000244
1287.247612	716.4000244
1287.788911	704.5999756
1288.330153	699.7999878
1288.871339	697.5999756
1289.412469	694.2000122
1289.953543	692.2000122
1290.494561	690.4000244
1291.035523	691.7999878
1291.576428	691.7999878
1292.117278	690.7999878
1292.658072	686.4000244
1293.19881	691.0
1293.739492	690.0
1294.280118	685.5999756
1294.820687	690.4000244
1295.361201	688.5999756
1295.901659	686.7999878
1296.442061	688.7999878
1296.982406	688.0
1297.522696	686.4000244
1298.06293	686.7999878
1298.603108	687.5999756
1299.143229	687.7999878
1299.683295	688.4000244
1300.223305	688.7999878
1300.763259	686.0
1301.303157	683.7999878
1301.842999	680.7999878
1302.382785	689.4000244
1302.922515	684.4000244
1303.462189	688.4000244
1304.001807	681.7999878
1304.541369	684.2000122
1305.080875	685.2000122
1305.620326	684.2000122
1306.15972	683.7999878
1306.699058	686.5999756
1307.238341	682.2000122
1307.777567	684.2000122
1308.316738	682.7999878
1308.855853	681.2000122
1309.394912	683.0
1309.933915	683.5999756
1310.472862	683.7999878
1311.011753	683.7999878
1311.550588	685.0
1312.089367	684.0
1312.62809	684.4000244
1313.166758	681.0
1313.70537	680.2000122
1314.243925	681.5999756
1314.782425	681.7999878
1315.320869	682.0
1315.859257	679.2000122
1316.397589	683.7999878
1316.935866	681.7999878
1317.474086	682.0
1318.012251	685.2000122
1318.55036	682.5999756
1319.088413	681.5999756
1319.62641	680.0
1320.164351	680.4000244
1320.702236	681.0
1321.240066	680.4000244
1321.777839	680.5999756
1322.315557	682.5999756
1322.853219	681.5999756
1323.390826	681.7999878
1323.928376	685.0
1324.465871	681.0
1325.003309	683.4000244
1325.540692	680.5999756
1326.07802	687.2000122
1326.615291	678.4000244
1327.152506	679.5999756
1327.689666	686.2000122
1328.22677	680.0
1328.763818	682.4000244
1329.300811	678.0
1329.837747	678.7999878
1330.374628	683.5999756
1330.911453	680.0
1331.448222	681.0
1331.984936	681.0
1332.521594	680.4000244
1333.058196	681.2000122
1333.594742	682.4000244
1334.131232	682.0
1334.667667	679.5999756
1335.204046	682.4000244
1335.740369	680.2000122
1336.276637	680.7999878
1336.812848	682.2000122
1337.349004	682.4000244
1337.885105	681.7999878
1338.421149	681.0
1338.957138	678.7999878
1339.493071	680.7999878
1340.028949	682.5999756
1340.56477	682.0
1341.100536	683.7999878
1341.636246	684.5999756
1342.171901	680.2000122
1342.7075	682.0
1343.243043	682.5999756
1343.77853	680.4000244
1344.313962	681.2000122
1344.849338	682.5999756
1345.384659	683.2000122
1345.919923	684.5999756
1346.455133	681.5999756
1346.990286	680.5999756
1347.525384	680.0
1348.060426	682.7999878
1348.595412	682.0
1349.130343	679.2000122
1349.665218	684.7999878
1350.200037	678.7999878
1350.734801	681.7999878
1351.269509	682.7999878
1351.804162	681.0
1352.338758	681.2000122
1352.8733	682.7999878
1353.407785	687.5999756
1353.942215	682.7999878
1354.476589	681.5999756
1355.010908	678.5999756
1355.545171	683.7999878
1356.079379	682.2000122
1356.61353	680.7999878
1357.147627	681.4000244
1357.681667	686.2000122
1358.215652	681.5999756
1358.749582	681.5999756
1359.283456	682.2000122
1359.817274	684.5999756
1360.351037	683.0
1360.884744	681.0
1361.418395	683.2000122
1361.951991	682.5999756
1362.485531	688.0
1363.019016	683.2000122
1363.552445	686.2000122
1364.085819	686.4000244
1364.619137	687.7999878
1365.1524	685.5999756
1365.685607	684.5999756
1366.218758	684.7999878
1366.751854	685.2000122
1367.284894	685.2000122
1367.817879	688.5999756
1368.350808	688.0
1368.883682	686.7999878
1369.4165	691.7999878
1369.949263	701.7999878
1370.48197	710.7999878
1371.014622	694.5999756
1371.547218	688.2000122
1372.079758	685.5999756
1372.612244	685.5999756
1373.144673	689.5999756
1373.677047	687.5999756
1374.209366	687.7999878
1374.741629	686.0
1375.273836	690.2000122
1375.805989	685.7999878
1376.338085	689.0
1376.870126	690.2000122
1377.402112	689.0
1377.934042	689.4000244
1378.465917	690.0
1378.997736	693.7999878
1379.5295	691.0
1380.061208	691.5999756
1380.592861	694.4000244
1381.124459	693.7999878
1381.656	694.7999878
1382.187487	701.7999878
1382.718918	696.5999756
1383.250294	704.0
1383.781614	704.7999878
1384.312879	717.2000122
1384.844088	727.0
1385.375242	737.7999878
1385.90634	776.2000122
1386.437383	839.5999756
1386.968371	987.2000122
1387.499303	1359.199951
1388.03018	1882.800049
1388.561001	1804.400024
1389.091767	1205.0
1389.622478	882.2000122
1390.153133	782.0
1390.683733	738.5999756
1391.214277	718.7999878
1391.744766	711.4000244
1392.2752	702.4000244
1392.805578	699.0
1393.335901	700.7999878
1393.866168	700.0
1394.396381	693.0
1394.926537	691.7999878
1395.456639	690.0
1395.986685	690.0
1396.516675	692.4000244
1397.046611	691.5999756
1397.576491	689.5999756
1398.106315	689.0
1398.636084	685.4000244
1399.165798	687.5999756
1399.695457	687.0
1400.22506	689.2000122
1400.754608	691.5999756
1401.284101	687.2000122
1401.813538	687.0
1402.34292	683.4000244
1402.872247	689.2000122
1403.401518	692.0
1403.930734	687.4000244
1404.459895	690.7999878
1404.989	690.5999756
1405.51805	689.4000244
1406.047045	693.2000122
1406.575984	694.0
1407.104869	699.5999756
1407.633697	697.5999756
1408.162471	711.0
1408.691189	725.0
1409.219852	741.0
1409.74846	745.4000244
1410.277013	739.4000244
1410.80551	718.2000122
1411.333952	703.5999756
1411.862339	696.0
1412.39067	689.5999756
1412.918946	686.7999878
1413.447167	684.5999756
1413.975333	684.5999756
1414.503444	687.4000244
1415.031499	683.5999756
1415.559499	695.0
1416.087444	681.4000244
1416.615333	685.0
1417.143167	684.0
1417.670947	682.0
1418.19867	679.2000122
1418.726339	683.0
1419.253952	679.7999878
1419.781511	682.2000122
1420.309014	680.4000244
1420.836461	681.4000244
1421.363854	685.5999756
1421.891191	680.5999756
1422.418474	684.0
1422.945701	683.2000122
1423.472872	683.2000122
1423.999989	681.0
1424.52705	683.0
1425.054057	683.7999878
1425.581008	684.7999878
1426.107904	683.7999878
1426.634745	682.5999756
1427.16153	678.0
1427.688261	681.2000122
1428.214936	684.0
1428.741556	679.5999756
1429.268121	676.7999878
1429.794631	680.4000244
1430.321085	678.7999878
1430.847485	677.4000244
1431.373829	681.4000244
1431.900118	677.5999756
1432.426353	678.0
1432.952532	677.7999878
1433.478655	676.4000244
1434.004724	676.4000244
1434.530738	680.0
1435.056696	681.4000244
1435.5826	679.5999756
1436.108448	679.0
1436.634241	679.2000122
1437.159979	679.2000122
1437.685662	677.4000244
1438.21129	679.5999756
1438.736863	679.5999756
1439.262381	679.2000122
1439.787843	680.5999756
1440.313251	679.2000122
1440.838603	679.5999756
1441.3639	680.5999756
1441.889143	679.0
1442.41433	677.7999878
1442.939462	680.4000244
1443.464539	678.5999756
1443.989561	675.2000122
1444.514528	677.5999756
1445.03944	680.0
1445.564297	679.0
1446.089099	678.2000122
1446.613846	677.5999756
1447.138537	680.0
1447.663174	680.7999878
1448.187756	681.0
1448.712282	678.0
1449.236754	678.0
1449.761171	675.2000122
1450.285532	676.2000122
1450.809839	682.0
1451.33409	679.5999756
1451.858287	675.0
1452.382428	678.7999878
1452.906515	678.2000122
1453.430546	676.2000122
1453.954523	679.4000244
1454.478444	679.4000244
1455.002311	678.0
1455.526123	678.4000244
1456.049879	679.4000244
1456.573581	680.7999878
1457.097227	680.0
1457.620819	678.2000122
1458.144356	679.2000122
1458.667837	679.0
1459.191264	679.0
1459.714636	680.4000244
1460.237952	681.5999756
1460.761214	679.2000122
1461.284421	683.4000244
1461.807573	680.2000122
1462.33067	679.4000244
1462.853712	699.5999756
1463.899632	689.2000122
1464.422509	679.5999756
1464.945331	679.0
1465.468099	677.5999756
1465.990811	677.7999878
1466.513469	680.0
1467.036071	680.4000244
1467.558619	675.0
1468.081112	677.7999878
1468.60355	677.4000244
1469.125933	677.4000244
1469.648261	677.0
1470.170534	675.7999878
1470.692752	677.7999878
1471.214916	679.2000122
1471.737024	675.2000122
1472.259078	676.7999878
1472.781077	675.0
1473.303021	676.5999756
1473.82491	679.0
1474.346744	675.0
1474.868523	678.7999878
1475.390248	676.2000122
1475.911917	676.5999756
1476.433532	677.7999878
1476.955092	675.7999878
1477.476597	676.0
1477.998047	675.2000122
1478.519442	675.5999756
1479.040783	675.7999878
1479.562068	680.0
1480.083299	674.4000244
1480.604475	677.2000122
1481.125596	678.0
1481.646663	676.4000244
1482.167674	679.5999756
1482.688631	676.0
1483.209533	674.5999756
1483.73038	676.0
1484.251172	674.4000244
1484.771909	676.7999878
1485.292592	675.0
1485.81322	675.5999756
1486.333793	674.4000244
1486.854311	674.7999878
1487.374775	676.0
1487.895183	677.0
1488.415537	674.2000122
1488.935836	675.2000122
1489.456081	674.5999756
1489.97627	676.5999756
1490.496405	674.7999878
1491.016485	677.7999878
1491.536511	674.4000244
1492.056481	673.0
1492.576397	672.7999878
1493.096258	677.2000122
1493.616064	672.4000244
1494.135816	675.7999878
1494.655513	675.4000244
1495.175155	675.5999756
1495.694742	674.4000244
1496.214274	672.7999878
1496.733752	676.0
1497.253175	673.5999756
1497.772544	671.5999756
1498.291858	675.2000122
1498.811116	675.2000122
1499.330321	675.2000122
1499.84947	681.0
1500.368565	673.7999878
1500.887605	674.0
1501.406591	674.4000244
1501.925521	676.7999878
1502.444397	670.7999878
1502.963219	674.2000122
1503.481985	673.0
1504.000697	673.7999878
1504.519355	674.0
1505.037957	675.0
1505.556505	674.7999878
1506.074999	675.5999756
1506.593437	673.5999756
1507.111821	673.0
1507.63015	672.5999756
1508.148425	672.2000122
1508.666645	672.7999878
1509.18481	676.2000122
1509.702921	674.7999878
1510.220977	674.4000244
1510.738979	682.4000244
1511.256925	674.0
1511.774817	675.7999878
1512.292655	676.7999878
1512.810438	675.2000122
1513.328166	675.5999756
1513.84584	674.0
1514.363459	673.2000122
1514.881023	669.5999756
1515.398533	678.4000244
1515.915988	675.0
1516.433389	678.4000244
1516.950734	673.5999756
1517.468026	674.0
1517.985263	671.4000244
1518.502445	676.7999878
1519.019572	673.2000122
1519.536645	675.7999878
1520.053664	672.0
1520.570628	674.7999878
1521.087537	673.7999878
1521.604392	674.0
1522.121192	674.7999878
1522.637937	672.5999756
1523.154628	677.0
1523.671265	675.2000122
1524.187847	675.2000122
1524.704374	675.0
1525.220847	675.5999756
1525.737265	684.0
1526.253629	707.4000244
1526.769938	689.0
1527.286192	676.0
1527.802392	673.4000244
1528.318538	672.4000244
1528.834629	677.4000244
1529.350666	674.5999756
1529.866648	674.7999878
1530.382575	674.0
1530.898448	675.2000122
1531.414266	676.2000122
1531.93003	671.4000244
1532.44574	675.0
1532.961395	673.0
1533.476995	673.4000244
1533.992541	676.0
1534.508033	672.7999878
1535.02347	671.7999878
1535.538852	672.0
1536.05418	675.0
1536.569454	673.4000244
1537.084673	672.7999878
1537.599837	675.2000122
1538.114947	674.7999878
1538.630003	676.4000244
1539.145004	672.2000122
1539.659951	672.4000244
1540.174843	672.2000122
1540.689681	673.5999756
1541.204465	671.2000122
1541.719194	672.5999756
1542.233868	676.4000244
1542.748488	672.2000122
1543.263054	674.5999756
1543.777565	672.5999756
1544.292022	676.5999756
1544.806424	676.2000122
1545.320772	674.2000122
1545.835066	674.7999878
1546.349305	674.0
1546.863489	674.7999878
1547.37762	675.2000122
1547.891696	677.5999756
1548.405717	674.7999878
1548.919684	671.2000122
1549.433597	673.5999756
1549.947455	673.5999756
1550.461259	675.4000244
1550.975009	674.4000244
1551.488704	676.7999878
1552.002345	674.4000244
1552.515931	674.0
1553.029463	674.7999878
1553.542941	675.2000122
1554.056364	674.4000244
1554.569733	678.0
1555.083048	675.5999756
1555.596308	673.5999756
1556.109514	673.5999756
1556.622665	674.4000244
1557.135762	672.4000244
1557.648805	675.7999878
1558.161794	675.7999878
1558.674728	675.0
1559.187608	677.2000122
1559.700433	676.4000244
1560.213205	673.2000122
1560.725921	676.4000244
1561.238584	677.7999878
1561.751192	675.7999878
1562.263746	675.2000122
1562.776246	676.4000244
1563.288691	677.0
1563.801082	676.4000244
1564.313419	678.2000122
1564.825701	678.5999756
1565.337929	676.0
1565.850103	679.2000122
1566.362223	679.5999756
1566.874288	678.2000122
1567.386299	677.2000122
1567.898256	678.7999878
1568.410158	677.5999756
1568.922007	675.2000122
1569.4338	676.5999756
1569.94554	679.2000122
1570.457226	677.0
1570.968857	676.2000122
1571.480434	674.7999878
1571.991956	675.0
1572.503425	673.7999878
1573.014839	673.7999878
1573.526199	675.5999756
1574.037505	674.5999756
1574.548756	677.0
1575.059953	673.4000244
1575.571096	672.2000122
1576.082185	671.7999878
1576.59322	675.7999878
1577.1042	677.0
1577.615126	674.2000122
1578.125998	674.2000122
1578.636816	675.5999756
1579.14758	676.4000244
1579.658289	674.0
1580.168944	675.2000122
1580.679545	674.5999756
1581.190092	677.5999756
1581.700585	674.5999756
1582.211023	672.7999878
1582.721407	679.2000122
1583.231737	675.0
1583.742013	675.4000244
1584.252235	673.4000244
1584.762403	675.4000244
1585.272516	676.4000244
1585.782575	675.4000244
1586.292581	675.7999878
1586.802532	675.2000122
1587.312428	672.7999878
1587.822271	672.5999756
1588.33206	669.5999756
1588.841794	674.2000122
1589.351474	671.5999756
1589.8611	673.4000244
1590.370672	674.0
1590.88019	672.0
1591.389654	675.2000122
1591.899064	674.4000244
1592.408419	675.0
