1042.452273	697.4000244
1043.018714	700.2000122
1043.585098	699.5999756
1044.151424	696.2000122
1044.717692	693.7999878
1045.283903	694.5999756
1045.850056	696.4000244
1046.416151	691.7999878
1046.982188	690.2000122
1047.548167	689.5999756
1048.114089	688.2000122
1048.679953	689.2000122
1049.24576	691.5999756
1049.811509	688.0
1050.3772	688.7999878
1050.942833	688.2000122
1051.508408	686.7999878
1052.073926	688.7999878
1052.639387	685.0
1053.204789	683.0
1053.770134	683.0
1054.335421	681.4000244
1054.900651	685.2000122
1055.465823	680.7999878
1056.030937	680.7999878
1056.595993	680.5999756
1057.160992	682.7999878
1057.725934	685.0
1058.290817	679.7999878
1058.855643	679.2000122
1059.420411	679.5999756
1059.985122	682.2000122
1060.549775	680.5999756
1061.114371	680.4000244
1061.678908	678.4000244
1062.243389	681.0
1062.807811	682.4000244
1063.372176	679.4000244
1063.936483	679.5999756
1064.500733	679.7999878
1065.064925	680.0
1065.62906	680.5999756
1066.193137	679.2000122
1066.757156	679.2000122
1067.321118	679.4000244
1067.885022	678.0
1068.448869	677.0
1069.012658	681.5999756
1069.57639	679.7999878
1070.140063	686.4000244
1070.70368	677.5999756
1071.267239	679.7999878
1071.83074	678.2000122
1072.394184	680.4000244
1072.95757	677.2000122
1073.520899	678.2000122
1074.08417	682.2000122
1074.647383	679.5999756
1075.21054	676.4000244
1075.773638	679.5999756
1076.336679	680.5999756
1076.899663	679.0
1077.462589	678.2000122
1078.025457	679.4000244
1078.588268	681.2000122
1079.151022	675.4000244
1079.713718	675.7999878
1080.276356	678.0
1080.838937	677.7999878
1081.401461	676.4000244
1081.963927	678.0
1082.526336	679.5999756
1083.088687	679.2000122
1083.650981	678.7999878
1084.213217	678.7999878
1084.775396	676.7999878
1085.337517	676.4000244
1085.899581	676.7999878
1086.461587	680.5999756
1087.023536	681.4000244
1087.585428	679.5999756
1088.147262	678.2000122
1088.709039	678.0
1089.270758	677.2000122
1089.83242	675.2000122
1090.394024	677.0
1090.955571	678.4000244
1091.517061	676.0
1092.078493	677.7999878
1092.639868	677.2000122
1093.201185	680.7999878
1093.762445	680.0
1094.323648	677.4000244
1094.884793	680.0
1095.445881	680.5999756
1096.006911	679.5999756
1096.567884	677.5999756
1097.1288	684.7999878
1097.689659	676.5999756
1098.25046	678.7999878
1098.811203	675.5999756
1099.37189	681.7999878
1099.932518	678.4000244
1100.49309	677.5999756
1101.053604	676.4000244
1101.614061	676.7999878
1102.174461	676.7999878
1102.734803	672.5999756
1103.295088	679.2000122
1103.855316	679.2000122
1104.415486	680.0
1104.975599	679.2000122
1105.535655	680.4000244
1106.095653	678.7999878
1106.655594	679.4000244
1107.215478	681.7999878
1107.775305	674.7999878
1108.335074	680.5999756
1108.894786	680.4000244
1109.45444	680.5999756
1110.014038	681.2000122
1110.573578	680.7999878
1111.133061	679.7999878
1111.692486	683.0
1112.251854	684.5999756
1112.811165	685.4000244
1113.370419	684.7999878
1113.929616	680.2000122
1114.488755	682.2000122
1115.047837	680.0
1115.606862	680.0
1116.16583	682.5999756
1116.72474	682.4000244
1117.283593	682.2000122
1117.842389	678.7999878
1118.401128	678.4000244
1118.959809	682.4000244
1119.518433	676.5999756
1120.077	681.5999756
1120.63551	675.2000122
1121.193963	678.7999878
1121.752358	677.2000122
1122.310697	676.4000244
1122.868978	676.4000244
1123.427202	676.5999756
1123.985368	678.5999756
1124.543478	676.4000244
1125.10153	681.2000122
1125.659526	675.7999878
1126.217464	675.0
1126.775345	677.7999878
1127.333168	676.7999878
1127.890935	677.4000244
1128.448644	678.4000244
1129.006297	675.7999878
1129.563892	680.2000122
1130.12143	677.2000122
1130.678911	676.2000122
1131.236335	677.2000122
1131.793701	677.5999756
1132.351011	675.2000122
1132.908263	682.0
1133.465458	677.0
1134.022597	677.7999878
1134.579678	675.0
1135.136702	675.4000244
1135.693669	675.2000122
1136.250578	676.5999756
1136.807431	675.5999756
1137.364227	674.2000122
1137.920965	676.7999878
1138.477647	678.5999756
1139.034271	676.2000122
1139.590839	673.5999756
1140.147349	674.5999756
1140.703802	675.0
1141.260198	675.7999878
1141.816537	677.2000122
1142.37282	676.5999756
1142.929045	677.4000244
1143.485213	679.7999878
1144.041323	675.2000122
1144.597377	679.5999756
1145.153374	678.7999878
1145.709314	677.0
1146.265197	676.7999878
1146.821023	680.0
1147.376792	677.4000244
1147.932503	678.4000244
1148.488158	675.5999756
1149.043756	674.0
1149.599297	675.7999878
1150.154781	677.2000122
1150.710207	678.0
1151.265577	678.4000244
1151.82089	677.4000244
1152.376146	676.2000122
1152.931345	677.5999756
1153.486487	676.5999756
1154.041572	678.0
1154.5966	675.7999878
1155.151571	675.2000122
1155.706485	673.4000244
1156.261342	676.7999878
1156.816142	676.7999878
1157.370885	677.0
1157.925572	679.0
1158.480201	676.2000122
1159.034774	680.0
1159.589289	676.7999878
1160.143748	677.4000244
1160.698149	677.7999878
1161.252494	675.2000122
1161.806782	678.2000122
1162.361013	677.2000122
1162.915187	680.4000244
1163.469304	673.4000244
1164.023364	675.5999756
1164.577368	675.4000244
1165.131314	676.4000244
1165.685204	676.5999756
1166.239036	679.2000122
1166.792812	673.4000244
1167.346531	675.7999878
1167.900193	677.0
1168.453798	679.0
1169.007347	676.5999756
1169.560838	676.2000122
1170.114273	674.4000244
1170.66765	676.4000244
1171.220971	675.5999756
1171.774235	675.2000122
1172.327443	675.0
1172.880593	677.4000244
1173.433687	672.2000122
1173.986723	677.4000244
1174.539703	676.4000244
1175.092626	675.0
1175.645493	676.2000122
1176.198302	675.4000244
1176.751055	677.7999878
1177.303751	672.7999878
1177.85639	678.2000122
1178.408972	678.5999756
1178.961498	678.5999756
1179.513966	677.2000122
1180.066378	675.5999756
1180.618733	675.4000244
1181.171032	680.7999878
1181.723273	676.0
1182.275458	678.0
1182.827586	678.2000122
1183.379657	678.5999756
1183.931672	677.4000244
1184.48363	678.4000244
1185.035531	680.5999756
1185.587375	681.4000244
1186.139162	677.5999756
1186.690893	678.4000244
1187.242567	679.5999756
1187.794184	681.2000122
1188.345745	679.7999878
1188.897249	679.0
1189.448696	676.4000244
1190.000086	679.4000244
1190.55142	679.2000122
1191.102697	677.7999878
1191.653918	675.5999756
1192.205081	677.7999878
1192.756188	676.5999756
1193.307238	698.0
1193.858232	676.4000244
1194.409169	675.7999878
1194.960049	675.2000122
1195.510872	676.7999878
1196.061639	676.7999878
1196.612349	678.5999756
1197.163003	675.5999756
1197.713599	678.2000122
1198.264139	677.2000122
1198.814623	675.5999756
1199.36505	678.7999878
1199.91542	673.5999756
1200.465734	676.0
1201.01599	674.7999878
1201.566191	676.0
1202.116334	677.2000122
1202.666421	681.0
1203.216452	676.0
1203.766425	677.2000122
1204.316343	674.2000122
1204.866203	677.2000122
1205.416007	673.0
1205.965754	678.2000122
1206.515445	678.5999756
1207.065079	677.4000244
1207.614657	677.7999878
1208.164177	674.2000122
1208.713642	676.0
1209.26305	675.5999756
1209.812401	676.7999878
1210.361695	677.5999756
1210.910933	678.0
1211.460115	677.4000244
1212.00924	679.5999756
1212.558308	680.2000122
1213.10732	677.7999878
1213.656275	674.5999756
1214.205174	677.0
1214.754016	676.7999878
1215.302801	676.7999878
1215.85153	676.7999878
1216.400203	679.2000122
1216.948819	673.4000244
1217.497378	680.2000122
1218.045881	675.5999756
1218.594327	679.7999878
1219.142717	677.7999878
1219.691051	680.2000122
1220.239327	676.7999878
1220.787548	678.5999756
1221.335712	675.7999878
1221.883819	678.2000122
1222.43187	679.7999878
1222.979864	679.2000122
1223.527802	680.7999878
1224.075683	679.7999878
1224.623508	678.7999878
1225.171277	680.4000244
1225.718989	679.4000244
1226.266644	680.4000244
1226.814243	677.7999878
1227.361786	680.2000122
1227.909272	679.0
1228.456702	677.2000122
1229.004075	678.4000244
1229.551392	679.7999878
1230.098652	682.0
1230.645856	680.2000122
1231.193003	679.5999756
1231.740094	683.5999756
1232.287129	682.2000122
1232.834107	681.4000244
1233.381029	679.7999878
1233.927894	681.2000122
1234.474703	682.0
1235.021455	677.7999878
1235.568151	679.4000244
1236.114791	677.2000122
1236.661374	675.4000244
1237.207901	679.4000244
1237.754372	679.5999756
1238.300786	680.2000122
1238.847144	679.2000122
1239.393445	683.5999756
1239.93969	683.2000122
1240.485879	682.2000122
1241.032011	681.0
1241.578087	681.2000122
1242.124106	681.0
1242.67007	681.5999756
1243.215976	677.7999878
1243.761827	676.7999878
1244.307621	680.0
1244.853359	683.0
1245.39904	681.7999878
1245.944665	681.7999878
1246.490234	681.4000244
1247.035746	682.4000244
1247.581203	679.0
1248.126602	684.2000122
1248.671946	684.0
1249.217233	683.7999878
1249.762464	682.2000122
1250.307638	680.4000244
1250.852757	682.0
1251.397819	682.2000122
1251.942824	682.0
1252.487774	683.5999756
1253.032667	682.4000244
1253.577503	680.0
1254.122284	680.2000122
1254.667008	680.4000244
1255.211676	681.7999878
1255.756288	682.4000244
1256.300843	680.0
1256.845342	682.0
1257.389785	682.2000122
1257.934172	686.0
1258.478502	687.5999756
1259.022776	690.5999756
1259.566994	689.4000244
1260.111156	707.2000122
1260.655261	689.2000122
1261.199311	692.7999878
1261.743304	696.2000122
1262.28724	700.0
1262.831121	706.7999878
1263.374945	708.7999878
1263.918713	722.7999878
1264.462425	718.4000244
1265.006081	717.5999756
1265.54968	704.0
1266.093223	698.5999756
1266.636711	694.0
1267.180141	687.4000244
1267.723516	687.2000122
1268.266835	692.0
1268.810097	687.4000244
1269.353303	685.2000122
1269.896453	685.7999878
1270.439547	687.7999878
1270.982584	687.7999878
1271.525566	687.0
1272.068491	684.0
1272.61136	688.0
1273.154173	686.0
1273.69693	687.0
1274.239631	687.7999878
1274.782275	688.2000122
1275.324864	689.4000244
1275.867396	686.7999878
1276.409872	687.0
1276.952292	686.2000122
1277.494656	689.4000244
1278.036964	688.5999756
1278.579215	690.7999878
1279.121411	692.5999756
1279.66355	693.4000244
1280.205634	704.7999878
1280.747661	711.0
1281.289632	726.5999756
1281.831547	763.0
1282.373406	822.5999756
1282.915209	944.7999878
1283.456955	1122.400024
1283.998646	1315.199951
1284.540281	1307.599976
1285.081859	1098.800049
1285.623381	893.2000122
1286.164848	783.0
1286.706258	748.0
1287.247612	720.2000122
1287.788911	700.5999756
1288.330153	699.4000244
1288.871339	695.4000244
1289.412469	693.2000122
1289.953543	691.4000244
1290.494561	692.2000122
1291.035523	692.4000244
1291.576428	689.4000244
1292.117278	689.7999878
1292.658072	686.4000244
1293.19881	689.7999878
1293.739492	687.7999878
1294.280118	686.5999756
1294.820687	687.5999756
1295.361201	685.2000122
1295.901659	686.0
1296.442061	685.0
1296.982406	687.0
1297.522696	683.7999878
1298.06293	685.5999756
1298.603108	685.7999878
1299.143229	685.7999878
1299.683295	684.5999756
1300.223305	685.4000244
1300.763259	686.5999756
1301.303157	685.4000244
1301.842999	685.7999878
1302.382785	679.4000244
1302.922515	683.4000244
1303.462189	680.7999878
1304.001807	685.2000122
1304.541369	686.2000122
1305.080875	678.4000244
1305.620326	680.2000122
1306.15972	680.5999756
1306.699058	680.2000122
1307.238341	679.7999878
1307.777567	683.0
1308.316738	680.7999878
1308.855853	680.5999756
1309.394912	681.2000122
1309.933915	680.0
1310.472862	681.7999878
1311.011753	679.4000244
1311.550588	681.4000244
1312.089367	682.2000122
1312.62809	679.7999878
1313.166758	679.5999756
1313.70537	680.2000122
1314.243925	684.5999756
1314.782425	678.5999756
1315.320869	682.2000122
1315.859257	681.2000122
1316.397589	680.7999878
1316.935866	681.2000122
1317.474086	681.4000244
1318.012251	680.4000244
1318.55036	680.0
1319.088413	674.7999878
1319.62641	678.4000244
1320.164351	677.7999878
1320.702236	676.2000122
1321.240066	679.7999878
1321.777839	680.2000122
1322.315557	682.0
1322.853219	677.4000244
1323.390826	683.4000244
1323.928376	682.5999756
1324.465871	677.4000244
1325.003309	679.2000122
1325.540692	678.7999878
1326.07802	677.5999756
1326.615291	683.2000122
1327.152506	679.4000244
1327.689666	679.0
1328.22677	679.5999756
1328.763818	678.5999756
1329.300811	679.2000122
1329.837747	676.4000244
1330.374628	678.2000122
1330.911453	679.0
1331.448222	678.0
1331.984936	678.4000244
1332.521594	679.2000122
1333.058196	674.4000244
1333.594742	678.5999756
1334.131232	677.0
1334.667667	678.4000244
1335.204046	680.0
1335.740369	676.5999756
1336.276637	681.0
1336.812848	679.0
1337.349004	679.0
1337.885105	677.7999878
1338.421149	681.0
1338.957138	680.4000244
1339.493071	677.5999756
1340.028949	678.0
1340.56477	679.4000244
1341.100536	681.5999756
1341.636246	681.2000122
1342.171901	678.0
1342.7075	679.4000244
1343.243043	679.7999878
1343.77853	680.4000244
1344.313962	680.2000122
1344.849338	681.0
1345.384659	679.4000244
1345.919923	680.2000122
1346.455133	679.0
1346.990286	679.4000244
1347.525384	678.2000122
1348.060426	676.7999878
1348.595412	680.4000244
1349.130343	679.4000244
1349.665218	678.7999878
1350.200037	684.0
1350.734801	676.0
1351.269509	679.5999756
1351.804162	682.2000122
1352.338758	680.0
1352.8733	677.5999756
1353.407785	682.0
1353.942215	680.0
1354.476589	680.0
1355.010908	677.2000122
1355.545171	678.0
1356.079379	678.2000122
1356.61353	681.2000122
1357.147627	681.7999878
1357.681667	681.5999756
1358.215652	680.2000122
1358.749582	681.4000244
1359.283456	681.0
1359.817274	681.5999756
1360.351037	678.5999756
1360.884744	681.0
1361.418395	678.4000244
1361.951991	680.4000244
1362.485531	682.0
1363.019016	681.4000244
1363.552445	682.2000122
1364.085819	682.4000244
1364.619137	679.5999756
1365.1524	686.4000244
1365.685607	684.5999756
1366.218758	687.7999878
1366.751854	682.0
1367.284894	681.0
1367.817879	686.5999756
1368.350808	682.7999878
1368.883682	687.7999878
1369.4165	691.5999756
1369.949263	707.0
1370.48197	705.0
1371.014622	688.5999756
1371.547218	687.0
1372.079758	682.0
1372.612244	688.2000122
1373.144673	683.7999878
1373.677047	684.5999756
1374.209366	681.7999878
1374.741629	686.2000122
1375.273836	686.4000244
1375.805989	688.0
1376.338085	688.7999878
1376.870126	685.7999878
1377.402112	685.7999878
1377.934042	687.7999878
1378.465917	686.7999878
1378.997736	688.4000244
1379.5295	689.7999878
1380.061208	690.2000122
1380.592861	690.2000122
1381.124459	692.4000244
1381.656	695.0
1382.187487	696.2000122
1382.718918	701.0
1383.250294	701.5999756
1383.781614	705.5999756
1384.312879	717.2000122
1384.844088	725.2000122
1385.375242	744.5999756
1385.90634	784.7999878
1386.437383	860.7999878
1386.968371	1043.800049
1387.499303	1491.400024
1388.03018	2045.0
1388.561001	1854.800049
1389.091767	1220.599976
1389.622478	898.4000244
1390.153133	788.4000244
1390.683733	742.0
1391.214277	723.7999878
1391.744766	706.2000122
1392.2752	706.5999756
1392.805578	697.5999756
1393.335901	691.7999878
1393.866168	696.5999756
1394.396381	691.2000122
1394.926537	691.2000122
1395.456639	691.4000244
1395.986685	692.5999756
1396.516675	687.2000122
1397.046611	684.7999878
1397.576491	685.4000244
1398.106315	688.0
1398.636084	686.4000244
1399.165798	685.5999756
1399.695457	687.0
1400.22506	689.0
1400.754608	683.7999878
1401.284101	684.4000244
1401.813538	684.5999756
1402.34292	686.7999878
1402.872247	689.7999878
1403.401518	690.7999878
1403.930734	688.7999878
1404.459895	685.4000244
1404.989	689.7999878
1405.51805	690.0
1406.047045	685.5999756
1406.575984	696.0
1407.104869	696.5999756
1407.633697	704.5999756
1408.162471	715.4000244
1408.691189	726.4000244
1409.219852	746.2000122
1409.74846	749.2000122
1410.277013	740.4000244
1410.80551	724.0
1411.333952	703.7999878
1411.862339	699.0
1412.39067	692.2000122
1412.918946	690.2000122
1413.447167	683.2000122
1413.975333	682.2000122
1414.503444	681.2000122
1415.031499	683.7999878
1415.559499	694.7999878
1416.087444	678.5999756
1416.615333	682.0
1417.143167	678.2000122
1417.670947	679.5999756
1418.19867	680.7999878
1418.726339	674.7999878
1419.253952	680.0
1419.781511	679.5999756
1420.309014	678.0
1420.836461	678.0
1421.363854	678.5999756
1421.891191	680.4000244
1422.418474	677.0
1422.945701	677.7999878
1423.472872	677.7999878
1423.999989	678.2000122
1424.52705	681.4000244
1425.054057	681.4000244
1425.581008	678.7999878
1426.107904	677.7999878
1426.634745	677.4000244
1427.16153	677.5999756
1427.688261	681.7999878
1428.214936	676.4000244
1428.741556	677.2000122
1429.268121	677.5999756
1429.794631	676.4000244
1430.321085	675.0
1430.847485	678.4000244
1431.373829	677.5999756
1431.900118	677.2000122
1432.426353	675.5999756
1432.952532	677.7999878
1433.478655	674.2000122
1434.004724	680.4000244
1434.530738	678.0
1435.056696	676.2000122
1435.5826	675.4000244
1436.108448	675.5999756
1436.634241	677.4000244
1437.159979	676.2000122
1437.685662	678.0
1438.21129	676.4000244
1438.736863	675.7999878
1439.262381	676.7999878
1439.787843	676.2000122
1440.313251	676.2000122
1440.838603	673.5999756
1441.3639	676.7999878
1441.889143	677.5999756
1442.41433	677.4000244
1442.939462	675.5999756
1443.464539	680.2000122
1443.989561	677.7999878
1444.514528	678.2000122
1445.03944	674.4000244
1445.564297	674.5999756
1446.089099	677.5999756
1446.613846	680.4000244
1447.138537	676.2000122
1447.663174	678.2000122
1448.187756	676.2000122
1448.712282	672.5999756
1449.236754	676.0
1449.761171	675.7999878
1450.285532	676.2000122
1450.809839	675.0
1451.33409	674.4000244
1451.858287	678.4000244
1452.382428	677.2000122
1452.906515	675.7999878
1453.430546	675.7999878
1453.954523	676.0
1454.478444	677.2000122
1455.002311	674.2000122
1455.526123	672.4000244
1456.049879	673.7999878
1456.573581	676.2000122
1457.097227	673.2000122
1457.620819	676.7999878
1458.144356	677.5999756
1458.667837	676.4000244
1459.191264	677.2000122
1459.714636	679.0
1460.237952	676.2000122
1460.761214	675.0
1461.284421	674.4000244
1461.807573	675.5999756
1462.33067	676.2000122
1462.853712	696.0
1463.899632	680.2000122
1464.422509	677.0
1464.945331	674.5999756
1465.468099	676.0
1465.990811	673.5999756
1466.513469	675.4000244
1467.036071	675.2000122
1467.558619	675.4000244
1468.081112	672.4000244
1468.60355	672.2000122
1469.125933	676.7999878
1469.648261	673.7999878
1470.170534	675.0
1470.692752	674.0
1471.214916	673.0
1471.737024	673.7999878
1472.259078	674.0
1472.781077	672.2000122
1473.303021	672.7999878
1473.82491	677.4000244
1474.346744	673.7999878
1474.868523	673.4000244
1475.390248	674.4000244
1475.911917	674.0
1476.433532	673.0
1476.955092	671.0
1477.476597	671.7999878
1477.998047	670.4000244
1478.519442	671.0
1479.040783	674.5999756
1479.562068	675.7999878
1480.083299	672.7999878
1480.604475	669.2000122
1481.125596	672.7999878
1481.646663	672.7999878
1482.167674	675.4000244
1482.688631	671.0
1483.209533	670.5999756
1483.73038	672.7999878
1484.251172	674.0
1484.771909	672.4000244
1485.292592	670.7999878
1485.81322	673.2000122
1486.333793	673.4000244
1486.854311	672.7999878
1487.374775	670.5999756
1487.895183	670.0
1488.415537	674.2000122
1488.935836	669.7999878
1489.456081	670.0
1489.97627	670.0
1490.496405	673.5999756
1491.016485	670.0
1491.536511	673.0
1492.056481	670.5999756
1492.576397	672.7999878
1493.096258	672.0
1493.616064	672.2000122
1494.135816	668.7999878
1494.655513	671.2000122
1495.175155	673.0
1495.694742	670.2000122
1496.214274	672.0
1496.733752	671.0
1497.253175	671.0
1497.772544	672.0
1498.291858	673.7999878
1498.811116	672.2000122
1499.330321	670.2000122
1499.84947	679.5999756
1500.368565	675.0
1500.887605	672.0
1501.406591	671.4000244
1501.925521	672.0
1502.444397	672.7999878
1502.963219	672.5999756
1503.481985	669.7999878
1504.000697	672.7999878
1504.519355	670.0
1505.037957	670.5999756
1505.556505	673.0
1506.074999	668.5999756
1506.593437	670.5999756
1507.111821	670.7999878
1507.63015	674.4000244
1508.148425	671.0
1508.666645	669.2000122
1509.18481	670.4000244
1509.702921	671.4000244
1510.220977	671.2000122
1510.738979	685.4000244
1511.256925	669.7999878
1511.774817	672.4000244
1512.292655	670.7999878
1512.810438	672.0
1513.328166	669.4000244
1513.84584	669.4000244
1514.363459	672.7999878
1514.881023	671.5999756
1515.398533	671.5999756
1515.915988	672.0
1516.433389	672.4000244
1516.950734	671.7999878
1517.468026	674.0
1517.985263	670.2000122
1518.502445	668.5999756
1519.019572	668.7999878
1519.536645	671.5999756
1520.053664	669.0
1520.570628	670.7999878
1521.087537	670.7999878
1521.604392	671.2000122
1522.121192	670.2000122
1522.637937	669.4000244
1523.154628	673.5999756
1523.671265	672.0
1524.187847	671.7999878
1524.704374	672.0
1525.220847	673.2000122
1525.737265	678.0
1526.769938	681.0
1527.286192	674.4000244
1527.802392	669.5999756
1528.318538	672.2000122
1528.834629	671.4000244
1529.350666	672.2000122
1529.866648	670.0
1530.382575	670.2000122
1530.898448	670.5999756
1531.414266	670.7999878
1531.93003	670.4000244
1532.44574	668.7999878
1532.961395	672.4000244
1533.476995	669.7999878
1533.992541	671.7999878
1534.508033	668.2000122
1535.02347	674.0
1535.538852	672.4000244
1536.05418	669.5999756
1536.569454	672.5999756
1537.084673	672.7999878
1537.599837	669.0
1538.114947	671.0
1538.630003	672.0
1539.145004	670.4000244
1539.659951	673.7999878
1540.174843	671.7999878
1540.689681	671.2000122
1541.204465	671.5999756
1541.719194	672.2000122
1542.233868	675.2000122
1542.748488	671.4000244
1543.263054	671.7999878
1543.777565	671.2000122
1544.292022	670.5999756
1544.806424	672.0
1545.320772	671.5999756
1545.835066	671.7999878
1546.349305	673.0
1546.863489	673.7999878
1547.37762	670.0
1547.891696	670.7999878
1548.405717	672.2000122
1548.919684	674.5999756
1549.433597	672.7999878
1549.947455	671.7999878
1550.461259	670.4000244
1550.975009	675.2000122
1551.488704	669.2000122
1552.002345	673.4000244
1552.515931	674.4000244
1553.029463	671.2000122
1553.542941	668.2000122
1554.056364	672.7999878
1554.569733	674.4000244
1555.083048	673.5999756
1555.596308	671.0
1556.109514	674.2000122
1556.622665	672.2000122
1557.135762	671.0
1557.648805	675.4000244
1558.161794	671.7999878
1558.674728	672.5999756
1559.187608	672.2000122
1559.700433	672.2000122
1560.213205	672.2000122
1560.725921	671.0
1561.238584	674.4000244
1561.751192	673.2000122
1562.263746	672.0
1562.776246	672.7999878
1563.288691	674.5999756
1563.801082	675.5999756
1564.313419	672.5999756
1564.825701	670.4000244
1565.337929	675.0
1565.850103	674.0
1566.362223	677.5999756
1566.874288	678.2000122
1567.386299	678.0
1567.898256	672.7999878
1568.410158	677.5999756
1568.922007	673.0
1569.4338	674.4000244
1569.94554	672.0
1570.457226	673.2000122
1570.968857	673.5999756
1571.480434	671.5999756
1571.991956	673.2000122
1572.503425	673.5999756
1573.014839	672.7999878
1573.526199	672.2000122
1574.037505	670.7999878
1574.548756	670.2000122
1575.059953	671.4000244
1575.571096	670.2000122
1576.082185	672.5999756
1576.59322	671.0
1577.1042	670.2000122
1577.615126	672.5999756
1578.125998	670.7999878
1578.636816	674.7999878
1579.14758	672.0
1579.658289	668.4000244
1580.168944	671.0
1580.679545	673.7999878
1581.190092	670.5999756
1581.700585	671.7999878
1582.211023	672.2000122
1582.721407	673.4000244
1583.231737	672.5999756
1583.742013	671.2000122
1584.252235	670.7999878
1584.762403	670.2000122
1585.272516	672.7999878
1585.782575	668.5999756
1586.292581	670.0
1586.802532	668.7999878
1587.312428	671.4000244
1587.822271	672.4000244
1588.33206	672.0
1588.841794	672.4000244
1589.351474	671.5999756
1589.8611	669.7999878
1590.370672	670.4000244
1590.88019	672.7999878
1591.389654	673.4000244
1591.899064	670.0
1592.408419	674.2000122
