1042.452273	700.0
1043.018714	696.0
1043.585098	699.0
1044.151424	695.2000122
1044.717692	694.5999756
1045.283903	694.2000122
1045.850056	688.2000122
1046.416151	695.4000244
1046.982188	690.5999756
1047.548167	688.4000244
1048.114089	690.0
1048.679953	687.2000122
1049.24576	686.2000122
1049.811509	685.5999756
1050.3772	683.5999756
1050.942833	685.7999878
1051.508408	682.5999756
1052.073926	685.0
1052.639387	684.0
1053.204789	685.4000244
1053.770134	683.0
1054.335421	682.4000244
1054.900651	679.4000244
1055.465823	683.0
1056.030937	682.2000122
1056.595993	680.2000122
1057.160992	678.2000122
1057.725934	679.5999756
1058.290817	680.5999756
1058.855643	682.7999878
1059.420411	678.7999878
1059.985122	681.2000122
1060.549775	678.0
1061.114371	677.5999756
1061.678908	680.2000122
1062.243389	679.2000122
1062.807811	676.0
1063.372176	680.0
1063.936483	678.7999878
1064.500733	677.0
1065.064925	680.0
1065.62906	680.7999878
1066.193137	678.4000244
1066.757156	678.0
1067.321118	677.5999756
1067.885022	676.2000122
1068.448869	678.0
1069.012658	678.4000244
1069.57639	677.5999756
1070.140063	684.0
1070.70368	677.0
1071.267239	679.4000244
1071.83074	678.0
1072.394184	676.4000244
1072.95757	678.5999756
1073.520899	675.0
1074.08417	676.7999878
1074.647383	680.5999756
1075.21054	674.5999756
1075.773638	676.2000122
1076.336679	676.5999756
1076.899663	677.4000244
1077.462589	676.2000122
1078.025457	677.4000244
1078.588268	678.4000244
1079.151022	678.7999878
1079.713718	676.0
1080.276356	675.4000244
1080.838937	676.5999756
1081.401461	672.5999756
1081.963927	673.4000244
1082.526336	676.7999878
1083.088687	675.0
1083.650981	676.4000244
1084.213217	677.5999756
1084.775396	675.2000122
1085.337517	681.2000122
1085.899581	678.4000244
1086.461587	675.0
1087.023536	679.0
1087.585428	678.4000244
1088.147262	674.7999878
1088.709039	679.5999756
1089.270758	677.0
1089.83242	680.2000122
1090.394024	674.5999756
1090.955571	678.7999878
1091.517061	676.7999878
1092.078493	678.2000122
1092.639868	678.2000122
1093.201185	675.4000244
1093.762445	679.4000244
1094.323648	676.4000244
1094.884793	674.7999878
1095.445881	678.0
1096.006911	677.5999756
1096.567884	675.0
1097.1288	684.0
1097.689659	680.2000122
1098.25046	678.4000244
1098.811203	678.2000122
1099.37189	674.0
1099.932518	677.5999756
1100.49309	674.7999878
1101.053604	678.2000122
1101.614061	675.0
1102.174461	678.5999756
1102.734803	677.2000122
1103.295088	677.5999756
1103.855316	673.5999756
1104.415486	678.2000122
1104.975599	676.5999756
1105.535655	676.2000122
1106.095653	676.4000244
1106.655594	681.2000122
1107.215478	676.5999756
1107.775305	679.2000122
1108.335074	680.2000122
1108.894786	681.5999756
1109.45444	678.5999756
1110.014038	680.2000122
1110.573578	678.4000244
1111.133061	682.0
1111.692486	680.4000244
1112.251854	680.0
1112.811165	682.4000244
1113.370419	681.2000122
1113.929616	680.2000122
1114.488755	680.4000244
1115.047837	677.5999756
1115.606862	678.4000244
1116.16583	677.0
1116.72474	679.2000122
1117.283593	678.4000244
1117.842389	676.2000122
1118.401128	677.4000244
1118.959809	680.2000122
1119.518433	677.5999756
1120.077	675.7999878
1120.63551	678.2000122
1121.193963	673.4000244
1121.752358	675.7999878
1122.310697	673.5999756
1122.868978	676.2000122
1123.427202	678.4000244
1123.985368	676.5999756
1124.543478	673.2000122
1125.10153	674.5999756
1125.659526	676.5999756
1126.217464	676.4000244
1126.775345	678.4000244
1127.333168	676.0
1127.890935	677.7999878
1128.448644	673.0
1129.006297	677.0
1129.563892	676.5999756
1130.12143	676.5999756
1130.678911	676.7999878
1131.236335	673.4000244
1131.793701	672.7999878
1132.351011	676.2000122
1132.908263	674.7999878
1133.465458	672.5999756
1134.022597	676.7999878
1134.579678	676.0
1135.136702	674.0
1135.693669	674.4000244
1136.250578	674.7999878
1136.807431	672.4000244
1137.364227	675.0
1137.920965	674.5999756
1138.477647	676.7999878
1139.034271	675.4000244
1139.590839	674.0
1140.147349	674.4000244
1140.703802	674.4000244
1141.260198	676.4000244
1141.816537	672.5999756
1142.37282	674.7999878
1142.929045	675.7999878
1143.485213	674.0
1144.041323	676.2000122
1144.597377	676.2000122
1145.153374	678.2000122
1145.709314	673.5999756
1146.265197	673.7999878
1146.821023	673.5999756
1147.376792	675.2000122
1147.932503	675.4000244
1148.488158	674.0
1149.043756	674.4000244
1149.599297	676.5999756
1150.154781	677.2000122
1150.710207	676.2000122
1151.265577	674.7999878
1151.82089	674.7999878
1152.376146	675.2000122
1152.931345	675.2000122
1153.486487	676.5999756
1154.041572	672.5999756
1154.5966	674.7999878
1155.151571	678.2000122
1155.706485	676.7999878
1156.261342	675.4000244
1156.816142	678.5999756
1157.370885	676.5999756
1157.925572	677.5999756
1158.480201	676.2000122
1159.034774	676.5999756
1159.589289	676.4000244
1160.143748	675.5999756
1160.698149	675.2000122
1161.252494	673.7999878
1161.806782	675.5999756
1162.361013	671.7999878
1162.915187	675.4000244
1163.469304	676.4000244
1164.023364	676.0
1164.577368	676.4000244
1165.131314	676.4000244
1165.685204	676.4000244
1166.239036	673.5999756
1166.792812	674.7999878
1167.346531	676.7999878
1167.900193	677.5999756
1168.453798	676.2000122
1169.007347	675.5999756
1169.560838	679.0
1170.114273	673.2000122
1170.66765	676.5999756
1171.220971	673.5999756
1171.774235	676.2000122
1172.327443	674.0
1172.880593	673.7999878
1173.433687	675.7999878
1173.986723	675.7999878
1174.539703	672.5999756
1175.092626	675.4000244
1175.645493	674.5999756
1176.198302	676.2000122
1176.751055	676.4000244
1177.303751	676.2000122
1177.85639	677.7999878
1178.408972	676.2000122
1178.961498	673.4000244
1179.513966	673.4000244
1180.066378	675.5999756
1180.618733	673.5999756
1181.171032	674.0
1181.723273	678.5999756
1182.275458	679.0
1182.827586	674.0
1183.379657	674.7999878
1183.931672	675.5999756
1184.48363	681.4000244
1185.035531	679.0
1185.587375	679.5999756
1186.139162	678.2000122
1186.690893	678.5999756
1187.242567	675.7999878
1187.794184	676.5999756
1188.345745	677.0
1188.897249	679.0
1189.448696	677.4000244
1190.000086	675.2000122
1190.55142	676.7999878
1191.102697	676.5999756
1191.653918	676.7999878
1192.205081	673.5999756
1192.756188	673.7999878
1193.307238	699.2000122
1193.858232	675.2000122
1194.409169	672.0
1194.960049	673.2000122
1195.510872	675.4000244
1196.061639	669.5999756
1196.612349	676.4000244
1197.163003	671.7999878
1197.713599	673.5999756
1198.264139	675.2000122
1198.814623	674.0
1199.36505	677.4000244
1199.91542	675.7999878
1200.465734	673.7999878
1201.01599	674.0
1201.566191	675.2000122
1202.116334	670.0
1202.666421	674.0
1203.216452	676.0
1203.766425	673.5999756
1204.316343	677.7999878
1204.866203	673.0
1205.416007	677.4000244
1205.965754	675.0
1206.515445	674.2000122
1207.065079	673.7999878
1207.614657	676.0
1208.164177	674.5999756
1208.713642	676.2000122
1209.26305	676.0
1209.812401	673.4000244
1210.361695	676.7999878
1210.910933	676.2000122
1211.460115	676.2000122
1212.00924	677.4000244
1212.558308	676.4000244
1213.10732	679.2000122
1213.656275	672.4000244
1214.205174	676.2000122
1214.754016	676.5999756
1215.302801	675.7999878
1215.85153	677.4000244
1216.400203	681.7999878
1216.948819	677.5999756
1217.497378	675.0
1218.045881	673.7999878
1218.594327	679.2000122
1219.142717	676.5999756
1219.691051	678.0
1220.239327	678.2000122
1220.787548	675.7999878
1221.335712	678.4000244
1221.883819	678.4000244
1222.43187	677.2000122
1222.979864	674.2000122
1223.527802	678.4000244
1224.075683	675.2000122
1224.623508	676.2000122
1225.171277	678.4000244
1225.718989	676.5999756
1226.266644	680.5999756
1226.814243	679.5999756
1227.361786	680.4000244
1227.909272	678.2000122
1228.456702	678.5999756
1229.004075	680.0
1229.551392	679.2000122
1230.098652	679.5999756
1230.645856	680.5999756
1231.193003	680.2000122
1231.740094	679.5999756
1232.287129	679.7999878
1232.834107	675.2000122
1233.381029	681.0
1233.927894	678.7999878
1234.474703	680.0
1235.021455	679.4000244
1235.568151	680.5999756
1236.114791	680.7999878
1236.661374	682.0
1237.207901	682.4000244
1237.754372	681.7999878
1238.300786	676.4000244
1238.847144	681.0
1239.393445	678.7999878
1239.93969	678.2000122
1240.485879	677.2000122
1241.032011	678.2000122
1241.578087	678.4000244
1242.124106	681.0
1242.67007	680.4000244
1243.215976	679.2000122
1243.761827	679.4000244
1244.307621	676.4000244
1244.853359	678.5999756
1245.39904	680.4000244
1245.944665	681.7999878
1246.490234	678.7999878
1247.035746	680.0
1247.581203	678.4000244
1248.126602	679.7999878
1248.671946	682.4000244
1249.217233	679.2000122
1249.762464	683.0
1250.307638	680.7999878
1250.852757	676.4000244
1251.397819	682.0
1251.942824	680.7999878
1252.487774	681.5999756
1253.032667	676.7999878
1253.577503	679.7999878
1254.122284	680.5999756
1254.667008	681.0
1255.211676	683.2000122
1255.756288	678.2000122
1256.300843	679.2000122
1256.845342	681.0
1257.389785	680.7999878
1257.934172	685.2000122
1258.478502	690.2000122
1259.022776	685.5999756
1259.566994	685.4000244
1260.655261	688.2000122
1261.199311	691.7999878
1261.743304	697.2000122
1262.28724	699.2000122
1262.831121	708.4000244
1263.374945	711.4000244
1263.918713	720.0
1264.462425	717.5999756
1265.006081	709.4000244
1265.54968	705.0
1266.093223	696.2000122
1266.636711	689.7999878
1267.180141	688.7999878
1267.723516	685.2000122
1268.266835	688.4000244
1268.810097	685.5999756
1269.353303	684.0
1269.896453	685.0
1270.439547	686.0
1270.982584	688.5999756
1271.525566	686.2000122
1272.068491	688.4000244
1272.61136	685.7999878
1273.154173	684.2000122
1273.69693	686.0
1274.239631	684.2000122
1274.782275	683.4000244
1275.324864	688.5999756
1275.867396	683.5999756
1276.409872	688.5999756
1276.952292	686.4000244
1277.494656	687.0
1278.036964	691.0
1278.579215	692.7999878
1279.121411	693.5999756
1279.66355	698.0
1280.205634	701.7999878
1280.747661	708.5999756
1281.289632	727.7999878
1281.831547	759.5999756
1282.373406	839.7999878
1282.915209	956.0
1283.456955	1153.0
1283.998646	1329.0
1284.540281	1324.599976
1285.081859	1109.0
1285.623381	890.4000244
1286.164848	790.4000244
1286.706258	741.0
1287.247612	720.2000122
1287.788911	703.4000244
1288.330153	701.0
1288.871339	701.2000122
1289.412469	697.2000122
1289.953543	692.0
1290.494561	691.7999878
1291.035523	689.7999878
1291.576428	688.4000244
1292.117278	685.4000244
1292.658072	687.5999756
1293.19881	689.5999756
1293.739492	685.4000244
1294.280118	688.2000122
1294.820687	684.2000122
1295.361201	684.5999756
1295.901659	683.4000244
1296.442061	685.7999878
1296.982406	684.2000122
1297.522696	684.7999878
1298.06293	683.5999756
1298.603108	688.2000122
1299.143229	682.7999878
1299.683295	684.2000122
1300.223305	683.7999878
1300.763259	681.2000122
1301.303157	680.7999878
1301.842999	682.7999878
1302.382785	680.7999878
1302.922515	681.0
1303.462189	679.5999756
1304.001807	682.7999878
1304.541369	678.7999878
1305.080875	682.4000244
1305.620326	682.4000244
1306.15972	679.4000244
1306.699058	681.5999756
1307.238341	681.7999878
1307.777567	677.4000244
1308.316738	681.7999878
1308.855853	681.2000122
1309.394912	679.4000244
1309.933915	681.5999756
1310.472862	679.7999878
1311.011753	676.5999756
1311.550588	681.4000244
1312.089367	679.7999878
1312.62809	680.5999756
1313.166758	678.7999878
1313.70537	678.0
1314.243925	678.0
1314.782425	677.4000244
1315.320869	679.0
1315.859257	678.5999756
1316.397589	681.0
1316.935866	678.5999756
1317.474086	680.0
1318.012251	677.0
1318.55036	676.4000244
1319.088413	680.4000244
1319.62641	680.7999878
1320.164351	675.7999878
1320.702236	677.4000244
1321.240066	679.7999878
1321.777839	680.5999756
1322.315557	680.2000122
1322.853219	674.4000244
1323.390826	680.4000244
1323.928376	680.7999878
1324.465871	676.7999878
1325.003309	677.4000244
1325.540692	681.5999756
1326.07802	678.0
1326.615291	678.0
1327.152506	680.0
1327.689666	677.7999878
1328.22677	679.5999756
1328.763818	678.0
1329.300811	675.7999878
1329.837747	680.4000244
1330.374628	677.4000244
1330.911453	674.5999756
1331.448222	678.5999756
1331.984936	678.7999878
1332.521594	678.2000122
1333.058196	679.2000122
1333.594742	675.0
1334.131232	680.5999756
1334.667667	679.2000122
1335.204046	679.7999878
1335.740369	679.5999756
1336.276637	674.2000122
1336.812848	678.5999756
1337.349004	678.0
1337.885105	679.0
1338.421149	680.0
1338.957138	676.4000244
1339.493071	675.4000244
1340.028949	677.7999878
1340.56477	677.7999878
1341.100536	677.2000122
1341.636246	676.7999878
1342.171901	675.0
1342.7075	679.7999878
1343.243043	676.4000244
1343.77853	678.2000122
1344.313962	679.0
1344.849338	678.7999878
1345.384659	676.7999878
1345.919923	671.5999756
1346.455133	677.5999756
1346.990286	676.5999756
1347.525384	676.7999878
1348.060426	675.5999756
1348.595412	674.5999756
1349.130343	679.5999756
1349.665218	677.4000244
1350.200037	679.7999878
1350.734801	676.0
1351.269509	679.2000122
1351.804162	678.0
1352.338758	678.2000122
1352.8733	676.0
1353.407785	679.4000244
1353.942215	677.0
1354.476589	679.7999878
1355.010908	680.5999756
1355.545171	679.2000122
1356.079379	675.4000244
1356.61353	678.2000122
1357.147627	679.2000122
1357.681667	680.2000122
1358.215652	675.7999878
1358.749582	679.0
1359.283456	681.7999878
1359.817274	679.4000244
1360.351037	681.4000244
1360.884744	678.0
1361.418395	680.5999756
1361.951991	680.4000244
1362.485531	680.2000122
1363.019016	680.4000244
1363.552445	682.5999756
1364.085819	680.2000122
1364.619137	679.5999756
1365.1524	685.4000244
1365.685607	680.0
1366.218758	684.2000122
1366.751854	681.0
1367.284894	678.4000244
1367.817879	680.5999756
1368.350808	682.4000244
1368.883682	686.2000122
1369.4165	688.5999756
1369.949263	709.0
1370.48197	708.4000244
1371.014622	689.2000122
1371.547218	682.2000122
1372.079758	681.5999756
1372.612244	680.7999878
1373.144673	684.5999756
1373.677047	683.7999878
1374.209366	684.4000244
1374.741629	686.0
1375.273836	686.2000122
1375.805989	682.5999756
1376.338085	687.0
1376.870126	687.5999756
1377.402112	686.0
1377.934042	686.4000244
1378.465917	683.7999878
1378.997736	685.2000122
1379.5295	689.7999878
1380.061208	688.0
1380.592861	687.5999756
1381.124459	691.7999878
1381.656	694.7999878
1382.187487	697.5999756
1382.718918	699.5999756
1383.250294	703.5999756
1383.781614	711.4000244
1384.312879	713.7999878
1384.844088	731.7999878
1385.375242	749.0
1385.90634	786.2000122
1386.437383	875.2000122
1386.968371	1065.800049
1387.499303	1528.0
1388.03018	2124.0
1388.561001	1905.599976
1389.091767	1246.400024
1389.622478	906.7999878
1390.153133	788.5999756
1390.683733	746.4000244
1391.214277	720.7999878
1391.744766	710.0
1392.2752	705.7999878
1392.805578	703.0
1393.335901	693.4000244
1393.866168	689.7999878
1394.396381	695.0
1394.926537	690.7999878
1395.456639	690.0
1395.986685	687.4000244
1396.516675	687.2000122
1397.046611	689.4000244
1397.576491	687.7999878
1398.106315	688.0
1398.636084	687.0
1399.165798	683.2000122
1399.695457	686.5999756
1400.22506	685.7999878
1400.754608	681.7999878
1401.284101	684.4000244
1401.813538	686.7999878
1402.34292	688.0
1402.872247	683.5999756
1403.401518	687.4000244
1403.930734	688.2000122
1404.459895	689.0
1404.989	690.5999756
1405.51805	689.4000244
1406.047045	690.4000244
1406.575984	693.4000244
1407.104869	699.7999878
1407.633697	703.7999878
1408.162471	714.4000244
1408.691189	732.7999878
1409.219852	747.7999878
1409.74846	757.7999878
1410.277013	741.2000122
1410.80551	718.7999878
1411.333952	705.0
1411.862339	693.2000122
1412.39067	687.7999878
1412.918946	685.0
1413.447167	683.5999756
1413.975333	682.2000122
1414.503444	680.2000122
1415.031499	681.7999878
1415.559499	691.0
1416.087444	676.0
1416.615333	678.7999878
1417.143167	678.0
1417.670947	678.7999878
1418.19867	680.2000122
1418.726339	676.2000122
1419.253952	678.2000122
1419.781511	678.0
1420.309014	676.0
1420.836461	676.2000122
1421.363854	678.2000122
1421.891191	677.7999878
1422.418474	679.5999756
1422.945701	677.4000244
1423.472872	676.2000122
1423.999989	677.2000122
1424.52705	677.0
1425.054057	675.5999756
1425.581008	678.2000122
1426.107904	676.4000244
1426.634745	679.5999756
1427.16153	676.5999756
1427.688261	674.5999756
1428.214936	678.4000244
1428.741556	674.5999756
1429.268121	677.2000122
1429.794631	676.0
1430.321085	675.0
1430.847485	677.2000122
1431.373829	674.4000244
1431.900118	676.5999756
1432.426353	675.0
1432.952532	676.0
1433.478655	677.7999878
1434.004724	673.7999878
1434.530738	674.4000244
1435.056696	674.7999878
1435.5826	675.7999878
1436.108448	677.4000244
1436.634241	675.4000244
1437.159979	674.7999878
1437.685662	674.0
1438.21129	675.2000122
1438.736863	676.5999756
1439.262381	676.5999756
1439.787843	676.4000244
1440.313251	675.0
1440.838603	675.4000244
1441.3639	672.7999878
1441.889143	674.4000244
1442.41433	673.7999878
1442.939462	669.5999756
1443.464539	674.5999756
1443.989561	674.7999878
1444.514528	674.2000122
1445.03944	674.7999878
1445.564297	674.2000122
1446.089099	672.4000244
1446.613846	678.0
1447.138537	674.0
1447.663174	672.5999756
1448.187756	673.4000244
1448.712282	673.5999756
1449.236754	673.0
1449.761171	675.0
1450.285532	673.2000122
1450.809839	674.4000244
1451.33409	674.2000122
1451.858287	672.0
1452.382428	674.4000244
1452.906515	676.7999878
1453.430546	671.0
1453.954523	674.0
1454.478444	677.2000122
1455.002311	676.0
1455.526123	673.0
1456.049879	674.7999878
1456.573581	671.7999878
1457.097227	675.4000244
1457.620819	672.4000244
1458.144356	675.2000122
1458.667837	673.5999756
1459.191264	674.0
1459.714636	673.4000244
1460.237952	673.7999878
1460.761214	672.4000244
1461.284421	677.0
1461.807573	674.2000122
1462.33067	674.0
1462.853712	692.7999878
1463.376699	709.4000244
1463.899632	682.4000244
1464.422509	673.4000244
1464.945331	672.0
1465.468099	672.4000244
1465.990811	671.5999756
1466.513469	676.0
1467.036071	672.0
1467.558619	673.4000244
1468.081112	673.0
1468.60355	676.0
1469.125933	676.0
1469.648261	675.7999878
1470.170534	675.5999756
1470.692752	672.7999878
1471.214916	671.5999756
1471.737024	671.2000122
1472.259078	672.7999878
1472.781077	674.0
1473.303021	671.5999756
1473.82491	671.0
1474.346744	672.2000122
1474.868523	671.0
1475.390248	673.4000244
1475.911917	671.4000244
1476.433532	674.0
1476.955092	672.0
1477.476597	672.7999878
1477.998047	670.0
1478.519442	673.5999756
1479.040783	671.0
1479.562068	673.7999878
1480.083299	670.7999878
1480.604475	671.5999756
1481.125596	672.7999878
1481.646663	673.4000244
1482.167674	669.4000244
1482.688631	670.2000122
1483.209533	670.0
1483.73038	668.7999878
1484.251172	672.7999878
1484.771909	670.7999878
1485.292592	671.5999756
1485.81322	671.7999878
1486.333793	672.5999756
1486.854311	670.0
1487.374775	667.7999878
1487.895183	670.2000122
1488.415537	672.4000244
1488.935836	674.0
1489.456081	671.2000122
1489.97627	670.0
1490.496405	668.7999878
1491.016485	669.4000244
1491.536511	670.7999878
1492.056481	667.4000244
1492.576397	670.0
1493.096258	670.0
1493.616064	670.0
1494.135816	672.4000244
1494.655513	673.5999756
1495.175155	670.5999756
1495.694742	669.5999756
1496.214274	669.4000244
1496.733752	671.7999878
1497.253175	669.0
1497.772544	669.7999878
1498.291858	671.7999878
1498.811116	672.4000244
1499.330321	672.2000122
1499.84947	677.7999878
1500.368565	671.7999878
1500.887605	671.5999756
1501.406591	669.4000244
1501.925521	669.7999878
1502.444397	671.0
1502.963219	670.5999756
1503.481985	673.0
1504.000697	670.2000122
1504.519355	669.7999878
1505.037957	670.5999756
1505.556505	670.4000244
1506.074999	668.0
1506.593437	668.5999756
1507.111821	671.5999756
1507.63015	668.0
1508.148425	668.7999878
1508.666645	668.5999756
1509.18481	669.7999878
1509.702921	671.2000122
1510.220977	668.0
1510.738979	676.7999878
1511.256925	670.4000244
1511.774817	672.5999756
1512.292655	671.2000122
1512.810438	670.5999756
1513.328166	671.0
1513.84584	670.7999878
1514.363459	669.2000122
1514.881023	670.5999756
1515.398533	672.7999878
1515.915988	670.4000244
1516.433389	672.0
1516.950734	669.0
1517.468026	670.4000244
1517.985263	667.0
1518.502445	669.7999878
1519.019572	668.7999878
1519.536645	668.2000122
1520.053664	669.7999878
1520.570628	671.7999878
1521.087537	668.4000244
1521.604392	670.7999878
1522.121192	666.7999878
1522.637937	667.4000244
1523.154628	669.2000122
1523.671265	670.2000122
1524.187847	671.0
1524.704374	672.7999878
1525.220847	670.7999878
1525.737265	681.7999878
1526.253629	698.5999756
1526.769938	679.5999756
1527.286192	674.2000122
1527.802392	670.2000122
1528.318538	669.4000244
1528.834629	667.4000244
1529.350666	671.7999878
1529.866648	669.7999878
1530.382575	670.7999878
1530.898448	669.4000244
1531.414266	668.2000122
1531.93003	670.4000244
1532.44574	669.5999756
1532.961395	666.2000122
1533.476995	666.7999878
1533.992541	668.2000122
1534.508033	670.0
1535.02347	670.4000244
1535.538852	670.2000122
1536.05418	669.5999756
1536.569454	669.5999756
1537.084673	668.0
1537.599837	668.5999756
1538.114947	669.7999878
1538.630003	671.2000122
1539.145004	668.7999878
1539.659951	668.7999878
1540.174843	673.0
1540.689681	673.5999756
1541.204465	669.0
1541.719194	668.4000244
1542.233868	670.7999878
1542.748488	671.0
1543.263054	668.0
1543.777565	670.5999756
1544.292022	669.4000244
1544.806424	668.0
1545.320772	666.0
1545.835066	669.7999878
1546.349305	668.4000244
1546.863489	671.0
1547.37762	671.7999878
1547.891696	672.4000244
1548.405717	671.5999756
1548.919684	669.0
1549.433597	669.4000244
1549.947455	673.5999756
1550.461259	671.5999756
1550.975009	670.0
1551.488704	672.4000244
1552.002345	671.7999878
1552.515931	671.0
1553.029463	667.5999756
1553.542941	670.7999878
1554.056364	673.2000122
1554.569733	671.7999878
1555.083048	670.7999878
1555.596308	667.0
1556.109514	667.5999756
1556.622665	671.5999756
1557.135762	667.7999878
1557.648805	669.4000244
1558.161794	665.5999756
1558.674728	670.4000244
1559.187608	671.4000244
1559.700433	668.5999756
1560.213205	673.0
1560.725921	672.4000244
1561.238584	670.5999756
1561.751192	672.2000122
1562.263746	670.4000244
1562.776246	672.5999756
1563.288691	671.0
1563.801082	673.7999878
1564.313419	673.5999756
1564.825701	674.5999756
1565.337929	671.7999878
1565.850103	674.2000122
1566.362223	669.4000244
1566.874288	676.7999878
1567.386299	677.5999756
1567.898256	676.7999878
1568.410158	673.2000122
1568.922007	670.5999756
1569.4338	670.7999878
1569.94554	671.2000122
1570.457226	671.2000122
1570.968857	670.2000122
1571.480434	670.4000244
1571.991956	673.4000244
1572.503425	668.0
1573.014839	669.5999756
1573.526199	667.5999756
1574.037505	668.5999756
1574.548756	667.0
1575.059953	670.2000122
1575.571096	670.4000244
1576.082185	671.2000122
1576.59322	671.5999756
1577.1042	668.7999878
1577.615126	672.0
1578.125998	668.5999756
1578.636816	667.7999878
1579.14758	671.2000122
1579.658289	669.2000122
1580.168944	669.2000122
1580.679545	671.7999878
1581.190092	672.4000244
1581.700585	668.7999878
1582.211023	672.4000244
1582.721407	671.7999878
1583.231737	672.0
1583.742013	672.7999878
1584.252235	672.0
1584.762403	670.7999878
1585.272516	672.2000122
1585.782575	669.5999756
1586.292581	672.2000122
1586.802532	674.0
1587.312428	671.4000244
1587.822271	668.0
1588.33206	670.0
1588.841794	668.5999756
1589.351474	671.4000244
1589.8611	668.7999878
1590.370672	668.4000244
1590.88019	670.5999756
1591.389654	668.4000244
1591.899064	670.4000244
1592.408419	668.4000244
