1042.452273	696.5999756
1043.018714	694.7999878
1043.585098	699.2000122
1044.151424	694.0
1044.717692	695.7999878
1045.283903	690.4000244
1045.850056	690.7999878
1046.416151	692.7999878
1046.982188	688.5999756
1047.548167	689.4000244
1048.114089	688.4000244
1048.679953	688.7999878
1049.24576	688.4000244
1049.811509	687.7999878
1050.3772	686.5999756
1050.942833	685.2000122
1051.508408	686.4000244
1052.073926	682.7999878
1052.639387	680.0
1053.204789	681.7999878
1053.770134	683.4000244
1054.335421	681.0
1054.900651	684.7999878
1055.465823	682.2000122
1056.030937	682.0
1056.595993	679.4000244
1057.160992	679.0
1057.725934	680.4000244
1058.290817	678.7999878
1058.855643	679.0
1059.420411	683.2000122
1059.985122	679.5999756
1060.549775	680.2000122
1061.114371	681.4000244
1061.678908	677.4000244
1062.243389	677.7999878
1062.807811	678.5999756
1063.372176	677.5999756
1063.936483	678.2000122
1064.500733	676.2000122
1065.064925	674.0
1065.62906	679.7999878
1066.193137	677.2000122
1066.757156	679.5999756
1067.321118	677.7999878
1067.885022	677.7999878
1068.448869	676.2000122
1069.012658	679.0
1069.57639	677.7999878
1070.140063	684.7999878
1070.70368	677.7999878
1071.267239	676.4000244
1071.83074	675.7999878
1072.394184	679.2000122
1072.95757	673.5999756
1073.520899	676.2000122
1074.08417	674.5999756
1074.647383	676.7999878
1075.21054	675.5999756
1075.773638	675.0
1076.336679	677.4000244
1076.899663	674.5999756
1077.462589	677.5999756
1078.025457	679.0
1078.588268	673.7999878
1079.151022	675.7999878
1079.713718	677.0
1080.276356	679.2000122
1080.838937	679.7999878
1081.401461	677.5999756
1081.963927	675.2000122
1082.526336	674.5999756
1083.088687	678.7999878
1083.650981	675.7999878
1084.213217	679.7999878
1084.775396	674.5999756
1085.337517	677.2000122
1085.899581	677.5999756
1086.461587	676.7999878
1087.023536	678.7999878
1087.585428	673.4000244
1088.147262	682.0
1088.709039	680.4000244
1089.270758	679.5999756
1089.83242	676.5999756
1090.394024	677.7999878
1090.955571	674.7999878
1091.517061	675.2000122
1092.078493	672.4000244
1092.639868	676.0
1093.201185	677.4000244
1093.762445	677.4000244
1094.323648	674.4000244
1094.884793	678.0
1095.445881	678.5999756
1096.006911	678.7999878
1096.567884	677.5999756
1097.1288	684.4000244
1097.689659	677.7999878
1098.25046	674.0
1098.811203	677.0
1099.37189	676.0
1099.932518	677.7999878
1100.49309	675.5999756
1101.053604	676.4000244
1101.614061	673.5999756
1102.174461	678.2000122
1102.734803	676.7999878
1103.295088	675.7999878
1103.855316	675.5999756
1104.415486	677.7999878
1104.975599	677.0
1105.535655	675.0
1106.095653	677.5999756
1106.655594	680.2000122
1107.215478	679.7999878
1107.775305	674.7999878
1108.335074	681.7999878
1108.894786	678.5999756
1109.45444	678.7999878
1110.014038	681.7999878
1110.573578	683.7999878
1111.133061	681.0
1111.692486	681.4000244
1112.251854	679.0
1112.811165	679.2000122
1113.370419	680.7999878
1113.929616	681.2000122
1114.488755	679.4000244
1115.047837	680.7999878
1115.606862	681.2000122
1116.16583	681.0
1116.72474	680.4000244
1117.283593	680.0
1117.842389	682.4000244
1118.401128	679.0
1118.959809	673.0
1119.518433	678.0
1120.077	679.2000122
1120.63551	677.4000244
1121.193963	676.5999756
1121.752358	676.5999756
1122.310697	675.4000244
1122.868978	675.2000122
1123.427202	673.0
1123.985368	675.5999756
1124.543478	675.0
1125.10153	673.5999756
1125.659526	675.4000244
1126.217464	676.5999756
1126.775345	676.4000244
1127.333168	675.2000122
1127.890935	675.0
1128.448644	675.2000122
1129.006297	674.2000122
1129.563892	674.7999878
1130.12143	672.4000244
1130.678911	674.7999878
1131.236335	678.0
1131.793701	672.5999756
1132.351011	673.0
1132.908263	675.7999878
1133.465458	670.7999878
1134.022597	674.4000244
1134.579678	675.7999878
1135.136702	671.7999878
1135.693669	676.2000122
1136.250578	672.0
1136.807431	675.2000122
1137.364227	676.7999878
1137.920965	676.0
1138.477647	676.5999756
1139.034271	673.7999878
1139.590839	675.4000244
1140.147349	674.5999756
1140.703802	674.4000244
1141.260198	677.2000122
1141.816537	673.0
1142.37282	675.4000244
1142.929045	676.5999756
1143.485213	675.4000244
1144.041323	673.2000122
1144.597377	674.5999756
1145.153374	677.5999756
1145.709314	672.2000122
1146.265197	675.0
1146.821023	676.7999878
1147.376792	674.0
1147.932503	674.2000122
1148.488158	674.4000244
1149.043756	675.5999756
1149.599297	673.4000244
1150.154781	675.0
1150.710207	675.5999756
1151.265577	676.5999756
1151.82089	676.5999756
1152.376146	673.2000122
1152.931345	672.4000244
1153.486487	676.5999756
1154.041572	676.5999756
1154.5966	677.0
1155.151571	676.5999756
1155.706485	677.0
1156.261342	677.5999756
1156.816142	674.4000244
1157.370885	675.5999756
1157.925572	674.2000122
1158.480201	676.4000244
1159.034774	672.2000122
1159.589289	675.4000244
1160.143748	676.4000244
1160.698149	676.2000122
1161.252494	675.5999756
1161.806782	676.2000122
1162.361013	675.7999878
1162.915187	675.0
1163.469304	675.4000244
1164.023364	675.4000244
1164.577368	673.4000244
1165.131314	674.5999756
1165.685204	672.7999878
1166.239036	675.0
1166.792812	675.5999756
1167.346531	674.0
1167.900193	674.4000244
1168.453798	675.2000122
1169.007347	674.2000122
1169.560838	674.5999756
1170.114273	680.0
1170.66765	676.7999878
1171.220971	674.5999756
1171.774235	674.5999756
1172.327443	674.5999756
1172.880593	672.4000244
1173.433687	673.0
1173.986723	675.2000122
1174.539703	673.5999756
1175.092626	675.7999878
1175.645493	675.0
1176.198302	675.4000244
1176.751055	677.2000122
1177.303751	676.4000244
1177.85639	676.4000244
1178.408972	673.0
1178.961498	677.2000122
1179.513966	672.2000122
1180.066378	675.0
1180.618733	672.2000122
1181.171032	677.4000244
1181.723273	680.4000244
1182.275458	677.7999878
1182.827586	678.2000122
1183.379657	677.7999878
1183.931672	676.2000122
1184.48363	679.0
1185.035531	678.4000244
1185.587375	679.4000244
1186.139162	675.4000244
1186.690893	678.0
1187.242567	676.2000122
1187.794184	678.2000122
1188.345745	678.7999878
1188.897249	676.7999878
1189.448696	678.0
1190.000086	678.4000244
1190.55142	679.0
1191.102697	679.0
1191.653918	675.0
1192.205081	672.0
1192.756188	677.7999878
1193.307238	693.4000244
1193.858232	672.5999756
1194.409169	672.2000122
1194.960049	673.7999878
1195.510872	673.2000122
1196.061639	675.2000122
1196.612349	676.4000244
1197.163003	675.0
1197.713599	672.7999878
1198.264139	673.7999878
1198.814623	676.7999878
1199.36505	672.7999878
1199.91542	675.2000122
1200.465734	674.4000244
1201.01599	675.7999878
1201.566191	675.2000122
1202.116334	673.7999878
1202.666421	674.5999756
1203.216452	672.7999878
1203.766425	675.4000244
1204.316343	673.5999756
1204.866203	676.4000244
1205.416007	672.5999756
1205.965754	677.0
1206.515445	672.2000122
1207.065079	675.7999878
1207.614657	672.7999878
1208.164177	676.5999756
1208.713642	672.7999878
1209.26305	676.7999878
1209.812401	672.5999756
1210.361695	673.5999756
1210.910933	673.5999756
1211.460115	676.2000122
1212.00924	674.0
1212.558308	677.2000122
1213.10732	676.5999756
1213.656275	675.2000122
1214.205174	675.5999756
1214.754016	678.0
1215.302801	676.4000244
1215.85153	675.5999756
1216.400203	676.5999756
1216.948819	678.2000122
1217.497378	676.7999878
1218.045881	676.0
1218.594327	676.5999756
1219.142717	675.7999878
1219.691051	679.5999756
1220.239327	676.4000244
1220.787548	676.0
1221.335712	678.2000122
1221.883819	677.5999756
1222.43187	681.0
1222.979864	678.4000244
1223.527802	677.0
1224.075683	679.2000122
1224.623508	675.7999878
1225.171277	679.5999756
1225.718989	681.2000122
1226.266644	679.0
1226.814243	678.2000122
1227.361786	677.4000244
1227.909272	676.0
1228.456702	680.0
1229.004075	681.5999756
1229.551392	677.2000122
1230.098652	680.2000122
1230.645856	676.2000122
1231.193003	678.7999878
1231.740094	681.4000244
1232.287129	677.4000244
1232.834107	678.5999756
1233.381029	681.2000122
1233.927894	680.5999756
1234.474703	681.7999878
1235.021455	679.2000122
1235.568151	680.4000244
1236.114791	680.0
1236.661374	679.7999878
1237.207901	682.5999756
1237.754372	678.5999756
1238.300786	678.2000122
1238.847144	679.4000244
1239.393445	678.5999756
1239.93969	679.4000244
1240.485879	682.4000244
1241.032011	679.4000244
1241.578087	676.4000244
1242.124106	677.2000122
1242.67007	678.7999878
1243.215976	679.2000122
1243.761827	678.7999878
1244.307621	679.5999756
1244.853359	676.5999756
1245.39904	678.4000244
1245.944665	680.5999756
1246.490234	680.0
1247.035746	682.2000122
1247.581203	683.7999878
1248.126602	681.4000244
1248.671946	678.2000122
1249.217233	682.2000122
1249.762464	680.4000244
1250.307638	683.4000244
1250.852757	679.0
1251.397819	677.7999878
1251.942824	678.5999756
1252.487774	680.4000244
1253.032667	681.5999756
1253.577503	679.7999878
1254.122284	680.0
1254.667008	682.0
1255.211676	679.0
1255.756288	676.5999756
1256.300843	679.4000244
1256.845342	681.0
1257.389785	682.7999878
1257.934172	684.0
1258.478502	684.4000244
1259.022776	686.7999878
1259.566994	684.0
1260.111156	705.0
1260.655261	686.5999756
1261.199311	690.5999756
1261.743304	691.7999878
1262.28724	698.4000244
1262.831121	707.2000122
1263.374945	707.2000122
1263.918713	716.2000122
1264.462425	717.5999756
1265.006081	706.2000122
1265.54968	700.7999878
1266.093223	696.4000244
1266.636711	686.5999756
1267.180141	689.0
1267.723516	686.0
1268.266835	688.4000244
1268.810097	684.5999756
1269.353303	681.7999878
1269.896453	685.7999878
1270.439547	684.0
1270.982584	684.7999878
1271.525566	685.2000122
1272.068491	686.4000244
1272.61136	685.7999878
1273.154173	680.2000122
1273.69693	683.0
1274.239631	683.0
1274.782275	682.2000122
1275.324864	683.4000244
1275.867396	687.4000244
1276.409872	684.7999878
1276.952292	683.4000244
1277.494656	687.0
1278.036964	684.7999878
1278.579215	687.0
1279.121411	690.0
1279.66355	697.7999878
1280.205634	699.0
1280.747661	712.0
1281.289632	722.2000122
1281.831547	752.5999756
1282.373406	813.0
1282.915209	927.4000244
1283.456955	1113.199951
1283.998646	1283.800049
1284.540281	1273.400024
1285.081859	1068.400024
1285.623381	876.5999756
1286.164848	779.2000122
1286.706258	729.4000244
1287.247612	711.7999878
1287.788911	704.5999756
1288.330153	697.7999878
1288.871339	694.0
1289.412469	691.4000244
1289.953543	689.7999878
1290.494561	688.7999878
1291.035523	684.4000244
1291.576428	687.7999878
1292.117278	685.7999878
1292.658072	684.0
1293.19881	683.0
1293.739492	683.4000244
1294.280118	686.2000122
1294.820687	687.2000122
1295.361201	685.5999756
1295.901659	686.7999878
1297.522696	683.0
1298.06293	680.5999756
1298.603108	680.7999878
1299.143229	682.2000122
1299.683295	683.2000122
1300.223305	681.5999756
1300.763259	682.0
1301.303157	681.2000122
1301.842999	679.4000244
1302.382785	682.7999878
1302.922515	681.7999878
1303.462189	681.5999756
1304.001807	678.0
1304.541369	682.4000244
1305.080875	679.4000244
1305.620326	681.2000122
1306.15972	680.2000122
1306.699058	677.7999878
1307.238341	678.7999878
1307.777567	680.4000244
1308.316738	681.2000122
1308.855853	679.2000122
1309.394912	678.5999756
1309.933915	677.5999756
1310.472862	677.5999756
1311.011753	679.5999756
1311.550588	681.0
1312.089367	677.2000122
1312.62809	680.4000244
1313.166758	680.0
1313.70537	678.7999878
1314.243925	677.4000244
1314.782425	677.5999756
1315.320869	681.2000122
1315.859257	679.0
1316.397589	678.0
1316.935866	678.4000244
1317.474086	679.2000122
1318.012251	676.0
1318.55036	678.7999878
1319.088413	677.5999756
1319.62641	681.0
1320.164351	677.4000244
1320.702236	676.2000122
1321.240066	677.5999756
1321.777839	674.4000244
1322.315557	675.5999756
1322.853219	673.5999756
1323.390826	679.5999756
1323.928376	679.4000244
1324.465871	677.0
1325.003309	673.7999878
1325.540692	679.0
1326.07802	677.4000244
1326.615291	673.7999878
1327.152506	677.4000244
1327.689666	678.4000244
1328.22677	677.2000122
1328.763818	675.2000122
1329.300811	678.2000122
1329.837747	674.4000244
1330.374628	678.0
1330.911453	675.0
1331.448222	674.0
1331.984936	681.5999756
1332.521594	677.4000244
1333.058196	677.4000244
1333.594742	678.4000244
1334.131232	677.4000244
1334.667667	676.4000244
1335.204046	675.4000244
1335.740369	677.0
1336.276637	677.5999756
1336.812848	675.4000244
1337.349004	676.2000122
1337.885105	674.0
1338.421149	679.7999878
1338.957138	677.5999756
1339.493071	673.4000244
1340.028949	676.7999878
1340.56477	675.5999756
1341.100536	675.2000122
1341.636246	676.5999756
1342.171901	676.2000122
1342.7075	673.0
1343.243043	677.7999878
1343.77853	674.7999878
1344.313962	675.2000122
1344.849338	675.5999756
1345.384659	677.0
1345.919923	680.0
1346.455133	677.7999878
1346.990286	677.4000244
1347.525384	678.0
1348.060426	678.4000244
1348.595412	676.4000244
1349.130343	676.0
1349.665218	675.4000244
1350.200037	674.7999878
1350.734801	677.7999878
1351.269509	681.0
1351.804162	676.0
1352.338758	676.0
1352.8733	674.0
1353.407785	677.2000122
1353.942215	679.5999756
1354.476589	677.4000244
1355.010908	677.4000244
1355.545171	676.2000122
1356.079379	677.4000244
1356.61353	677.2000122
1357.147627	677.0
1357.681667	675.5999756
1358.215652	675.4000244
1358.749582	674.5999756
1359.283456	682.4000244
1359.817274	676.4000244
1360.351037	676.7999878
1360.884744	677.0
1361.418395	679.4000244
1361.951991	683.4000244
1362.485531	679.4000244
1363.019016	679.4000244
1363.552445	679.7999878
1364.085819	683.7999878
1364.619137	682.4000244
1365.1524	680.4000244
1365.685607	677.4000244
1366.218758	684.7999878
1366.751854	683.5999756
1367.284894	680.2000122
1367.817879	678.5999756
1368.350808	679.2000122
1368.883682	681.7999878
1369.4165	688.0
1369.949263	701.4000244
1370.48197	703.4000244
1371.014622	687.2000122
1371.547218	682.4000244
1372.079758	682.4000244
1372.612244	678.2000122
1373.144673	682.5999756
1373.677047	684.2000122
1374.209366	682.5999756
1374.741629	684.2000122
1375.273836	683.4000244
1375.805989	684.2000122
1376.338085	683.4000244
1376.870126	686.4000244
1377.402112	689.0
1377.934042	683.5999756
1378.465917	685.7999878
1378.997736	685.2000122
1379.5295	688.0
1380.061208	690.4000244
1380.592861	688.5999756
1381.124459	690.7999878
1381.656	689.2000122
1382.187487	695.4000244
1382.718918	698.0
1383.250294	697.5999756
1383.781614	703.4000244
1384.312879	711.0
1384.844088	720.5999756
1385.375242	743.0
1385.90634	777.7999878
1386.437383	847.0
1386.968371	1023.799988
1387.499303	1440.800049
1388.03018	1969.400024
1388.561001	1810.400024
1389.091767	1200.599976
1389.622478	884.7999878
1390.153133	781.2000122
1390.683733	738.5999756
1391.214277	717.4000244
1391.744766	711.4000244
1392.2752	705.2000122
1392.805578	695.7999878
1393.335901	696.4000244
1393.866168	691.2000122
1394.396381	686.7999878
1394.926537	688.2000122
1395.456639	688.7999878
1395.986685	690.5999756
1396.516675	686.0
1397.046611	690.7999878
1397.576491	683.0
1398.106315	684.0
1398.636084	682.5999756
1399.165798	687.7999878
1399.695457	680.2000122
1400.22506	684.5999756
1400.754608	683.4000244
1401.284101	688.5999756
1401.813538	683.5999756
1402.34292	683.0
1402.872247	686.7999878
1403.401518	682.4000244
1403.930734	683.7999878
1404.459895	684.4000244
1404.989	683.2000122
1405.51805	691.0
1406.047045	689.0
1406.575984	689.0
1407.104869	695.7999878
1407.633697	697.0
1408.162471	713.7999878
1408.691189	725.5999756
1409.219852	737.5999756
1409.74846	751.4000244
1410.277013	734.7999878
1410.80551	718.7999878
1411.333952	701.4000244
1411.862339	694.2000122
1412.39067	689.0
1412.918946	681.4000244
1413.447167	679.4000244
1413.975333	679.5999756
1414.503444	681.0
1415.031499	680.4000244
1415.559499	692.2000122
1416.087444	678.5999756
1416.615333	677.0
1417.143167	677.2000122
1417.670947	680.0
1418.19867	679.5999756
1418.726339	675.2000122
1419.253952	672.2000122
1419.781511	677.4000244
1420.309014	676.0
1420.836461	676.0
1421.363854	673.5999756
1421.891191	677.2000122
1422.418474	675.4000244
1422.945701	676.5999756
1423.472872	674.7999878
1423.999989	677.7999878
1424.52705	678.7999878
1425.054057	676.0
1425.581008	673.5999756
1426.107904	676.5999756
1426.634745	675.5999756
1427.16153	676.7999878
1427.688261	674.4000244
1428.214936	672.7999878
1428.741556	673.2000122
1429.268121	672.0
1429.794631	672.5999756
1430.321085	677.2000122
1430.847485	676.0
1431.373829	675.7999878
1431.900118	674.5999756
1432.426353	674.7999878
1432.952532	675.5999756
1433.478655	675.4000244
1434.004724	672.2000122
1434.530738	677.4000244
1435.056696	676.7999878
1435.5826	678.0
1436.108448	672.7999878
1436.634241	674.2000122
1437.159979	675.5999756
1437.685662	677.7999878
1438.21129	676.2000122
1438.736863	674.4000244
1439.262381	671.0
1439.787843	674.0
1440.313251	673.0
1440.838603	675.2000122
1441.3639	673.7999878
1441.889143	672.5999756
1442.41433	675.0
1442.939462	674.0
1443.464539	678.7999878
1443.989561	673.4000244
1444.514528	674.4000244
1445.03944	674.4000244
1445.564297	674.2000122
1446.089099	673.5999756
1446.613846	673.4000244
1447.138537	676.2000122
1447.663174	678.2000122
1448.187756	670.5999756
1448.712282	673.0
1449.236754	675.2000122
1449.761171	678.2000122
1450.285532	672.0
1450.809839	677.5999756
1451.33409	673.2000122
1451.858287	671.2000122
1452.382428	674.7999878
1452.906515	672.4000244
1453.430546	670.7999878
1453.954523	676.2000122
1454.478444	675.2000122
1455.002311	675.0
1455.526123	677.4000244
1456.049879	673.0
1456.573581	675.0
1457.097227	670.0
1457.620819	673.4000244
1458.144356	674.7999878
1458.667837	674.7999878
1459.191264	672.4000244
1459.714636	673.5999756
1460.237952	675.4000244
1460.761214	675.7999878
1461.284421	675.0
1461.807573	676.4000244
1462.33067	674.4000244
1462.853712	692.4000244
1463.376699	708.2000122
1463.899632	679.0
1464.422509	674.0
1464.945331	671.7999878
1465.468099	671.0
1465.990811	672.2000122
1466.513469	674.7999878
1467.036071	676.4000244
1467.558619	671.2000122
1468.081112	673.4000244
1468.60355	672.2000122
1469.125933	671.7999878
1469.648261	674.2000122
1470.170534	672.7999878
1470.692752	672.4000244
1471.214916	674.7999878
1471.737024	671.2000122
1472.259078	674.4000244
1472.781077	672.7999878
1473.303021	671.7999878
1473.82491	670.2000122
1474.346744	671.4000244
1474.868523	671.4000244
1475.390248	671.4000244
1475.911917	673.4000244
1476.433532	670.7999878
1476.955092	670.4000244
1477.476597	675.5999756
1477.998047	673.0
1478.519442	669.5999756
1479.040783	669.5999756
1479.562068	673.0
1480.083299	668.5999756
1480.604475	670.7999878
1481.125596	673.2000122
1481.646663	671.0
1482.167674	670.2000122
1482.688631	667.7999878
1483.209533	668.5999756
1483.73038	672.0
1484.251172	669.7999878
1484.771909	670.2000122
1485.292592	671.2000122
1485.81322	670.7999878
1486.333793	671.2000122
1486.854311	670.5999756
1487.374775	671.5999756
1487.895183	673.2000122
1488.415537	670.5999756
1488.935836	669.4000244
1489.456081	671.4000244
1489.97627	671.0
1490.496405	670.2000122
1491.016485	671.2000122
1491.536511	671.2000122
1492.056481	671.2000122
1492.576397	668.4000244
1493.096258	668.5999756
1493.616064	671.5999756
1494.135816	669.0
1494.655513	670.5999756
1495.175155	667.0
1495.694742	670.0
1496.214274	669.0
1496.733752	673.0
1497.253175	668.7999878
1497.772544	670.7999878
1498.291858	669.4000244
1498.811116	670.2000122
1499.330321	668.5999756
1499.84947	679.0
1500.368565	668.2000122
1500.887605	670.0
1501.406591	667.2000122
1501.925521	670.4000244
1502.444397	667.0
1502.963219	668.7999878
1503.481985	673.2000122
1504.000697	667.4000244
1504.519355	669.7999878
1505.037957	671.4000244
1505.556505	669.5999756
1506.074999	670.2000122
1506.593437	668.4000244
1507.111821	669.4000244
1507.63015	667.7999878
1508.148425	670.4000244
1508.666645	668.0
1509.18481	671.7999878
1509.702921	667.4000244
1510.220977	669.2000122
1510.738979	675.7999878
1511.256925	673.4000244
1511.774817	670.5999756
1512.292655	670.4000244
1512.810438	668.0
1513.328166	669.4000244
1513.84584	671.0
1514.363459	670.4000244
1514.881023	672.2000122
1515.398533	670.7999878
1515.915988	671.0
1516.433389	672.4000244
1516.950734	671.2000122
1517.468026	670.0
1517.985263	666.4000244
1518.502445	669.4000244
1519.019572	667.5999756
1519.536645	668.7999878
1520.053664	668.0
1520.570628	672.0
1521.087537	668.7999878
1521.604392	667.2000122
1522.121192	667.4000244
1522.637937	670.7999878
1523.154628	669.4000244
1523.671265	671.5999756
1524.187847	670.0
1524.704374	669.0
1525.220847	670.5999756
1525.737265	676.4000244
1526.253629	699.7999878
1526.769938	681.0
1527.286192	673.5999756
1527.802392	668.4000244
1528.318538	670.0
1528.834629	669.4000244
1529.350666	668.0
1529.866648	669.7999878
1530.382575	667.7999878
1530.898448	671.0
1531.414266	669.4000244
1531.93003	669.0
1532.44574	671.2000122
1532.961395	669.5999756
1533.476995	668.4000244
1533.992541	672.5999756
1534.508033	668.0
1535.02347	669.5999756
1535.538852	668.0
1536.05418	670.7999878
1536.569454	673.4000244
1537.084673	671.4000244
1537.599837	671.4000244
1538.114947	669.2000122
1538.630003	669.0
1539.145004	666.4000244
1539.659951	670.5999756
1540.174843	670.0
1540.689681	670.7999878
1541.204465	669.7999878
1541.719194	669.0
1542.233868	669.4000244
1542.748488	670.5999756
1543.263054	668.0
1543.777565	673.0
1544.292022	667.7999878
1544.806424	669.5999756
1545.320772	670.2000122
1545.835066	668.5999756
1546.349305	668.7999878
1546.863489	665.2000122
1547.37762	670.5999756
1547.891696	670.7999878
1548.405717	668.5999756
1548.919684	670.4000244
1549.433597	670.4000244
1549.947455	670.0
1550.461259	667.2000122
1550.975009	669.4000244
1551.488704	671.0
1552.002345	667.2000122
1552.515931	669.7999878
1553.029463	667.5999756
1553.542941	669.5999756
1554.056364	669.0
1554.569733	671.7999878
1555.083048	669.0
1555.596308	669.5999756
1556.109514	668.7999878
1556.622665	668.5999756
1557.135762	670.0
1557.648805	672.0
1558.161794	668.7999878
1558.674728	674.5999756
1559.187608	670.0
1559.700433	668.2000122
1560.213205	670.0
1560.725921	669.0
1561.238584	671.5999756
1561.751192	670.5999756
1562.263746	669.4000244
1562.776246	671.0
1563.288691	673.2000122
1563.801082	672.7999878
1564.313419	668.2000122
1564.825701	673.5999756
1565.337929	673.4000244
1565.850103	674.2000122
1566.362223	672.0
1566.874288	671.0
1567.386299	674.7999878
1567.898256	675.0
1568.410158	671.0
1568.922007	672.4000244
1569.4338	674.2000122
1569.94554	669.4000244
1570.457226	672.5999756
1570.968857	668.2000122
1571.480434	671.7999878
1571.991956	671.5999756
1572.503425	672.0
1573.014839	670.2000122
1573.526199	668.7999878
1574.037505	671.4000244
1574.548756	670.7999878
1575.059953	669.2000122
1575.571096	669.0
1576.082185	670.0
1576.59322	670.5999756
1577.1042	666.5999756
1577.615126	667.7999878
1578.125998	671.4000244
1578.636816	671.2000122
1579.14758	672.5999756
1579.658289	671.0
1580.168944	670.2000122
1580.679545	667.7999878
1581.190092	670.7999878
1581.700585	667.4000244
1582.211023	671.0
1582.721407	670.7999878
1583.231737	670.5999756
1583.742013	671.0
1584.252235	667.5999756
1584.762403	670.2000122
1585.272516	669.2000122
1585.782575	669.7999878
1586.292581	668.5999756
1586.802532	668.4000244
1587.312428	669.0
1587.822271	671.0
1588.33206	668.2000122
1588.841794	669.5999756
1589.351474	668.0
1589.8611	668.5999756
1590.370672	668.2000122
1590.88019	670.5999756
1591.389654	671.5999756
1591.899064	674.0
1592.408419	666.2000122
