1042.452273	699.0
1043.018714	698.7999878
1043.585098	702.7999878
1044.151424	696.7999878
1044.717692	697.0
1045.283903	697.4000244
1045.850056	696.4000244
1046.416151	695.0
1046.982188	694.7999878
1047.548167	693.0
1048.114089	692.7999878
1048.679953	692.4000244
1049.24576	689.0
1049.811509	691.0
1050.3772	689.7999878
1050.942833	686.7999878
1051.508408	687.0
1052.073926	685.5999756
1052.639387	684.7999878
1053.204789	687.2000122
1053.770134	688.0
1054.335421	683.4000244
1054.900651	686.5999756
1055.465823	686.4000244
1056.030937	679.7999878
1056.595993	684.5999756
1057.160992	685.4000244
1057.725934	683.0
1058.290817	684.0
1058.855643	685.4000244
1059.420411	684.4000244
1059.985122	684.0
1060.549775	679.7999878
1061.114371	682.4000244
1061.678908	684.0
1062.243389	683.4000244
1062.807811	679.5999756
1063.372176	685.2000122
1063.936483	680.2000122
1064.500733	684.2000122
1065.064925	681.0
1065.62906	680.7999878
1066.193137	680.7999878
1066.757156	679.5999756
1067.321118	681.5999756
1067.885022	680.2000122
1068.448869	682.2000122
1069.012658	683.0
1069.57639	680.2000122
1070.140063	689.2000122
1070.70368	683.0
1071.267239	679.2000122
1071.83074	680.0
1072.394184	681.2000122
1072.95757	678.7999878
1073.520899	677.4000244
1074.08417	680.7999878
1074.647383	678.4000244
1075.21054	680.7999878
1075.773638	682.4000244
1076.336679	679.7999878
1076.899663	682.4000244
1077.462589	683.2000122
1078.025457	681.4000244
1078.588268	678.7999878
1079.151022	679.7999878
1079.713718	683.4000244
1080.276356	679.2000122
1080.838937	680.7999878
1081.401461	677.5999756
1081.963927	679.5999756
1082.526336	682.7999878
1083.088687	683.4000244
1083.650981	681.0
1084.213217	681.4000244
1084.775396	682.7999878
1085.337517	683.5999756
1085.899581	686.0
1086.461587	683.7999878
1087.023536	681.0
1087.585428	685.0
1088.147262	684.7999878
1088.709039	683.5999756
1089.270758	680.7999878
1089.83242	684.7999878
1090.394024	682.4000244
1090.955571	682.0
1091.517061	685.5999756
1092.078493	685.4000244
1092.639868	687.4000244
1093.201185	683.4000244
1093.762445	687.0
1094.323648	684.7999878
1094.884793	687.2000122
1095.445881	687.2000122
1096.006911	682.7999878
1096.567884	682.0
1097.1288	690.5999756
1097.689659	682.2000122
1098.25046	681.4000244
1098.811203	682.0
1099.37189	681.7999878
1099.932518	683.7999878
1100.49309	682.4000244
1101.053604	686.0
1101.614061	681.4000244
1102.174461	682.0
1102.734803	684.7999878
1103.295088	681.2000122
1103.855316	682.4000244
1104.415486	683.4000244
1104.975599	681.7999878
1105.535655	684.7999878
1106.095653	684.4000244
1106.655594	683.5999756
1107.215478	684.7999878
1107.775305	687.7999878
1108.335074	687.2000122
1108.894786	686.2000122
1109.45444	685.2000122
1110.014038	686.7999878
1110.573578	686.5999756
1111.133061	688.7999878
1111.692486	685.4000244
1112.251854	688.7999878
1112.811165	688.7999878
1113.370419	687.4000244
1113.929616	690.2000122
1114.488755	690.7999878
1115.047837	684.4000244
1115.606862	687.5999756
1116.16583	685.5999756
1116.72474	685.2000122
1117.283593	690.7999878
1117.842389	684.0
1118.401128	683.4000244
1118.959809	682.2000122
1119.518433	681.0
1120.077	682.4000244
1120.63551	680.7999878
1121.193963	682.2000122
1121.752358	680.7999878
1122.310697	681.2000122
1122.868978	678.7999878
1123.427202	678.4000244
1123.985368	680.7999878
1124.543478	678.5999756
1125.10153	680.2000122
1125.659526	680.2000122
1126.217464	676.5999756
1126.775345	678.0
1127.333168	679.5999756
1127.890935	683.7999878
1128.448644	679.2000122
1129.006297	681.4000244
1129.563892	680.7999878
1130.12143	678.7999878
1130.678911	681.5999756
1131.236335	679.4000244
1131.793701	678.4000244
1132.351011	676.7999878
1132.908263	680.0
1133.465458	677.2000122
1134.022597	677.4000244
1134.579678	678.7999878
1135.136702	678.4000244
1135.693669	678.5999756
1136.250578	677.2000122
1136.807431	676.7999878
1137.364227	679.2000122
1137.920965	678.0
1138.477647	676.5999756
1139.034271	678.4000244
1139.590839	679.7999878
1140.147349	679.4000244
1140.703802	677.0
1141.260198	676.2000122
1141.816537	675.5999756
1142.37282	677.5999756
1142.929045	679.7999878
1143.485213	677.7999878
1144.041323	678.4000244
1144.597377	676.7999878
1145.153374	678.5999756
1145.709314	676.5999756
1146.265197	676.4000244
1146.821023	676.4000244
1147.376792	681.5999756
1147.932503	679.2000122
1148.488158	677.0
1149.043756	676.4000244
1149.599297	676.4000244
1150.154781	677.0
1150.710207	677.5999756
1151.265577	679.7999878
1151.82089	675.4000244
1152.376146	677.7999878
1152.931345	677.5999756
1153.486487	679.7999878
1154.041572	679.5999756
1154.5966	677.4000244
1155.151571	677.2000122
1155.706485	678.5999756
1156.261342	679.5999756
1156.816142	677.0
1157.370885	678.2000122
1157.925572	676.5999756
1158.480201	676.7999878
1159.034774	677.2000122
1159.589289	681.7999878
1160.143748	677.2000122
1160.698149	677.5999756
1161.252494	680.0
1161.806782	676.2000122
1162.361013	677.2000122
1162.915187	677.4000244
1163.469304	677.2000122
1164.023364	678.7999878
1164.577368	677.0
1165.131314	675.7999878
1165.685204	678.5999756
1166.239036	676.5999756
1166.792812	676.7999878
1167.346531	677.0
1167.900193	676.4000244
1168.453798	678.0
1169.007347	679.2000122
1169.560838	674.2000122
1170.114273	673.0
1170.66765	678.7999878
1171.220971	678.2000122
1171.774235	679.4000244
1172.327443	673.7999878
1172.880593	675.2000122
1173.433687	677.2000122
1173.986723	676.2000122
1174.539703	679.5999756
1175.092626	676.7999878
1175.645493	676.7999878
1176.198302	679.7999878
1176.751055	676.0
1177.303751	682.0
1177.85639	681.0
1178.408972	679.7999878
1178.961498	679.4000244
1179.513966	681.4000244
1180.066378	680.2000122
1180.618733	678.7999878
1181.171032	681.0
1181.723273	679.4000244
1182.275458	682.0
1182.827586	679.7999878
1183.379657	681.2000122
1183.931672	682.0
1184.48363	683.2000122
1185.035531	682.4000244
1185.587375	680.5999756
1186.139162	685.7999878
1186.690893	682.0
1187.242567	680.7999878
1187.794184	682.4000244
1188.345745	684.5999756
1188.897249	683.5999756
1189.448696	681.2000122
1190.000086	685.4000244
1190.55142	681.0
1191.102697	682.5999756
1191.653918	683.2000122
1192.205081	678.4000244
1192.756188	678.7999878
1193.307238	699.5999756
1193.858232	678.7999878
1194.409169	678.4000244
1194.960049	676.4000244
1195.510872	681.5999756
1196.061639	680.4000244
1196.612349	684.2000122
1197.163003	678.7999878
1197.713599	673.5999756
1198.264139	679.5999756
1198.814623	672.5999756
1199.36505	675.2000122
1199.91542	676.0
1200.465734	677.0
1201.01599	679.5999756
1201.566191	679.0
1202.116334	674.2000122
1202.666421	675.7999878
1203.216452	674.7999878
1203.766425	673.4000244
1204.316343	677.2000122
1204.866203	676.7999878
1205.416007	677.2000122
1205.965754	678.4000244
1206.515445	678.0
1207.065079	680.7999878
1207.614657	678.2000122
1208.164177	677.7999878
1208.713642	680.0
1209.26305	676.4000244
1209.812401	679.0
1210.361695	674.7999878
1210.910933	677.4000244
1211.460115	680.0
1212.00924	680.5999756
1212.558308	681.5999756
1213.10732	677.2000122
1213.656275	677.7999878
1214.205174	680.7999878
1214.754016	678.5999756
1215.302801	677.2000122
1215.85153	682.4000244
1216.400203	679.0
1216.948819	680.0
1217.497378	680.7999878
1218.045881	680.4000244
1218.594327	680.0
1219.142717	679.2000122
1219.691051	679.4000244
1220.239327	685.0
1220.787548	680.4000244
1221.335712	683.7999878
1221.883819	679.0
1222.43187	684.0
1222.979864	684.4000244
1223.527802	683.5999756
1224.075683	681.5999756
1224.623508	684.2000122
1225.171277	682.5999756
1225.718989	680.7999878
1226.266644	680.4000244
1226.814243	682.4000244
1227.361786	684.7999878
1227.909272	685.5999756
1228.456702	683.2000122
1229.004075	684.2000122
1229.551392	684.2000122
1230.098652	683.2000122
1230.645856	685.4000244
1231.193003	683.5999756
1231.740094	680.0
1232.287129	684.7999878
1232.834107	686.2000122
1233.381029	688.4000244
1233.927894	682.0
1234.474703	680.7999878
1235.021455	684.5999756
1235.568151	684.2000122
1236.114791	683.4000244
1236.661374	682.4000244
1237.207901	683.5999756
1237.754372	681.5999756
1238.300786	681.0
1238.847144	682.4000244
1239.393445	682.0
1239.93969	682.4000244
1240.485879	683.5999756
1241.032011	682.0
1241.578087	683.5999756
1242.124106	680.0
1242.67007	685.7999878
1243.215976	683.5999756
1243.761827	682.4000244
1244.307621	686.2000122
1244.853359	687.0
1245.39904	685.2000122
1245.944665	687.2000122
1246.490234	682.2000122
1247.035746	682.4000244
1247.581203	682.2000122
1248.126602	684.5999756
1248.671946	681.4000244
1249.217233	684.5999756
1249.762464	680.5999756
1250.307638	684.5999756
1250.852757	684.2000122
1251.397819	683.2000122
1251.942824	686.2000122
1252.487774	685.7999878
1253.032667	684.5999756
1253.577503	683.5999756
1254.122284	683.7999878
1254.667008	684.7999878
1255.211676	684.7999878
1255.756288	683.4000244
1256.300843	682.7999878
1256.845342	684.7999878
1257.389785	687.4000244
1257.934172	685.4000244
1258.478502	690.2000122
1259.022776	687.4000244
1259.566994	688.7999878
1260.655261	688.2000122
1261.199311	692.0
1261.743304	696.5999756
1262.28724	698.5999756
1262.831121	702.7999878
1263.374945	708.5999756
1263.918713	710.5999756
1264.462425	713.0
1265.006081	710.0
1265.54968	702.2000122
1266.093223	693.0
1266.636711	693.0
1267.180141	689.7999878
1267.723516	688.4000244
1268.266835	687.7999878
1268.810097	688.5999756
1269.353303	688.2000122
1269.896453	688.2000122
1270.439547	686.5999756
1270.982584	685.7999878
1271.525566	687.2000122
1272.068491	685.0
1272.61136	686.4000244
1273.154173	687.0
1273.69693	684.5999756
1274.239631	687.2000122
1274.782275	683.7999878
1275.324864	686.5999756
1275.867396	683.0
1276.409872	685.5999756
1276.952292	686.5999756
1277.494656	687.2000122
1278.036964	687.7999878
1278.579215	690.5999756
1279.121411	694.7999878
1279.66355	693.4000244
1280.205634	699.4000244
1280.747661	707.0
1281.289632	716.4000244
1281.831547	740.5999756
1282.373406	798.4000244
1282.915209	897.4000244
1283.456955	1037.599976
1283.998646	1174.800049
1284.540281	1164.800049
1285.081859	993.4000244
1285.623381	837.5999756
1286.164848	755.0
1286.706258	727.5999756
1287.247612	705.4000244
1287.788911	704.2000122
1288.330153	697.5999756
1288.871339	698.5999756
1289.412469	697.4000244
1289.953543	690.2000122
1290.494561	689.0
1291.035523	689.5999756
1291.576428	692.2000122
1292.117278	691.4000244
1292.658072	689.2000122
1293.19881	686.5999756
1293.739492	685.5999756
1294.280118	688.0
1294.820687	687.5999756
1295.361201	685.7999878
1295.901659	682.7999878
1296.442061	690.5999756
1296.982406	682.5999756
1297.522696	686.2000122
1298.06293	681.2000122
1298.603108	687.4000244
1299.143229	686.2000122
1299.683295	686.2000122
1300.223305	691.0
1300.763259	688.0
1301.303157	688.2000122
1301.842999	687.5999756
1302.382785	687.7999878
1302.922515	686.7999878
1303.462189	687.4000244
1304.001807	684.4000244
1304.541369	683.4000244
1305.080875	685.0
1305.620326	686.5999756
1306.15972	683.7999878
1306.699058	682.5999756
1307.238341	684.0
1307.777567	683.2000122
1308.316738	683.2000122
1308.855853	684.7999878
1309.394912	686.0
1309.933915	682.0
1310.472862	680.2000122
1311.011753	682.0
1311.550588	684.5999756
1312.089367	682.5999756
1312.62809	684.4000244
1313.166758	683.0
1313.70537	685.4000244
1314.243925	682.7999878
1314.782425	682.4000244
1315.320869	680.4000244
1315.859257	682.7999878
1316.397589	681.4000244
1316.935866	681.5999756
1317.474086	681.4000244
1318.012251	680.5999756
1318.55036	680.4000244
1319.088413	681.0
1319.62641	679.7999878
1320.164351	682.2000122
1320.702236	680.2000122
1321.240066	678.2000122
1321.777839	681.4000244
1322.315557	680.2000122
1322.853219	680.5999756
1323.390826	677.5999756
1323.928376	682.2000122
1324.465871	682.4000244
1325.003309	678.7999878
1325.540692	677.2000122
1326.07802	683.0
1326.615291	681.7999878
1327.152506	681.4000244
1327.689666	679.7999878
1328.22677	680.7999878
1328.763818	677.4000244
1329.300811	678.2000122
1329.837747	681.4000244
1330.374628	681.7999878
1330.911453	678.4000244
1331.448222	679.7999878
1331.984936	678.5999756
1332.521594	681.0
1333.058196	678.0
1333.594742	679.7999878
1334.131232	677.7999878
1334.667667	680.7999878
1335.204046	680.5999756
1335.740369	679.0
1336.276637	676.4000244
1336.812848	677.7999878
1337.349004	680.5999756
1337.885105	681.5999756
1338.421149	681.0
1338.957138	680.0
1339.493071	679.0
1340.028949	681.2000122
1340.56477	678.2000122
1341.100536	677.0
1341.636246	678.5999756
1342.171901	678.4000244
1342.7075	676.4000244
1343.243043	679.0
1343.77853	682.2000122
1344.313962	681.4000244
1344.849338	679.0
1345.384659	676.7999878
1345.919923	679.2000122
1346.455133	680.7999878
1346.990286	679.4000244
1347.525384	679.5999756
1348.060426	680.4000244
1348.595412	682.2000122
1349.130343	676.4000244
1349.665218	681.7999878
1350.200037	681.4000244
1350.734801	680.7999878
1351.269509	679.4000244
1351.804162	679.2000122
1352.338758	680.2000122
1352.8733	684.4000244
1353.407785	682.2000122
1353.942215	682.2000122
1354.476589	681.0
1355.010908	678.2000122
1355.545171	678.2000122
1356.079379	680.7999878
1356.61353	681.0
1357.147627	679.7999878
1357.681667	677.2000122
1358.215652	679.5999756
1358.749582	681.0
1359.283456	679.0
1359.817274	681.5999756
1360.351037	681.2000122
1360.884744	679.4000244
1361.418395	683.2000122
1361.951991	681.4000244
1362.485531	684.0
1363.019016	681.0
1363.552445	682.2000122
1364.085819	680.4000244
1364.619137	683.5999756
1365.1524	683.7999878
1365.685607	685.2000122
1366.218758	684.4000244
1366.751854	682.2000122
1367.284894	683.2000122
1367.817879	679.7999878
1368.350808	684.2000122
1368.883682	686.5999756
1369.4165	690.7999878
1369.949263	702.2000122
1370.48197	697.7999878
1371.014622	688.5999756
1371.547218	682.5999756
1372.079758	684.2000122
1372.612244	685.0
1373.144673	683.4000244
1373.677047	686.4000244
1374.209366	684.7999878
1374.741629	683.0
1375.273836	686.4000244
1375.805989	684.2000122
1376.338085	687.4000244
1376.870126	688.0
1377.402112	687.0
1377.934042	685.4000244
1378.465917	690.5999756
1378.997736	686.7999878
1379.5295	687.2000122
1380.061208	690.0
1380.592861	689.2000122
1381.124459	697.2000122
1381.656	692.2000122
1382.187487	693.5999756
1382.718918	693.5999756
1383.250294	697.4000244
1383.781614	703.2000122
1384.312879	710.2000122
1384.844088	717.2000122
1385.375242	731.4000244
1385.90634	759.7999878
1386.437383	828.2000122
1386.968371	972.2000122
1387.499303	1344.199951
1388.03018	1743.599976
1388.561001	1554.199951
1389.091767	1079.800049
1389.622478	843.4000244
1390.153133	764.4000244
1390.683733	734.2000122
1391.214277	712.4000244
1391.744766	706.2000122
1392.2752	701.7999878
1392.805578	692.7999878
1393.335901	696.0
1393.866168	699.5999756
1394.396381	688.5999756
1394.926537	687.0
1395.456639	688.7999878
1395.986685	688.5999756
1396.516675	686.5999756
1397.046611	683.2000122
1397.576491	687.2000122
1398.106315	688.0
1398.636084	686.5999756
1399.165798	688.0
1399.695457	686.4000244
1400.22506	685.2000122
1400.754608	688.7999878
1401.284101	683.7999878
1401.813538	686.0
1402.34292	682.2000122
1402.872247	687.0
1403.401518	689.4000244
1403.930734	687.0
1404.459895	688.4000244
1404.989	689.7999878
1405.51805	687.4000244
1406.047045	688.4000244
1406.575984	692.0
1407.104869	698.7999878
1407.633697	696.4000244
1408.162471	709.5999756
1408.691189	720.2000122
1409.219852	729.2000122
1409.74846	734.2000122
1410.277013	728.5999756
1410.80551	714.0
1411.333952	696.4000244
1411.862339	694.0
1412.39067	687.2000122
1412.918946	687.5999756
1413.447167	686.4000244
1413.975333	686.4000244
1414.503444	682.2000122
1415.031499	680.5999756
1415.559499	696.2000122
1416.087444	685.0
1416.615333	682.7999878
1417.143167	681.7999878
1417.670947	676.7999878
1418.19867	681.7999878
1418.726339	679.5999756
1419.253952	677.7999878
1419.781511	681.4000244
1420.309014	679.7999878
1420.836461	678.4000244
1421.363854	679.4000244
1421.891191	681.4000244
1422.418474	680.2000122
1422.945701	683.7999878
1423.472872	682.5999756
1423.999989	681.7999878
1424.52705	679.7999878
1425.054057	681.0
1425.581008	681.0
1426.107904	680.2000122
1426.634745	680.0
1427.16153	682.0
1427.688261	679.7999878
1428.214936	680.5999756
1428.741556	675.2000122
1429.268121	678.0
1429.794631	680.4000244
1430.321085	679.5999756
1430.847485	679.5999756
1431.373829	679.4000244
1431.900118	680.0
1432.426353	675.0
1432.952532	677.7999878
1433.478655	682.0
1434.004724	680.0
1434.530738	676.5999756
1435.056696	678.4000244
1435.5826	678.4000244
1436.108448	681.0
1436.634241	677.5999756
1437.159979	679.4000244
1437.685662	681.2000122
1438.21129	678.4000244
1438.736863	682.4000244
1439.262381	677.5999756
1439.787843	678.4000244
1440.313251	677.5999756
1440.838603	677.4000244
1441.3639	676.7999878
1441.889143	678.7999878
1442.41433	682.2000122
1442.939462	677.0
1443.464539	675.5999756
1443.989561	678.2000122
1444.514528	681.4000244
1445.03944	682.2000122
1445.564297	683.5999756
1446.089099	680.4000244
1446.613846	677.5999756
1447.138537	679.4000244
1447.663174	679.5999756
1448.187756	679.7999878
1448.712282	683.0
1449.236754	681.2000122
1449.761171	678.7999878
1450.285532	678.7999878
1450.809839	681.7999878
1451.33409	680.4000244
1451.858287	678.4000244
1452.382428	681.0
1452.906515	679.2000122
1453.430546	682.5999756
1453.954523	678.5999756
1454.478444	679.4000244
1455.002311	680.2000122
1455.526123	682.2000122
1456.049879	681.7999878
1456.573581	677.4000244
1457.097227	677.4000244
1457.620819	676.4000244
1458.144356	679.2000122
1458.667837	678.0
1459.191264	677.4000244
1459.714636	681.5999756
1460.237952	678.2000122
1460.761214	681.2000122
1461.284421	680.4000244
1461.807573	683.2000122
1462.33067	679.2000122
1462.853712	702.5999756
1463.899632	685.5999756
1464.422509	680.2000122
1464.945331	678.0
1465.468099	679.0
1465.990811	679.7999878
1466.513469	676.5999756
1467.036071	677.2000122
1467.558619	676.5999756
1468.081112	677.5999756
1468.60355	682.4000244
1469.125933	681.0
1469.648261	679.5999756
1470.170534	682.0
1470.692752	676.7999878
1471.214916	678.7999878
1471.737024	676.5999756
1472.259078	680.4000244
1472.781077	680.0
1473.303021	680.0
1473.82491	682.0
1474.346744	677.0
1474.868523	676.5999756
1475.390248	678.4000244
1475.911917	679.2000122
1476.433532	677.0
1476.955092	679.2000122
1477.476597	676.2000122
1477.998047	675.4000244
1478.519442	676.2000122
1479.040783	676.4000244
1479.562068	676.7999878
1480.083299	676.5999756
1480.604475	674.7999878
1481.125596	678.4000244
1481.646663	675.7999878
1482.167674	675.4000244
1482.688631	675.2000122
1483.209533	672.7999878
1483.73038	676.2000122
1484.251172	675.5999756
1484.771909	675.5999756
1485.292592	676.0
1485.81322	674.7999878
1486.333793	675.5999756
1486.854311	674.2000122
1487.374775	675.7999878
1487.895183	675.7999878
1488.415537	674.7999878
1488.935836	675.0
1489.456081	676.0
1489.97627	676.7999878
1490.496405	677.4000244
1491.016485	678.0
1491.536511	673.4000244
1492.056481	675.2000122
1492.576397	674.4000244
1493.096258	673.7999878
1493.616064	673.5999756
1494.135816	676.0
1494.655513	674.4000244
1495.175155	676.2000122
1495.694742	676.4000244
1496.214274	675.7999878
1496.733752	672.4000244
1497.253175	672.7999878
1497.772544	675.0
1498.291858	677.2000122
1498.811116	677.5999756
1499.330321	674.5999756
1499.84947	682.7999878
1500.368565	674.0
1500.887605	673.5999756
1501.406591	673.5999756
1501.925521	673.2000122
1502.444397	674.0
1502.963219	674.4000244
1503.481985	675.2000122
1504.000697	675.7999878
1504.519355	673.5999756
1505.037957	676.0
1505.556505	675.2000122
1506.074999	674.7999878
1506.593437	676.0
1507.111821	671.4000244
1507.63015	674.4000244
1508.148425	673.0
1508.666645	673.5999756
1509.18481	676.2000122
1509.702921	676.4000244
1510.220977	676.5999756
1510.738979	686.2000122
1511.256925	674.2000122
1511.774817	672.5999756
1512.292655	674.7999878
1512.810438	673.2000122
1513.328166	675.2000122
1513.84584	675.5999756
1514.363459	674.4000244
1514.881023	673.7999878
1515.398533	672.5999756
1515.915988	673.4000244
1516.433389	674.7999878
1516.950734	677.4000244
1517.468026	677.4000244
1517.985263	673.7999878
1518.502445	677.7999878
1519.019572	672.0
1519.536645	673.4000244
1520.053664	671.2000122
1520.570628	675.4000244
1521.087537	673.0
1521.604392	674.4000244
1522.121192	671.4000244
1522.637937	674.5999756
1523.154628	673.5999756
1523.671265	674.5999756
1524.187847	677.5999756
1524.704374	677.4000244
1525.220847	675.0
1525.737265	684.2000122
1526.253629	709.5999756
1526.769938	691.7999878
1527.286192	676.4000244
1527.802392	676.2000122
1528.318538	676.5999756
1528.834629	673.0
1529.350666	676.7999878
1529.866648	675.0
1530.382575	674.2000122
1530.898448	676.7999878
1531.414266	672.2000122
1531.93003	670.4000244
1532.44574	671.5999756
1532.961395	676.5999756
1533.476995	677.0
1533.992541	673.0
1534.508033	672.2000122
1535.02347	673.4000244
1535.538852	673.0
1536.05418	675.2000122
1536.569454	672.7999878
1537.084673	674.5999756
1537.599837	676.0
1538.114947	678.2000122
1538.630003	674.0
1539.145004	671.5999756
1539.659951	675.4000244
1540.174843	676.2000122
1540.689681	674.2000122
1541.204465	672.0
1541.719194	673.2000122
1542.233868	673.4000244
1542.748488	677.2000122
1543.263054	675.5999756
1543.777565	673.0
1544.292022	672.5999756
1544.806424	674.2000122
1545.320772	673.5999756
1545.835066	674.5999756
1546.349305	675.7999878
1546.863489	673.7999878
1547.37762	678.2000122
1547.891696	675.2000122
1548.405717	673.5999756
1548.919684	674.4000244
1549.433597	678.2000122
1549.947455	676.7999878
1550.461259	677.5999756
1550.975009	672.4000244
1551.488704	678.2000122
1552.002345	674.2000122
1552.515931	676.4000244
1553.029463	677.0
1553.542941	673.2000122
1554.056364	676.5999756
1554.569733	677.0
1555.083048	677.4000244
1555.596308	674.0
1556.109514	673.7999878
1556.622665	676.0
1557.135762	676.2000122
1557.648805	675.5999756
1558.161794	673.5999756
1558.674728	676.5999756
1559.187608	675.0
1559.700433	670.0
1560.213205	674.0
1560.725921	675.5999756
1561.238584	679.0
1561.751192	676.2000122
1562.263746	679.4000244
1562.776246	679.5999756
1563.288691	678.4000244
1563.801082	675.7999878
1564.313419	675.2000122
1564.825701	677.0
1565.337929	680.0
1565.850103	680.7999878
1566.362223	679.0
1566.874288	681.0
1567.386299	680.2000122
1567.898256	681.4000244
1568.410158	681.2000122
1568.922007	682.0
1569.4338	680.2000122
1569.94554	675.0
1570.457226	676.0
1570.968857	677.7999878
1571.480434	674.5999756
1571.991956	676.2000122
1572.503425	677.4000244
1573.014839	673.2000122
1573.526199	677.0
1574.037505	675.0
1574.548756	672.7999878
1575.059953	675.0
1575.571096	676.2000122
1576.082185	675.0
1576.59322	675.2000122
1577.1042	673.0
1577.615126	676.2000122
1578.125998	679.5999756
1578.636816	678.2000122
1579.14758	675.4000244
1579.658289	672.7999878
1580.168944	675.7999878
1580.679545	673.2000122
1581.190092	675.2000122
1581.700585	673.7999878
1582.211023	676.2000122
1582.721407	679.4000244
1583.231737	674.0
1583.742013	680.4000244
1584.252235	679.7999878
1584.762403	675.5999756
1585.272516	675.4000244
1585.782575	678.0
1586.292581	678.2000122
1586.802532	676.0
1587.312428	676.5999756
1587.822271	675.2000122
1588.33206	672.7999878
1588.841794	675.0
1589.351474	677.0
1589.8611	678.4000244
1590.370672	673.5999756
1590.88019	676.4000244
1591.389654	676.4000244
1591.899064	678.0
1592.408419	674.7999878
