 1.042414189E+03	-1.753000069E+01
 1.042980685E+03	 1.659049988E+01
 1.043547124E+03	 4.502474308E+00
 1.044113505E+03	-5.395002365E+00
 1.044679828E+03	-1.687292862E+01
 1.045246093E+03	 2.067899132E+01
 1.045812300E+03	-6.296010017E+00
 1.046378449E+03	-3.248000145E-01
 1.046944540E+03	 7.751669407E+00
 1.047510573E+03	 4.910225868E+00
 1.048076548E+03	 6.761682034E-01
 1.048642465E+03	-1.768136215E+01
 1.049208325E+03	 6.534776688E+00
 1.049774126E+03	 1.076431942E+01
 1.050339869E+03	 5.795179367E+00
 1.050905555E+03	-1.998086929E+01
 1.051471183E+03	-3.904025555E-01
 1.052036752E+03	-1.175550461E+01
 1.052602264E+03	 2.074153328E+01
 1.053167718E+03	-5.382176876E+00
 1.053733114E+03	 4.685388565E+00
 1.054298452E+03	 1.089533329E+00
 1.054863733E+03	-1.395226002E+00
 1.055428955E+03	-3.261550903E+00
 1.055994119E+03	 6.625986099E+00
 1.056559226E+03	-3.490304232E+00
 1.057124275E+03	-1.639198303E+01
 1.057689266E+03	 1.168954468E+01
 1.058254199E+03	-8.169852257E+00
 1.058819074E+03	 1.169859505E+01
 1.059383891E+03	 2.198162556E+00
 1.059948650E+03	-5.610315800E-01
 1.060513352E+03	-1.280848122E+01
 1.061077996E+03	-5.412816048E+00
 1.061642582E+03	 7.468857288E+00
 1.062207110E+03	 1.367585754E+01
 1.062771580E+03	-1.486749172E+00
 1.063335992E+03	 9.266515732E+00
 1.063900347E+03	 7.074016571E+00
 1.064464643E+03	 1.134818077E+00
 1.065028882E+03	-1.962092209E+01
 1.065593063E+03	-7.901915073E+00
 1.066157187E+03	-4.157759666E+00
 1.066721252E+03	-1.586549759E+01
 1.067285260E+03	 1.788352251E+00
 1.067849210E+03	 1.167731667E+01
 1.068413102E+03	 5.119177818E+00
 1.068976936E+03	-2.945058346E+00
 1.069540713E+03	-2.350535631E+00
 1.070104431E+03	 5.754270554E+00
 1.070668092E+03	-1.278659344E+01
 1.071231696E+03	 1.280580425E+01
 1.071795241E+03	-2.986231089E+00
 1.072358729E+03	 8.639870644E+00
 1.072922159E+03	 1.220219016E+00
 1.073485531E+03	 6.803186417E+00
 1.074048845E+03	-1.574657440E+01
 1.074612102E+03	-1.252439022E+00
 1.075175301E+03	 1.535284042E+01
 1.075738442E+03	 5.333366871E+00
 1.076301525E+03	-1.242762947E+01
 1.076864551E+03	-4.789471626E+00
 1.077427519E+03	-1.538893938E+00
 1.077990429E+03	-5.718621254E+00
 1.078553281E+03	 6.576041222E+00
 1.079116076E+03	-3.397503138E+00
 1.079678813E+03	-1.206193686E+00
 1.080241492E+03	 4.541333199E+00
 1.080804114E+03	 7.916128159E+00
 1.081366678E+03	-9.167072296E+00
 1.081929184E+03	-4.873572826E+00
 1.082491633E+03	-1.198623896E+00
 1.083054024E+03	 6.115547180E+00
 1.083616357E+03	-3.066627979E+00
 1.084178632E+03	 8.507667542E+00
 1.084740850E+03	 2.622257233E+01
 1.085303010E+03	 1.152255535E+01
 1.085865113E+03	 3.550159836E+01
 1.086427158E+03	 8.265276909E+00
 1.086989145E+03	 3.717885733E+00
 1.087551074E+03	 2.994697809E+00
 1.088112946E+03	-6.570261955E+00
 1.088674760E+03	 1.204081535E+01
 1.089236517E+03	-8.243741989E+00
 1.089798216E+03	-1.405072975E+01
 1.090359857E+03	-2.106025696E+01
 1.090921440E+03	 4.149237633E+00
 1.091482966E+03	-1.480390358E+01
 1.092044435E+03	 1.805434418E+01
 1.092605845E+03	 1.521615601E+01
 1.093167199E+03	-7.628603935E+00
 1.093728494E+03	 1.601737738E+00
 1.094289732E+03	 3.742618084E+00
 1.094850912E+03	-1.041414022E+00
 1.095412035E+03	 2.524190903E+00
 1.095973100E+03	-1.464090586E+00
 1.096534107E+03	-5.221264839E+00
 1.097095057E+03	-6.970598221E+00
 1.097655950E+03	-1.169874668E-01
 1.098216784E+03	 2.530838251E+00
 1.098777561E+03	 4.660349846E+00
 1.099338281E+03	-1.334280109E+01
 1.099898943E+03	-4.520850182E+00
 1.100459547E+03	 4.535126686E-01
 1.101020094E+03	-8.568254471E+00
 1.101580584E+03	-1.605800247E+01
 1.102141015E+03	-1.826574135E+01
 1.102701389E+03	-1.900541306E+01
 1.103261706E+03	 1.481299210E+01
 1.103821965E+03	-2.073459053E+01
 1.104382167E+03	 6.957896233E+00
 1.104942311E+03	 4.688451290E+00
 1.105502397E+03	-8.766918182E+00
 1.106062426E+03	 5.175779819E+00
 1.106622398E+03	-7.589391708E+00
 1.107182312E+03	 2.614502907E-01
 1.107742168E+03	-1.391157722E+01
 1.108301967E+03	-1.530447769E+01
 1.108861708E+03	-4.331305504E+00
 1.109421392E+03	-2.212794495E+01
 1.109981019E+03	-1.827251434E+01
 1.110540587E+03	 4.230518341E-01
 1.111100099E+03	 4.328041077E-01
 1.111659553E+03	-2.383137512E+01
 1.112218949E+03	-2.122530365E+01
 1.112778288E+03	-1.259116364E+01
 1.113337570E+03	 1.639228821E+00
 1.113896794E+03	-2.722024918E+01
 1.114455960E+03	 2.786460876E+00
 1.115015069E+03	-1.975857925E+01
 1.115574121E+03	-1.762154770E+01
 1.116133115E+03	-1.679621124E+01
 1.116692052E+03	-2.784467697E+01
 1.117250931E+03	-1.930096054E+01
 1.117809753E+03	-3.549289703E-01
 1.118368517E+03	-6.932767868E+00
 1.118927224E+03	-2.382229996E+01
 1.119485873E+03	-2.373580933E+00
 1.120044465E+03	-2.579455185E+01
 1.120603000E+03	 8.407268524E-01
 1.121161477E+03	-1.189180374E+01
 1.121719897E+03	-3.847965240E+00
 1.122278259E+03	-1.004781532E+01
 1.122836564E+03	-1.118935585E+01
 1.123394812E+03	-8.890645981E+00
 1.123953002E+03	 1.305843925E+01
 1.124511135E+03	-2.979217148E+01
 1.125069210E+03	-2.983634949E+01
 1.125627228E+03	-1.301021385E+01
 1.126185189E+03	-6.555711746E+00
 1.126743092E+03	-1.843883514E+01
 1.127300938E+03	-3.263758469E+01
 1.127858726E+03	-1.212585068E+01
 1.128416457E+03	 7.206203461E+00
 1.128974131E+03	-9.555313110E+00
 1.129531748E+03	-1.593634033E+01
 1.130089307E+03	-4.859693146E+01
 1.130646808E+03	-2.298703384E+01
 1.131204252E+03	-7.000644684E+00
 1.131761639E+03	-3.634587479E+01
 1.132318969E+03	-5.266498566E+00
 1.132876241E+03	-2.714462662E+01
 1.133433456E+03	-1.431026077E+01
 1.133990614E+03	-2.090927887E+01
 1.134547714E+03	-3.016380310E+01
 1.135104757E+03	-1.386171532E+01
 1.135661743E+03	-4.431013107E+00
 1.136218671E+03	-9.183694839E+00
 1.136775542E+03	-2.178192139E-01
 1.137332356E+03	-2.178120804E+01
 1.137889112E+03	-1.915997696E+01
 1.138445811E+03	-1.172601318E+01
 1.139002453E+03	-1.735143280E+01
 1.139559037E+03	-1.263404846E+01
 1.140115565E+03	-1.631999207E+01
 1.140672035E+03	-1.269513512E+01
 1.141228447E+03	-1.897341919E+01
 1.141784803E+03	-1.281496429E+01
 1.142341101E+03	-1.156164932E+01
 1.142897342E+03	-2.542947769E+01
 1.143453525E+03	-2.217443466E+01
 1.144009651E+03	-1.869842148E+01
 1.144565721E+03	-2.750353622E+01
 1.145121732E+03	-3.764966965E+01
 1.145677687E+03	-9.607639313E-01
 1.146233584E+03	-2.841287231E+01
 1.146789424E+03	-7.845874786E+00
 1.147345207E+03	-1.192377090E+01
 1.147900933E+03	-2.884656143E+01
 1.148456601E+03	-2.573818588E+01
 1.149012212E+03	-2.013058472E+01
 1.149567766E+03	-3.504774857E+01
 1.150123263E+03	-3.793556213E+01
 1.150678702E+03	-1.401415062E+01
 1.151234085E+03	-1.983926392E+01
 1.151789410E+03	-2.271896362E+01
 1.152344678E+03	-2.909913254E+01
 1.152899888E+03	-6.017883301E+00
 1.153455042E+03	-2.261497879E+01
 1.154010138E+03	-1.952241898E+01
 1.154565177E+03	-2.071019554E+01
 1.155120159E+03	-1.989813614E+01
 1.155675084E+03	-3.545623779E+01
 1.156229951E+03	-1.317243004E+01
 1.156784762E+03	-1.560265732E+01
 1.157339515E+03	-1.765480232E+01
 1.157894211E+03	-2.761268044E+01
 1.158448850E+03	-1.503840446E+01
 1.159003432E+03	-2.526973915E+01
 1.159557956E+03	-1.225261879E+01
 1.160112424E+03	-1.507486725E+01
 1.160666834E+03	-7.864410400E+00
 1.161221187E+03	-2.636519241E+01
 1.161775483E+03	-1.821097565E+01
 1.162329722E+03	-2.729962921E+01
 1.162883904E+03	-2.329302979E+01
 1.163438029E+03	-3.068894196E+01
 1.163992096E+03	-1.836524200E+01
 1.164546107E+03	-3.722167206E+01
 1.165100060E+03	-1.392606354E+01
 1.165653956E+03	-1.936610413E+01
 1.166207795E+03	-1.465545654E+00
 1.166761577E+03	-2.636415100E+01
 1.167315302E+03	-5.269432068E+00
 1.167868970E+03	-1.662925720E+01
 1.168422581E+03	-4.482302856E+01
 1.168976134E+03	-1.743236542E+01
 1.169529631E+03	-3.067672729E+01
 1.170083070E+03	-3.507362366E+01
 1.170636453E+03	-1.331625748E+01
 1.171189778E+03	 8.390037537E+00
 1.171743046E+03	 4.084243774E+00
 1.172296257E+03	-4.211272430E+01
 1.172849412E+03	-2.418358612E+01
 1.173402509E+03	 4.099065781E+00
 1.173955549E+03	 5.749122620E+00
 1.174508532E+03	-1.183540154E+01
 1.175061458E+03	-6.617635727E+00
 1.175614327E+03	-5.094101906E+00
 1.176167138E+03	-6.446102142E+00
 1.176719893E+03	-2.067322350E+01
 1.177272591E+03	-2.125831032E+01
 1.177825232E+03	-1.389204741E+00
 1.178377816E+03	-2.415347099E-02
 1.178930342E+03	 2.210965157E-01
 1.179482812E+03	 1.335874796E+00
 1.180035225E+03	-1.702728653E+01
 1.180587581E+03	-6.353894711E+00
 1.181139879E+03	 2.040174007E+00
 1.181692121E+03	 6.270308495E-01
 1.182244306E+03	-2.670166731E+00
 1.182796434E+03	-8.929276466E+00
 1.183348504E+03	-5.340545654E+00
 1.183900518E+03	 2.535277605E+00
 1.184452475E+03	 5.919556618E-01
 1.185004375E+03	-8.009654045E+00
 1.185556218E+03	-5.323620319E+00
 1.186108004E+03	 1.036506844E+01
 1.186659733E+03	 3.289738417E+00
 1.187211405E+03	 1.429347992E-01
 1.187763020E+03	-2.341891766E+00
 1.188314578E+03	 1.974010849E+01
 1.188866079E+03	-1.131420803E+01
 1.189417523E+03	-2.441090965E+01
 1.189968910E+03	 7.118185520E+00
 1.190520241E+03	 2.970842361E+00
 1.191071514E+03	 6.789062023E+00
 1.191622731E+03	-3.013034105E+00
 1.192173890E+03	-1.487832069E+01
 1.192724993E+03	-3.603561878E+00
 1.193276039E+03	-8.940040588E+00
 1.193827027E+03	-1.263375568E+01
 1.194377959E+03	 1.632941437E+01
 1.194928834E+03	 1.021469593E+00
 1.195479653E+03	-9.506051064E+00
 1.196030414E+03	 7.657144547E+00
 1.196581118E+03	 3.122384548E-01
 1.197131766E+03	-8.351533890E+00
 1.197682356E+03	-6.360664368E+00
 1.198232890E+03	 9.002906799E+00
 1.198783367E+03	-1.938703537E+00
 1.199333786E+03	-2.316157722E+01
 1.199884150E+03	 6.825459480E+00
 1.200434456E+03	 3.530233860E+00
 1.200984705E+03	-1.101777458E+01
 1.201534898E+03	 2.152241945E+00
 1.202085033E+03	-1.467383289E+01
 1.202635112E+03	 9.304111481E+00
 1.203185134E+03	 4.382020473E+00
 1.203735099E+03	-2.913990974E+00
 1.204285007E+03	-2.214093208E+00
 1.204834859E+03	-6.588519573E+00
 1.205384653E+03	-1.496097660E+01
 1.205934391E+03	-4.339419365E+00
 1.206484072E+03	-1.815552711E+01
 1.207033696E+03	-2.730898380E+00
 1.207583263E+03	-1.723819351E+01
 1.208132774E+03	-1.755995369E+01
 1.208682228E+03	-1.669735718E+01
 1.209231624E+03	-1.049462318E+01
 1.209780965E+03	-1.485192585E+01
 1.210330248E+03	 9.413022995E+00
 1.210879474E+03	-8.252063751E+00
 1.211428644E+03	-1.136853600E+01
 1.211977757E+03	-1.766812325E+00
 1.212526813E+03	-1.410095215E+01
 1.213075813E+03	-2.530951500E+00
 1.213624755E+03	-1.623875427E+01
 1.214173641E+03	-7.572537422E+00
 1.214722470E+03	-1.487406826E+01
 1.215271242E+03	-9.709525108E+00
 1.215819958E+03	 2.673160315E+00
 1.216368617E+03	-2.331002617E+01
 1.216917219E+03	-5.275013924E+00
 1.217465764E+03	-6.669989109E+00
 1.218014253E+03	-9.812767029E+00
 1.218562685E+03	-7.803477287E+00
 1.219111060E+03	 1.054594994E+01
 1.219659378E+03	-2.287248993E+01
 1.220207640E+03	-9.178858757E+00
 1.220755845E+03	-6.637037277E+00
 1.221303993E+03	-1.880920219E+01
 1.221852085E+03	-2.154723167E+01
 1.222400119E+03	 3.614862919E+00
 1.222948097E+03	 5.969032288E+00
 1.223496019E+03	-1.101678467E+01
 1.224043883E+03	-8.848356247E+00
 1.224591691E+03	 9.420869350E-01
 1.225139443E+03	-3.225740051E+01
 1.225687137E+03	-1.843675995E+01
 1.226234775E+03	-1.689210510E+01
 1.226782357E+03	-7.413326263E+00
 1.227329881E+03	-7.182478905E+00
 1.227877349E+03	-1.232750034E+01
 1.228424760E+03	-3.502514839E+00
 1.228972115E+03	-1.395740032E+01
 1.229519413E+03	-1.104021549E+01
 1.230066654E+03	-3.467023373E+00
 1.230613839E+03	 1.204298973E+00
 1.231160967E+03	 1.935628891E+00
 1.231708038E+03	-7.768917084E+00
 1.232255053E+03	-2.097539520E+01
 1.232802011E+03	-1.773986435E+01
 1.233348912E+03	 6.829791069E+00
 1.233895757E+03	-1.296660233E+01
 1.234442545E+03	-3.104487038E+01
 1.234989277E+03	-4.599076271E+00
 1.235535951E+03	 5.820787430E+00
 1.236082570E+03	-2.853342056E+00
 1.236629131E+03	-2.317740250E+01
 1.237175636E+03	-1.116739845E+01
 1.237722085E+03	-3.246138763E+01
 1.238268477E+03	-9.111312866E+00
 1.238814812E+03	-1.475117111E+01
 1.239361091E+03	 3.602973938E+00
 1.239907313E+03	-1.850811005E+00
 1.240453478E+03	 2.129465103E+00
 1.240999587E+03	 4.953689575E+00
 1.241545640E+03	-2.493196487E+01
 1.242091636E+03	-1.732560730E+01
 1.242637575E+03	-1.015724373E+01
 1.243183457E+03	 4.011182785E+00
 1.243729284E+03	 4.557611465E+00
 1.244275053E+03	-9.519889832E+00
 1.244820766E+03	-1.300739288E+01
 1.245366423E+03	-2.127088547E+01
 1.245912022E+03	-1.804031372E+01
 1.246457566E+03	-1.123735428E+00
 1.247003053E+03	-3.483154297E+00
 1.247548483E+03	-9.530506134E+00
 1.248093857E+03	-3.339138031E-01
 1.248639174E+03	-1.559725571E+01
 1.249184435E+03	-1.508059311E+01
 1.249729639E+03	-3.223869324E+00
 1.250274787E+03	-1.555313873E+01
 1.250819878E+03	 1.769540787E+00
 1.251364912E+03	-5.869716644E+00
 1.251909891E+03	-3.113302994E+01
 1.252454812E+03	-1.199627686E+01
 1.252999677E+03	-2.441751480E+01
 1.253544486E+03	-9.562755585E+00
 1.254089238E+03	-1.829986572E+00
 1.254633934E+03	 7.467880249E-01
 1.255178573E+03	-1.051843262E+01
 1.255723156E+03	-1.597165298E+01
 1.256267682E+03	-1.114686203E+01
 1.256812152E+03	 3.175872803E+00
 1.257356565E+03	-1.240138245E+01
 1.257900922E+03	 2.889423370E+00
 1.258445223E+03	 9.906173706E+00
 1.258989467E+03	 1.729354858E-01
 1.259533654E+03	 4.843635559E+00
 1.260077785E+03	-1.798159027E+01
 1.260621860E+03	 1.733512878E+01
 1.261165878E+03	-9.082153320E+00
 1.261709840E+03	 4.210575104E+00
 1.262253745E+03	 2.633251190E+00
 1.262797594E+03	 2.363872528E+00
 1.263341386E+03	-9.431438446E+00
 1.263885123E+03	-9.852859497E+00
 1.264428802E+03	 2.499725342E+00
 1.264972425E+03	 1.631546021E-02
 1.265515992E+03	 1.718490982E+01
 1.266059503E+03	-3.046546936E+00
 1.266602957E+03	-1.387204742E+01
 1.267146354E+03	 2.078845215E+01
 1.267689696E+03	-2.296910095E+01
 1.268232980E+03	-1.142669678E+01
 1.268776209E+03	-4.662292480E+00
 1.269319381E+03	 7.382057190E+00
 1.269862497E+03	-8.227638245E+00
 1.270405556E+03	-1.221332550E+01
 1.270948559E+03	-6.355064392E+00
 1.271491506E+03	-7.654907227E+00
 1.272034396E+03	 1.413530731E+01
 1.272577230E+03	-2.699858093E+01
 1.273120007E+03	-3.114517212E+00
 1.273662728E+03	-4.568443298E+00
 1.274205393E+03	 4.443519592E+00
 1.274748002E+03	 7.374877930E-01
 1.275290554E+03	 8.533355713E+00
 1.275833050E+03	 7.311706543E-01
 1.276375489E+03	-1.962300110E+01
 1.276917872E+03	 1.085072327E+01
 1.277460199E+03	-4.509666443E+00
 1.278002470E+03	 2.459201813E+01
 1.278544684E+03	 2.332353973E+01
 1.279086842E+03	-5.658988953E+00
 1.279628943E+03	-2.138962555E+01
 1.280170989E+03	 2.023696899E+00
 1.280712978E+03	-2.595896912E+01
 1.281254910E+03	-6.605743408E+00
 1.281796787E+03	 1.052938080E+01
 1.282338607E+03	 2.063240814E+01
 1.282880371E+03	-1.791061401E+01
 1.283422078E+03	 2.056231689E+01
 1.283963729E+03	 6.955146790E+00
 1.284505324E+03	-1.062418365E+01
 1.285046863E+03	-9.425498962E+00
 1.285588345E+03	 9.399017334E+00
 1.286129772E+03	 1.100994415E+02
 1.286671142E+03	 1.694178772E+02
 1.287212455E+03	 7.249010468E+01
 1.287753713E+03	 1.469234467E+01
 1.288294914E+03	 4.108367920E+00
 1.288836059E+03	-2.189651489E+00
 1.289377147E+03	 1.441217041E+01
 1.289918180E+03	-9.140472412E-01
 1.290459156E+03	-7.184417725E+00
 1.291000076E+03	 6.197052002E+00
 1.291540940E+03	 1.764449310E+01
 1.292081747E+03	-1.352629089E+01
 1.292622499E+03	-8.330459595E-01
 1.293163194E+03	 2.045592499E+01
 1.293703833E+03	 1.003280640E+01
 1.294244415E+03	 1.788159180E+01
 1.294784942E+03	-1.761978149E+00
 1.295325412E+03	-1.162574768E+01
 1.295865826E+03	-1.758767700E+01
 1.296406184E+03	-3.267700195E+00
 1.296946486E+03	-2.823989868E+00
 1.297486731E+03	-5.444366455E+00
 1.298026921E+03	-1.498954773E+00
 1.298567054E+03	-4.771743774E+00
 1.299107131E+03	 1.169925690E+01
 1.299647152E+03	 1.373416901E+01
 1.300187116E+03	 1.838821411E+00
 1.300727025E+03	 1.311332703E+00
 1.301266877E+03	-2.061448669E+01
 1.301806673E+03	-6.424377441E+00
 1.302346413E+03	 5.641456604E+00
 1.302886097E+03	 1.529910278E+01
 1.303425725E+03	-1.287574768E+00
 1.303965297E+03	-2.012438965E+01
 1.304504812E+03	-1.224540710E+01
 1.305044272E+03	 6.409210205E+00
 1.305583675E+03	 1.128569031E+01
 1.306123022E+03	-7.522087097E+00
 1.306662313E+03	-1.901623535E+01
 1.307201548E+03	-3.018569946E+00
 1.307740727E+03	 1.691677856E+01
 1.308279849E+03	-1.484176636E+00
 1.308818916E+03	-1.045379639E+00
 1.309357926E+03	-6.636947632E+00
 1.309896881E+03	 5.812454224E-01
 1.310435779E+03	 6.983066559E+00
 1.310974621E+03	 1.982589722E+00
 1.311513407E+03	-9.886245728E+00
 1.312052137E+03	-1.817143250E+01
 1.312590811E+03	 5.573013306E+00
 1.313129429E+03	 6.947052002E+00
 1.313667991E+03	 6.100791931E+00
 1.314206497E+03	-6.647872925E+00
 1.314744946E+03	-2.395900345E+01
 1.315283340E+03	-3.872547150E+00
 1.315821678E+03	-1.281249237E+01
 1.316359959E+03	 7.115095139E+00
 1.316898184E+03	 1.292228508E+01
 1.317436354E+03	 5.638956070E+00
 1.317974467E+03	 1.479112625E+00
 1.318512525E+03	 1.084675789E+01
 1.319050526E+03	 1.743194771E+01
 1.319588471E+03	 9.644515038E+00
 1.320126360E+03	 8.450572968E+00
 1.320664194E+03	 4.320008278E+00
 1.321201971E+03	-9.811115265E+00
 1.321739692E+03	-1.032085609E+01
 1.322277357E+03	-9.141265869E+00
 1.322814967E+03	 5.751651764E+00
 1.323352520E+03	 4.583899498E+00
 1.323890017E+03	 1.029142570E+01
 1.324427458E+03	-1.302982330E+01
 1.324964843E+03	 1.754220963E+01
 1.325502173E+03	-2.889458847E+01
 1.326039446E+03	 1.707787991E+00
 1.326576663E+03	 2.315282106E+00
 1.327113824E+03	-8.102159500E+00
 1.327650930E+03	-1.387047768E+01
 1.328187979E+03	-9.538407326E-01
 1.328724972E+03	-2.972184181E+00
 1.329261910E+03	-1.993623137E+00
 1.329798791E+03	 5.703846931E+00
 1.330335617E+03	-1.723889351E+00
 1.330872386E+03	-1.936820626E+00
 1.331409100E+03	-3.055058002E+00
 1.331945758E+03	-1.394600987E+00
 1.332482360E+03	 1.724450588E-01
 1.333018905E+03	 1.401601982E+01
 1.333555395E+03	 2.144023418E+00
 1.334091829E+03	 1.420239544E+01
 1.334628207E+03	-8.983024597E+00
 1.335164529E+03	 4.347532272E+00
 1.335700796E+03	 6.178343773E+00
 1.336237006E+03	 3.389586210E+00
 1.336773160E+03	 2.631472111E+00
 1.337309259E+03	-6.144044876E+00
 1.337845301E+03	 1.067310143E+01
 1.338381288E+03	-1.290914249E+01
 1.338917219E+03	 5.612220764E-01
 1.339453094E+03	-6.865744114E+00
 1.339988913E+03	 2.171904564E+00
 1.340524676E+03	-3.221654892E+00
 1.341060383E+03	 1.918746758E+01
 1.341596034E+03	 8.513442039E+00
 1.342131630E+03	-7.283835411E+00
 1.342667170E+03	 6.379691124E+00
 1.343202653E+03	-1.341391945E+01
 1.343738081E+03	-9.345971346E-01
 1.344273453E+03	 1.207971096E+01
 1.344808770E+03	-1.215099335E+00
 1.345344030E+03	 2.425143719E+00
 1.345879235E+03	-2.649549007E+00
 1.346414383E+03	-3.067121506E+00
 1.346949476E+03	-1.297506809E+00
 1.347484513E+03	-1.274069977E+01
 1.348019494E+03	 7.869305134E+00
 1.348554420E+03	-1.644519806E+01
 1.349089289E+03	 6.983625412E+00
 1.349624103E+03	-8.238048553E+00
 1.350158861E+03	 7.487018108E+00
 1.350693563E+03	 5.807218552E+00
 1.351228209E+03	-6.965323925E+00
 1.351762800E+03	-8.740787506E+00
 1.352297334E+03	 2.012895107E+00
 1.352831813E+03	-1.584108353E+01
 1.353366236E+03	 4.578964233E+00
 1.353900604E+03	 1.715703011E+01
 1.354434915E+03	 9.829122543E+00
 1.354969171E+03	-1.212822676E+00
 1.355503371E+03	 3.365196943E+00
 1.356037515E+03	-1.645475960E+01
 1.356571604E+03	 5.869243622E+00
 1.357105636E+03	 3.362128496E+00
 1.357639613E+03	 2.822960377E+00
 1.358173535E+03	-6.240224838E-01
 1.358707400E+03	 5.367124557E+00
 1.359241210E+03	-2.667543888E+00
 1.359774964E+03	 6.259857178E+00
 1.360308662E+03	 6.813443184E+00
 1.360842304E+03	-1.409290218E+01
 1.361375891E+03	-1.759117126E+00
 1.361909422E+03	 2.420791864E+00
 1.362442897E+03	 2.162825108E+00
 1.362976317E+03	-9.465012550E+00
 1.363509680E+03	-1.042110443E+00
 1.364042989E+03	-2.808055162E+00
 1.364576241E+03	-9.458761215E-01
 1.365109438E+03	 1.290371895E+00
 1.365642579E+03	 5.926867008E+00
 1.366175664E+03	-2.279863167E+01
 1.366708693E+03	-2.080988312E+01
 1.367241667E+03	-2.438712692E+01
 1.367774585E+03	-8.092185020E+00
 1.368307448E+03	 7.798886299E+00
 1.368840255E+03	 4.630020142E+00
 1.369373006E+03	-1.882715225E+00
 1.369905701E+03	 2.884612083E+00
 1.370438341E+03	-1.146787643E+01
 1.370970925E+03	 1.047706604E+00
 1.371503454E+03	-3.372705460E+00
 1.372035926E+03	 8.395070076E+00
 1.372568344E+03	-4.085147858E+00
 1.373100705E+03	 2.556757927E+00
 1.373633011E+03	 7.542673111E+00
 1.374165261E+03	-1.068522835E+01
 1.374697456E+03	 7.920879364E+00
 1.375229595E+03	-6.829509735E-01
 1.375761678E+03	 2.064323425E+01
 1.376293705E+03	-1.073846436E+01
 1.376825677E+03	 2.215851307E+00
 1.377357594E+03	 3.360230446E+00
 1.377889455E+03	-4.089322090E+00
 1.378421260E+03	 1.152118874E+01
 1.378953009E+03	-8.926292419E+00
 1.379484703E+03	 1.196623421E+01
 1.380016342E+03	 4.906854033E-01
 1.380547924E+03	 5.017085552E+00
 1.381079452E+03	 2.201493502E+00
 1.381610923E+03	 4.695903778E+00
 1.382142339E+03	 1.197038269E+01
 1.382673699E+03	-4.657130718E+00
 1.383205004E+03	-1.034636497E+00
 1.383736253E+03	-1.350607872E+01
 1.384267447E+03	 2.706480980E+00
 1.384798585E+03	-3.826945782E+00
 1.385329668E+03	-1.301878071E+01
 1.385860695E+03	-1.846042252E+01
 1.386391666E+03	 1.156001806E+00
 1.386922582E+03	-7.253326416E+00
 1.387453442E+03	-8.228586197E+00
 1.387984247E+03	-2.575716019E+00
 1.388514996E+03	 2.685328484E+01
 1.389045690E+03	 1.118864136E+02
 1.389576328E+03	 2.464436188E+02
 1.390106910E+03	 6.921694183E+01
 1.390637437E+03	 3.276340008E+00
 1.391167909E+03	 4.053923130E+00
 1.391698325E+03	 1.292151928E+01
 1.392228685E+03	-5.078815460E+00
 1.392758990E+03	 5.322979927E+00
 1.393289240E+03	-4.711216927E+00
 1.393819434E+03	-4.953393936E-01
 1.394349572E+03	-1.127739334E+01
 1.394879655E+03	-1.156338406E+01
 1.395409683E+03	-8.879355431E+00
 1.395939655E+03	-5.039262772E+00
 1.396469571E+03	-7.543096542E+00
 1.396999432E+03	-1.304497719E+01
 1.397529237E+03	 3.321149826E+00
 1.398058987E+03	 3.163345337E+00
 1.398588682E+03	 8.817554474E+00
 1.399118321E+03	 1.003776550E+00
 1.399647905E+03	 1.171600819E+01
 1.400177433E+03	 5.838191032E+00
 1.400706906E+03	-3.443613052E+00
 1.401236323E+03	-1.344546318E+01
 1.401765685E+03	 6.608754635E+00
 1.402294991E+03	-6.641191483E+00
 1.402824242E+03	 2.916876793E+00
 1.403353437E+03	-1.586298752E+01
 1.403882577E+03	-3.587015152E+00
 1.404411662E+03	-2.967027664E+00
 1.404940691E+03	 4.996794701E+00
 1.405469665E+03	 1.166310310E-01
 1.405998583E+03	 1.644419670E+00
 1.406527446E+03	-4.111392975E+00
 1.407056253E+03	-9.499318123E+00
 1.407585005E+03	 4.174826622E+00
 1.408113702E+03	-6.741248131E+00
 1.408642343E+03	 3.214690685E+00
 1.409170929E+03	 9.205882549E-01
 1.409699460E+03	-9.525733948E+00
 1.410227935E+03	 1.558195877E+01
 1.410756354E+03	 3.019748497E+01
 1.411284719E+03	 2.842916489E+00
 1.411813028E+03	-7.575700283E+00
 1.412341281E+03	-5.304530144E+00
 1.412869479E+03	 1.455459213E+01
 1.413397622E+03	-2.086055946E+01
 1.413925710E+03	-1.393575287E+01
 1.414453742E+03	-1.179510498E+01
 1.414981718E+03	-1.994621277E+00
 1.415509640E+03	-1.302890778E-01
 1.416037506E+03	 7.415823936E+00
 1.416565316E+03	 5.241778851E+00
 1.417093072E+03	 4.199514389E+00
 1.417620772E+03	 9.775097847E+00
 1.418148416E+03	 6.384069920E-01
 1.418676005E+03	 4.313557625E+00
 1.419203539E+03	-1.335550499E+01
 1.419731018E+03	-5.154841423E+00
 1.420258441E+03	 2.511403561E+00
 1.420785809E+03	-1.232234383E+01
 1.421313122E+03	 4.247911930E+00
 1.421840379E+03	 3.634174824E+00
 1.422367582E+03	-1.007361603E+01
 1.422894728E+03	 1.076219177E+01
 1.423421820E+03	 3.840072155E-01
 1.423948856E+03	 1.533824682E+00
 1.424475837E+03	-5.812289238E+00
 1.425002762E+03	-2.243950367E-01
 1.425529633E+03	-6.916438103E+00
 1.426056448E+03	 2.136138344E+01
 1.426583207E+03	 1.244376945E+01
 1.427109912E+03	-8.220009804E+00
 1.427636561E+03	 9.668220520E+00
 1.428163155E+03	-4.279596806E+00
 1.428689694E+03	-2.823462009E+00
 1.429216177E+03	 2.293856430E+01
 1.429742605E+03	-1.193396091E+00
 1.430268978E+03	-8.014092445E-01
 1.430795296E+03	-6.373531342E+00
 1.431321558E+03	-6.199640274E+00
 1.431847765E+03	-5.837800980E+00
 1.432373917E+03	 6.675984383E+00
 1.432900014E+03	 1.206966686E+01
 1.433426056E+03	-7.128587723E+00
 1.433952042E+03	-9.328889847E+00
 1.434477973E+03	 4.047555923E-01
 1.435003849E+03	-4.565238953E-02
 1.435529669E+03	-4.652109146E+00
 1.436055435E+03	 2.897443771E+00
 1.436581145E+03	-1.236305809E+01
 1.437106800E+03	 6.744447708E+00
 1.437632399E+03	-7.680988312E-01
 1.438157944E+03	-1.774663544E+01
 1.438683433E+03	 1.198283195E+01
 1.439208868E+03	-1.296181488E+01
 1.439734247E+03	 3.957555771E+00
 1.440259570E+03	 9.224925995E+00
 1.440784839E+03	-9.255758286E+00
 1.441310053E+03	-2.448443222E+01
 1.441835211E+03	-1.643510437E+01
 1.442360314E+03	-1.238782501E+01
 1.442885362E+03	-4.466545105E+00
 1.443410355E+03	-5.199254990E+00
 1.443935292E+03	-1.071401787E+01
 1.444460175E+03	-9.070774078E+00
 1.444985002E+03	-9.487529755E+00
 1.445509774E+03	 2.367664337E+00
 1.446034491E+03	-2.010902023E+01
 1.446559153E+03	-1.074587250E+01
 1.447083760E+03	 2.001334000E+01
 1.447608312E+03	-1.068538666E+01
 1.448132808E+03	-8.572166443E+00
 1.448657250E+03	 4.819061279E+00
 1.449181636E+03	-9.347709656E+00
 1.449705967E+03	-7.832469940E+00
 1.450230243E+03	 7.494831085E+00
 1.450754464E+03	 1.179207993E+01
 1.451278630E+03	 1.561328888E+00
 1.451802741E+03	 9.516586304E+00
 1.452326797E+03	-1.440214539E+01
 1.452850797E+03	-2.416816711E+00
 1.453374743E+03	-6.521488190E+00
 1.453898633E+03	-2.894020844E+01
 1.454422468E+03	 3.791191101E+00
 1.454946249E+03	-1.815460205E+00
 1.455469974E+03	-7.642108917E+00
 1.455993644E+03	 1.165131187E+01
 1.456517259E+03	-2.447932434E+01
 1.457040819E+03	-8.873836517E+00
 1.457564324E+03	-1.154234314E+01
 1.458087773E+03	-8.684539795E-02
 1.458611168E+03	-2.009342194E+00
 1.459134508E+03	-1.670577240E+01
 1.459657793E+03	-2.509619904E+01
 1.460181022E+03	-1.857861710E+01
 1.460704197E+03	-5.970972061E+00
 1.461227316E+03	 1.163879585E+01
 1.461750381E+03	-3.623487473E+00
 1.462273390E+03	-1.394776535E+01
 1.462796345E+03	-9.589979172E+00
 1.463319244E+03	 1.205187607E+01
 1.463842089E+03	-9.022266388E+00
 1.464364878E+03	 3.805659294E+00
 1.464887613E+03	-5.956352234E+00
 1.465410292E+03	-4.383544922E-01
 1.465932916E+03	-1.413829041E+01
 1.466455486E+03	 9.313778877E+00
 1.466978000E+03	 2.988031387E+00
 1.467500460E+03	-1.033582401E+01
 1.468022864E+03	 9.242444992E+00
 1.468545214E+03	-4.833218098E+00
 1.469067508E+03	-1.532817841E+00
 1.469589748E+03	-3.388348579E+00
 1.470111932E+03	 1.377077103E+00
 1.470634062E+03	-1.666991806E+01
 1.471156136E+03	 4.687213421E+00
 1.471678156E+03	-6.857704163E+00
 1.472200120E+03	-1.228049755E+01
 1.472722030E+03	-2.460528374E+01
 1.473243885E+03	-1.490399933E+01
 1.473765685E+03	 4.137408257E+00
 1.474287430E+03	 7.088768482E+00
 1.474809120E+03	 7.542258739E+00
 1.475330755E+03	-3.192243576E+00
 1.475852335E+03	-2.706676960E+00
 1.476373860E+03	-7.849805355E-01
 1.476895330E+03	 2.198723793E+00
 1.477416745E+03	 4.430558205E+00
 1.477938106E+03	-1.769599915E+00
 1.478459411E+03	 9.643168449E-01
 1.478980662E+03	-1.207763672E+01
 1.479501857E+03	-4.563521385E+00
 1.480022998E+03	-7.295392990E+00
 1.480544084E+03	-2.969139576E+00
 1.481065115E+03	-2.210480690E+01
 1.481586091E+03	-1.721440506E+01
 1.482107012E+03	-2.619333267E-01
 1.482627878E+03	-6.527326584E+00
 1.483148690E+03	-1.994664383E+01
 1.483669446E+03	-5.835894585E+00
 1.484190148E+03	-9.317008972E+00
 1.484710794E+03	-5.841102600E-01
 1.485231386E+03	-1.193075180E+00
 1.485751923E+03	 8.044095993E+00
 1.486272406E+03	 7.593334198E+00
 1.486792833E+03	-4.513284683E+00
 1.487313205E+03	-1.908589172E+01
 1.487833523E+03	 4.147701263E+00
 1.488353786E+03	-2.176633835E+00
 1.488873994E+03	 6.654722214E+00
 1.489394147E+03	-1.949184418E+00
 1.489914245E+03	-2.292489624E+01
 1.490434288E+03	-1.215458679E+01
 1.490954277E+03	-1.666402435E+01
 1.491474211E+03	-1.386337662E+01
 1.491994090E+03	-8.844539642E+00
 1.492513914E+03	-1.216756058E+01
 1.493033683E+03	-1.580243683E+01
 1.493553398E+03	-2.971237183E+00
 1.494073057E+03	-1.091777802E+01
 1.494592662E+03	 2.849822998E+00
 1.495112212E+03	-1.087637520E+01
 1.495631708E+03	-8.134487152E+00
 1.496151148E+03	-9.958400726E+00
 1.496670534E+03	 4.309947968E+00
 1.497189865E+03	 4.834383011E+00
 1.497709141E+03	-9.612973213E+00
 1.498228362E+03	 4.189927101E+00
 1.498747529E+03	-3.097080231E+00
 1.499266641E+03	-9.229824066E+00
 1.499785698E+03	 9.176397324E-01
 1.500304700E+03	-4.154632568E+00
 1.500823648E+03	 9.243247986E+00
 1.501342540E+03	 1.113364697E-01
 1.501861379E+03	 9.796941280E-01
 1.502380162E+03	-5.931679726E+00
 1.502898890E+03	-1.515689945E+01
 1.503417564E+03	-1.727844834E+00
 1.503936183E+03	-7.730460167E+00
 1.504454748E+03	 4.791385531E-01
 1.504973257E+03	 5.911012173E+00
 1.505491712E+03	 3.123160839E+00
 1.506010112E+03	-1.150925255E+01
 1.506528458E+03	 4.006494045E+00
 1.507046748E+03	-1.437554646E+01
 1.507564984E+03	-1.010736656E+01
 1.508083166E+03	-3.304967880E+00
 1.508601292E+03	-7.158349037E+00
 1.509119364E+03	-1.669449806E+00
 1.509637381E+03	 2.881669044E+00
 1.510155344E+03	-1.781298828E+01
 1.510673252E+03	-3.670793533E+00
 1.511191105E+03	-2.096986294E+00
 1.511708903E+03	-9.705008507E+00
 1.512226647E+03	 8.497188568E+00
 1.512744336E+03	 1.325556517E+00
 1.513261971E+03	 5.718210220E+00
 1.513779550E+03	-5.130825043E-01
 1.514297076E+03	-2.248027325E+00
 1.514814546E+03	 3.269142151E+00
 1.515331962E+03	-5.307395935E+00
 1.515849323E+03	-6.601641655E+00
 1.516366629E+03	 9.100294113E+00
 1.516883881E+03	-9.873535156E+00
 1.517401078E+03	-6.891064167E+00
 1.517918221E+03	 1.602563858E+01
 1.518435309E+03	 5.763237953E+00
 1.518952342E+03	 7.388504744E-01
 1.519469321E+03	-5.035578728E+00
 1.519986245E+03	 5.657787323E-01
 1.520503114E+03	 5.318978310E+00
 1.521019929E+03	-1.519912243E+01
 1.521536689E+03	 5.054668903E+00
 1.522053395E+03	-6.309354782E+00
 1.522570046E+03	 2.166574001E+00
 1.523086642E+03	 5.830571651E+00
 1.523603184E+03	 9.334522247E+00
 1.524119671E+03	-1.115339851E+01
 1.524636103E+03	-6.144700050E-01
 1.525152481E+03	-7.520242214E+00
 1.525668805E+03	 5.258060455E+00
 1.526185073E+03	 4.510309696E+00
 1.526701288E+03	-8.771371841E+00
 1.527217447E+03	 1.510904312E+00
 1.527733552E+03	 9.601188660E+00
 1.528249603E+03	 9.727485657E+00
 1.528765599E+03	-8.424147606E+00
 1.529281540E+03	-4.171822548E+00
 1.529797427E+03	-2.348354530E+01
 1.530313259E+03	 9.808622003E-01
 1.530829037E+03	 9.479166985E+00
 1.531344760E+03	-4.048515320E+00
 1.531860429E+03	 2.919877052E+00
 1.532376043E+03	-2.705832958E+00
 1.532891602E+03	-2.231376648E+00
 1.533407107E+03	-9.067035675E+00
 1.533922558E+03	 6.159318447E+00
 1.534437954E+03	 1.616574860E+01
 1.534953295E+03	-1.073754668E+00
 1.535468582E+03	-4.503237724E+00
 1.535983815E+03	-6.866706848E+00
 1.536498993E+03	-4.298046589E+00
 1.537014116E+03	-1.037936687E+01
 1.537529185E+03	-1.998612165E+00
 1.538044199E+03	-3.519899845E+00
 1.538559159E+03	-7.110661030E+00
 1.539074064E+03	-2.057536125E+01
 1.539588915E+03	 6.505176544E+00
 1.540103712E+03	 4.905795097E+00
 1.540618454E+03	-9.095674753E-01
 1.541133141E+03	-2.100849628E+00
 1.541647774E+03	-1.144805717E+01
 1.542162353E+03	 9.072754860E+00
 1.542676877E+03	-8.064086437E-01
 1.543191346E+03	 3.968441963E+00
 1.543705761E+03	-3.254627705E+00
 1.544220122E+03	-4.883794308E+00
 1.544734428E+03	-5.138824940E+00
 1.545248680E+03	 1.041992188E+00
 1.545762877E+03	 2.596822739E+00
 1.546277020E+03	 9.811622620E+00
 1.546791109E+03	 1.556320190E+00
 1.547305143E+03	-2.097495842E+01
 1.547819122E+03	-1.913833809E+01
 1.548333047E+03	 3.288190603E+00
 1.548846918E+03	 2.206828594E-01
 1.549360734E+03	-2.910982847E+00
 1.549874496E+03	-2.382684708E+00
 1.550388204E+03	 1.107340050E+01
 1.550901857E+03	 7.593936920E-01
 1.551415455E+03	 2.343244314E+00
 1.551929000E+03	-1.253258801E+01
 1.552442489E+03	-1.199703217E-01
 1.552955925E+03	-7.992875099E+00
 1.553469306E+03	 1.412184334E+01
 1.553982632E+03	-1.447156048E+01
 1.554495905E+03	 1.283279800E+01
 1.555009123E+03	 1.176011848E+01
 1.555522286E+03	-5.228157520E+00
 1.556035395E+03	-1.743313217E+01
 1.556548450E+03	-1.679306269E+00
 1.557061450E+03	-2.177042198E+01
 1.557574396E+03	-9.248520851E+00
 1.558087288E+03	 6.375432014E-01
 1.558600125E+03	 6.188724995E+00
 1.559112908E+03	 1.636285019E+01
 1.559625637E+03	-3.999922514E+00
 1.560138311E+03	-1.637357712E+00
 1.560650931E+03	-1.305639553E+01
 1.561163497E+03	 6.794831276E+00
 1.561676008E+03	 1.912278652E+00
 1.562188465E+03	-6.282786369E+00
 1.562700867E+03	 1.964913940E+01
 1.563213216E+03	 1.200073838E+00
 1.563725509E+03	-5.342299938E+00
 1.564237749E+03	 7.495667458E+00
 1.564749934E+03	-8.456253052E+00
 1.565262065E+03	 3.896004677E+00
 1.565774142E+03	-6.320032120E+00
 1.566286164E+03	-1.860991001E+00
 1.566798132E+03	-1.362524223E+01
 1.567310046E+03	-2.668373108E+00
 1.567821906E+03	 8.752771616E-01
 1.568333711E+03	-6.210069656E+00
 1.568845462E+03	 7.614378452E+00
 1.569357158E+03	 9.417660713E+00
 1.569868801E+03	 5.071420670E+00
 1.570380389E+03	 1.291403198E+01
 1.570891922E+03	 1.614579678E+00
 1.571403402E+03	-7.921536446E+00
 1.571914827E+03	-3.782639027E+00
 1.572426198E+03	-4.972466469E+00
 1.572937515E+03	-3.092611790E+00
 1.573448777E+03	-2.319762802E+01
 1.573959985E+03	 1.635269165E+00
 1.574471139E+03	 1.095712376E+01
 1.574982239E+03	-1.016824913E+01
 1.575493285E+03	-8.372278214E-01
 1.576004276E+03	 1.151482582E+01
 1.576515213E+03	 7.351989746E-01
 1.577026096E+03	-7.621978760E+00
 1.577536924E+03	 1.774377823E+00
 1.578047698E+03	-5.534538269E+00
 1.578558419E+03	 1.001403809E+00
 1.579069084E+03	-2.268959045E+00
 1.579579696E+03	 8.553314209E-02
 1.580090254E+03	-5.459571838E+00
 1.580600757E+03	-6.132774353E+00
 1.581111206E+03	-1.186846924E+01
 1.581621601E+03	-3.912788391E+00
 1.582131941E+03	 7.256057739E+00
 1.582642228E+03	 4.993850708E+00
 1.583152460E+03	-2.801502228E+00
 1.583662638E+03	-9.030174255E+00
 1.584172762E+03	 3.205879211E+00
 1.584682832E+03	 2.068439484E+00
 1.585192847E+03	-1.034643555E+01
 1.585702809E+03	-9.508991241E-01
 1.586212716E+03	 1.700312805E+01
 1.586722569E+03	-5.500446320E+00
 1.587232368E+03	-1.727776527E+00
 1.587742113E+03	-2.144706249E+00
 1.588251803E+03	 1.203261375E+01
 1.588761440E+03	-1.219719291E+00
 1.589271022E+03	 6.396097183E+00
 1.589780550E+03	-5.639779091E+00
 1.590290024E+03	-1.581547499E+00
 1.590799444E+03	-3.086098671E+01
 1.591308810E+03	 2.067369080E+01
 1.591818121E+03	 3.773637772E+00
 1.592327379E+03	-7.837057114E-01
