1042.414189	870.0
1042.980685	867.0
1043.547124	867.0
1044.113505	873.0
1044.679828	868.0
1045.246093	864.0
1045.8123	861.0
1046.378449	869.0
1046.94454	855.0
1047.510573	862.0
1048.076548	878.0
1048.642465	856.0
1049.208325	872.0
1049.774126	858.0
1050.339869	856.0
1050.905555	869.0
1051.471183	859.0
1052.036752	855.0
1052.602264	844.0
1053.167718	848.0
1053.733114	849.0
1054.298452	853.0
1054.863733	846.0
1055.428955	861.0
1055.994119	854.0
1056.559226	848.0
1057.124275	845.0
1057.689266	851.0
1058.254199	838.0
1058.819074	851.0
1059.383891	854.0
1059.94865	846.0
1060.513352	843.0
1061.077996	838.0
1061.642582	845.0
1062.20711	839.0
1062.77158	849.0
1063.335992	833.0
1063.900347	856.0
1064.464643	839.0
1065.028882	840.0
1065.593063	840.0
1066.157187	841.0
1066.721252	842.0
1067.28526	826.0
1067.84921	835.0
1068.413102	820.0
1068.976936	824.0
1069.540713	835.0
1070.104431	849.0
1070.668092	845.0
1071.231696	825.0
1072.358729	829.0
1072.922159	824.0
1073.485531	839.0
1074.048845	827.0
1074.612102	824.0
1075.175301	813.0
1075.738442	836.0
1076.301525	833.0
1076.864551	816.0
1077.427519	821.0
1077.990429	837.0
1078.553281	838.0
1079.116076	827.0
1079.678813	832.0
1080.241492	841.0
1080.804114	821.0
1081.366678	827.0
1081.929184	827.0
1082.491633	841.0
1083.054024	834.0
1083.616357	829.0
1084.178632	828.0
1084.74085	823.0
1085.30301	830.0
1085.865113	825.0
1086.427158	798.0
1086.989145	819.0
1087.551074	814.0
1088.112946	818.0
1088.67476	815.0
1089.236517	838.0
1089.798216	825.0
1090.359857	829.0
1090.92144	832.0
1091.482966	822.0
1092.044435	822.0
1092.605845	821.0
1093.167199	825.0
1093.728494	819.0
1094.289732	823.0
1094.850912	819.0
1095.412035	836.0
1095.9731	816.0
1096.534107	824.0
1097.095057	813.0
1097.65595	817.0
1098.216784	808.0
1098.777561	816.0
1099.338281	809.0
1100.459547	805.0
1101.020094	825.0
1101.580584	818.0
1102.141015	821.0
1102.701389	812.0
1103.261706	816.0
1103.821965	817.0
1104.382167	834.0
1104.942311	821.0
1105.502397	802.0
1106.062426	802.0
1106.622398	809.0
1107.182312	829.0
1107.742168	818.0
1108.301967	812.0
1108.861708	809.0
1109.421392	812.0
1109.981019	815.0
1110.540587	799.0
1111.100099	813.0
1111.659553	818.0
1112.218949	813.0
1112.778288	811.0
1113.33757	795.0
1113.896794	813.0
1114.45596	821.0
1115.015069	822.0
1115.574121	812.0
1116.133115	807.0
1116.692052	804.0
1117.250931	818.0
1117.809753	811.0
1118.368517	813.0
1118.927224	822.0
1119.485873	815.0
1120.044465	810.0
1120.603	819.0
1121.161477	815.0
1121.719897	819.0
1122.278259	804.0
1122.836564	803.0
1123.394812	803.0
1123.953002	821.0
1124.511135	809.0
1125.06921	807.0
1125.627228	798.0
1126.185189	803.0
1126.743092	817.0
1127.300938	807.0
1127.858726	800.0
1128.416457	818.0
1128.974131	817.0
1129.531748	815.0
1130.089307	822.0
1130.646808	806.0
1131.204252	808.0
1131.761639	810.0
1132.318969	807.0
1132.876241	811.0
1133.433456	812.0
1133.990614	811.0
1134.547714	808.0
1135.104757	817.0
1135.661743	824.0
1136.218671	795.0
1136.775542	809.0
1137.332356	797.0
1137.889112	808.0
1138.445811	812.0
1139.002453	806.0
1139.559037	798.0
1140.115565	810.0
1140.672035	810.0
1141.228447	798.0
1141.784803	802.0
1142.341101	813.0
1142.897342	805.0
1143.453525	805.0
1144.009651	803.0
1144.565721	815.0
1145.121732	805.0
1145.677687	810.0
1146.233584	809.0
1146.789424	803.0
1147.345207	811.0
1147.900933	810.0
1148.456601	819.0
1149.012212	817.0
1149.567766	818.0
1150.123263	794.0
1150.678702	806.0
1151.234085	805.0
1151.78941	802.0
1152.344678	808.0
1152.899888	805.0
1153.455042	804.0
1154.010138	818.0
1154.565177	808.0
1155.120159	818.0
1155.675084	805.0
1156.229951	820.0
1156.784762	804.0
1157.339515	801.0
1157.894211	802.0
1158.44885	791.0
1159.003432	801.0
1159.557956	807.0
1160.112424	793.0
1160.666834	801.0
1161.221187	813.0
1161.775483	814.0
1162.329722	817.0
1162.883904	797.0
1163.438029	799.0
1163.992096	818.0
1164.546107	799.0
1165.10006	803.0
1165.653956	801.0
1166.207795	810.0
1166.761577	808.0
1167.315302	805.0
1167.86897	793.0
1168.422581	797.0
1168.976134	794.0
1169.529631	812.0
1170.08307	796.0
1170.636453	794.0
1171.189778	795.0
1171.743046	801.0
1172.296257	803.0
1172.849412	803.0
1173.402509	804.0
1173.955549	808.0
1174.508532	809.0
1175.061458	802.0
1175.614327	800.0
1176.167138	802.0
1176.719893	799.0
1177.272591	795.0
1177.825232	808.0
1178.377816	786.0
1178.930342	809.0
1179.482812	802.0
1180.035225	793.0
1180.587581	790.0
1181.139879	788.0
1181.692121	811.0
1182.244306	797.0
1182.796434	797.0
1183.348504	821.0
1183.900518	796.0
1184.452475	815.0
1185.004375	798.0
1185.556218	795.0
1186.108004	798.0
1186.659733	795.0
1187.211405	808.0
1187.76302	799.0
1188.314578	810.0
1188.866079	804.0
1189.417523	794.0
1189.96891	794.0
1190.520241	802.0
1191.071514	794.0
1191.622731	791.0
1192.17389	798.0
1192.724993	793.0
1193.276039	825.0
1193.827027	810.0
1194.377959	804.0
1194.928834	789.0
1195.479653	803.0
1196.030414	798.0
1196.581118	796.0
1197.131766	803.0
1197.682356	783.0
1198.23289	790.0
1198.783367	797.0
1199.333786	796.0
1199.88415	785.0
1200.434456	792.0
1200.984705	791.0
1201.534898	791.0
1202.085033	804.0
1202.635112	802.0
1203.185134	794.0
1203.735099	809.0
1204.285007	793.0
1204.834859	804.0
1205.384653	796.0
1205.934391	788.0
1206.484072	795.0
1207.033696	791.0
1207.583263	800.0
1208.132774	793.0
1208.682228	791.0
1209.231624	805.0
1209.780965	798.0
1210.330248	799.0
1210.879474	799.0
1211.428644	803.0
1211.977757	793.0
1212.526813	804.0
1213.075813	799.0
1213.624755	802.0
1214.173641	794.0
1214.72247	821.0
1215.271242	806.0
1215.819958	804.0
1216.368617	789.0
1216.917219	803.0
1217.465764	808.0
1218.014253	797.0
1218.562685	804.0
1219.11106	804.0
1219.659378	799.0
1220.20764	809.0
1220.755845	799.0
1221.303993	791.0
1221.852085	784.0
1222.400119	805.0
1222.948097	792.0
1223.496019	801.0
1224.043883	788.0
1224.591691	796.0
1225.139443	793.0
1225.687137	806.0
1226.234775	796.0
1226.782357	792.0
1227.329881	798.0
1227.877349	800.0
1228.42476	788.0
1228.972115	794.0
1229.519413	796.0
1230.066654	802.0
1230.613839	791.0
1231.160967	806.0
1231.708038	808.0
1232.255053	811.0
1232.802011	810.0
1233.348912	819.0
1233.895757	790.0
1234.442545	792.0
1234.989277	799.0
1235.535951	803.0
1236.08257	796.0
1236.629131	807.0
1237.175636	796.0
1237.722085	805.0
1238.268477	802.0
1238.814812	798.0
1239.361091	797.0
1239.907313	799.0
1240.453478	811.0
1240.999587	785.0
1241.54564	796.0
1242.091636	795.0
1242.637575	805.0
1243.183457	790.0
1243.729284	794.0
1244.275053	808.0
1244.820766	793.0
1245.366423	792.0
1245.912022	796.0
1246.457566	792.0
1247.003053	804.0
1247.548483	791.0
1248.093857	797.0
1248.639174	789.0
1249.184435	796.0
1249.729639	797.0
1250.274787	787.0
1251.364912	790.0
1251.909891	787.0
1252.454812	794.0
1252.999677	801.0
1253.544486	799.0
1254.089238	796.0
1254.633934	789.0
1255.178573	792.0
1255.723156	800.0
1256.267682	788.0
1256.812152	795.0
1257.356565	796.0
1257.900922	810.0
1258.445223	794.0
1258.989467	777.0
1259.533654	785.0
1260.077785	799.0
1260.62186	771.0
1261.165878	781.0
1261.70984	790.0
1262.253745	802.0
1262.797594	787.0
1263.341386	797.0
1263.885123	810.0
1264.428802	793.0
1264.972425	799.0
1265.515992	820.0
1266.059503	855.0
1266.602957	832.0
1267.146354	802.0
1267.689696	800.0
1268.23298	785.0
1268.776209	785.0
1269.319381	786.0
1269.862497	803.0
1270.405556	784.0
1270.948559	793.0
1271.491506	782.0
1272.034396	796.0
1272.57723	793.0
1273.120007	784.0
1273.662728	796.0
1274.205393	800.0
1274.748002	790.0
1275.290554	793.0
1275.83305	792.0
1276.375489	812.0
1276.917872	799.0
1277.460199	799.0
1278.00247	787.0
1278.544684	792.0
1279.086842	798.0
1279.628943	797.0
1280.170989	796.0
1280.712978	801.0
1281.25491	794.0
1281.796787	801.0
1282.338607	790.0
1282.880371	791.0
1283.422078	794.0
1283.963729	784.0
1284.505324	794.0
1285.046863	787.0
1285.588345	855.0
1286.129772	1039.0
1286.671142	1142.0
1287.212455	872.0
1287.753713	796.0
1288.294914	792.0
1288.836059	798.0
1289.377147	791.0
1289.91818	790.0
1290.459156	793.0
1291.000076	796.0
1291.54094	794.0
1292.081747	784.0
1292.622499	797.0
1293.163194	796.0
1293.703833	801.0
1294.244415	797.0
1294.784942	782.0
1295.325412	790.0
1295.865826	785.0
1296.406184	805.0
1296.946486	796.0
1297.486731	805.0
1298.026921	784.0
1298.567054	792.0
1299.107131	805.0
1299.647152	790.0
1300.187116	787.0
1300.727025	788.0
1301.266877	789.0
1301.806673	800.0
1302.346413	787.0
1302.886097	780.0
1303.425725	774.0
1303.965297	796.0
1304.504812	791.0
1305.044272	784.0
1305.583675	787.0
1306.123022	791.0
1306.662313	789.0
1307.201548	785.0
1307.740727	798.0
1308.279849	786.0
1308.818916	781.0
1309.357926	777.0
1309.896881	792.0
1310.435779	789.0
1310.974621	794.0
1311.513407	788.0
1312.052137	779.0
1312.590811	783.0
1313.129429	798.0
1313.667991	777.0
1314.206497	786.0
1314.744946	786.0
1315.28334	784.0
1315.821678	802.0
1316.359959	792.0
1316.898184	772.0
1317.436354	795.0
1317.974467	771.0
1318.512525	783.0
1319.050526	793.0
1319.588471	797.0
1320.12636	785.0
1320.664194	788.0
1321.201971	791.0
1321.739692	788.0
1322.277357	786.0
1322.814967	784.0
1323.35252	789.0
1323.890017	786.0
1324.427458	793.0
1324.964843	777.0
1325.502173	777.0
1326.039446	780.0
1326.576663	787.0
1327.113824	788.0
1327.65093	787.0
1328.187979	791.0
1328.724972	784.0
1329.26191	774.0
1329.798791	789.0
1330.335617	782.0
1330.872386	786.0
1331.4091	786.0
1331.945758	784.0
1332.48236	781.0
1333.018905	791.0
1333.555395	778.0
1334.091829	778.0
1334.628207	776.0
1335.164529	778.0
1335.700796	780.0
1336.237006	785.0
1336.77316	787.0
1337.309259	781.0
1337.845301	797.0
1338.381288	772.0
1338.917219	783.0
1339.453094	777.0
1339.988913	796.0
1340.524676	785.0
1341.060383	785.0
1341.596034	782.0
1342.13163	785.0
1342.66717	786.0
1343.202653	773.0
1343.738081	791.0
1344.273453	769.0
1344.80877	777.0
1345.34403	788.0
1345.879235	786.0
1346.414383	780.0
1346.949476	776.0
1347.484513	791.0
1348.019494	796.0
1348.55442	778.0
1349.089289	793.0
1349.624103	794.0
1350.158861	777.0
1350.693563	783.0
1351.228209	777.0
1351.7628	786.0
1352.297334	772.0
1352.831813	779.0
1353.366236	774.0
1353.900604	778.0
1354.434915	789.0
1354.969171	786.0
1355.503371	792.0
1356.037515	786.0
1356.571604	772.0
1357.105636	781.0
1357.639613	795.0
1358.173535	785.0
1358.7074	775.0
1359.24121	778.0
1359.774964	790.0
1360.308662	784.0
1360.842304	785.0
1361.375891	783.0
1361.909422	784.0
1362.442897	783.0
1362.976317	781.0
1363.50968	785.0
1364.042989	783.0
1364.576241	785.0
1365.109438	779.0
1365.642579	780.0
1366.175664	795.0
1366.708693	778.0
1367.241667	791.0
1367.774585	776.0
1368.307448	780.0
1368.840255	792.0
1369.373006	803.0
1369.905701	786.0
1370.438341	789.0
1370.970925	794.0
1371.503454	792.0
1372.035926	786.0
1372.568344	782.0
1373.100705	780.0
1373.633011	784.0
1374.165261	791.0
1374.697456	775.0
1375.229595	793.0
1375.761678	786.0
1376.293705	794.0
1376.825677	786.0
1377.357594	788.0
1377.889455	782.0
1378.42126	783.0
1378.953009	786.0
1379.484703	766.0
1380.016342	780.0
1380.547924	771.0
1381.079452	781.0
1381.610923	775.0
1382.142339	795.0
1382.673699	785.0
1383.205004	783.0
1383.736253	783.0
1384.267447	777.0
1384.798585	785.0
1385.329668	791.0
1385.860695	778.0
1386.391666	787.0
1386.922582	786.0
1387.453442	795.0
1387.984247	789.0
1388.514996	808.0
1389.04569	1075.0
1389.576328	1339.0
1390.10691	928.0
1390.637437	783.0
1391.167909	785.0
1391.698325	771.0
1392.228685	784.0
1392.75899	774.0
1393.28924	776.0
1393.819434	786.0
1394.349572	788.0
1394.879655	780.0
1395.409683	788.0
1395.939655	791.0
1396.469571	776.0
1396.999432	772.0
1397.529237	773.0
1398.058987	782.0
1398.588682	779.0
1399.118321	785.0
1399.647905	782.0
1400.177433	799.0
1400.706906	780.0
1401.236323	786.0
1401.765685	781.0
1402.294991	784.0
1402.824242	791.0
1403.353437	782.0
1403.882577	771.0
1404.411662	782.0
1404.940691	789.0
1405.469665	768.0
1405.998583	780.0
1406.527446	791.0
1407.056253	778.0
1407.585005	792.0
1408.113702	778.0
1408.642343	776.0
1409.170929	793.0
1409.69946	784.0
1410.227935	843.0
1410.756354	911.0
1411.284719	832.0
1411.813028	798.0
1412.341281	790.0
1412.869479	779.0
1413.397622	777.0
1413.92571	776.0
1414.453742	791.0
1414.981718	784.0
1415.50964	806.0
1416.037506	796.0
1416.565316	787.0
1417.093072	768.0
1417.620772	789.0
1418.148416	777.0
1418.676005	784.0
1419.203539	782.0
1419.731018	781.0
1420.258441	781.0
1420.785809	771.0
1421.313122	778.0
1421.840379	792.0
1422.367582	794.0
1422.894728	791.0
1423.42182	776.0
1423.948856	788.0
1424.475837	797.0
1425.002762	776.0
1425.529633	787.0
1426.056448	777.0
1426.583207	802.0
1427.109912	794.0
1427.636561	781.0
1428.163155	786.0
1428.689694	782.0
1429.216177	793.0
1429.742605	780.0
1430.268978	792.0
1430.795296	779.0
1431.321558	769.0
1431.847765	781.0
1432.373917	771.0
1432.900014	783.0
1433.426056	782.0
1433.952042	765.0
1434.477973	775.0
1435.003849	787.0
1435.529669	783.0
1436.055435	789.0
1436.581145	771.0
1437.1068	787.0
1437.632399	780.0
1438.157944	792.0
1438.683433	784.0
1439.208868	783.0
1439.734247	781.0
1440.25957	774.0
1440.784839	782.0
1441.310053	778.0
1441.835211	768.0
1442.360314	775.0
1442.885362	786.0
1443.410355	785.0
1443.935292	788.0
1444.460175	786.0
1444.985002	775.0
1445.509774	778.0
1446.034491	777.0
1446.559153	782.0
1447.08376	783.0
1447.608312	782.0
1448.132808	774.0
1448.65725	774.0
1449.181636	792.0
1449.705967	788.0
1450.230243	777.0
1450.754464	785.0
1451.27863	773.0
1451.802741	777.0
1452.326797	772.0
1452.850797	785.0
1453.374743	779.0
1453.898633	785.0
1454.422468	783.0
1454.946249	782.0
1455.469974	775.0
1455.993644	791.0
1456.517259	785.0
1457.040819	784.0
1457.564324	789.0
1458.087773	777.0
1458.611168	785.0
1459.134508	782.0
1459.657793	774.0
1460.181022	796.0
1460.704197	781.0
1461.227316	784.0
1461.750381	793.0
1462.27339	779.0
1462.796345	791.0
1463.319244	787.0
1463.842089	778.0
1464.364878	775.0
1464.887613	779.0
1465.410292	763.0
1465.932916	787.0
1466.455486	783.0
1466.978	780.0
1467.50046	779.0
1468.022864	777.0
1468.545214	777.0
1469.067508	782.0
1469.589748	772.0
1470.111932	779.0
1470.634062	769.0
1471.156136	778.0
1471.678156	765.0
1472.20012	781.0
1472.72203	783.0
1473.243885	780.0
1473.765685	775.0
1474.28743	773.0
1474.80912	776.0
1475.330755	776.0
1475.852335	774.0
1476.37386	777.0
1476.89533	776.0
1477.416745	768.0
1477.938106	771.0
1478.459411	777.0
1478.980662	784.0
1479.501857	782.0
1480.022998	778.0
1480.544084	773.0
1481.065115	761.0
1481.586091	767.0
1482.107012	777.0
1482.627878	775.0
1483.14869	783.0
1483.669446	764.0
1484.190148	778.0
1484.710794	774.0
1485.231386	781.0
1485.751923	774.0
1486.272406	763.0
1486.792833	775.0
1487.313205	769.0
1487.833523	782.0
1488.353786	774.0
1488.873994	775.0
1489.394147	789.0
1489.914245	773.0
1490.434288	781.0
1490.954277	775.0
1491.474211	782.0
1491.99409	783.0
1492.513914	778.0
1493.033683	776.0
1493.553398	785.0
1494.073057	774.0
1494.592662	771.0
1495.112212	790.0
1495.631708	776.0
1496.151148	768.0
1496.670534	783.0
1497.189865	778.0
1497.709141	774.0
1498.228362	772.0
1498.747529	770.0
1499.266641	781.0
1499.785698	790.0
1500.3047	776.0
1500.823648	789.0
1501.34254	788.0
1502.380162	787.0
1502.89889	783.0
1503.417564	783.0
1503.936183	770.0
1504.454748	774.0
1504.973257	771.0
1505.491712	767.0
1506.010112	770.0
1506.528458	771.0
1507.046748	779.0
1507.564984	775.0
1508.083166	766.0
1508.601292	771.0
1509.119364	769.0
1509.637381	772.0
1510.155344	776.0
1510.673252	785.0
1511.191105	770.0
1511.708903	772.0
1512.226647	771.0
1512.744336	780.0
1513.261971	776.0
1513.77955	772.0
1514.297076	760.0
1514.814546	776.0
1515.331962	756.0
1515.849323	777.0
1516.366629	784.0
1516.883881	787.0
1517.918221	777.0
1518.435309	757.0
1518.952342	782.0
1519.469321	762.0
1519.986245	781.0
1520.503114	776.0
1521.019929	781.0
1521.536689	774.0
1522.053395	762.0
1522.570046	765.0
1523.086642	778.0
1523.603184	787.0
1524.119671	777.0
1524.636103	787.0
1525.152481	770.0
1525.668805	772.0
1526.185073	772.0
1526.701288	764.0
1527.217447	769.0
1527.733552	768.0
1528.249603	772.0
1528.765599	776.0
1529.28154	774.0
1529.797427	780.0
1530.313259	767.0
1530.829037	767.0
1531.34476	772.0
1531.860429	763.0
1532.376043	775.0
1532.891602	780.0
1533.407107	773.0
1533.922558	779.0
1534.437954	760.0
1534.953295	768.0
1535.468582	774.0
1535.983815	769.0
1536.498993	773.0
1537.014116	767.0
1537.529185	778.0
1538.044199	768.0
1538.559159	771.0
1539.074064	766.0
1539.588915	785.0
1540.103712	782.0
1540.618454	782.0
1541.133141	777.0
1541.647774	786.0
1542.162353	760.0
1542.676877	772.0
1543.191346	771.0
1543.705761	769.0
1544.220122	773.0
1544.734428	770.0
1545.24868	771.0
1545.762877	778.0
1546.27702	780.0
1546.791109	774.0
1547.305143	782.0
1547.819122	761.0
1548.333047	775.0
1548.846918	756.0
1549.360734	771.0
1549.874496	773.0
1550.388204	766.0
1550.901857	779.0
1551.415455	767.0
1551.929	764.0
1552.442489	779.0
1552.955925	775.0
1553.469306	768.0
1553.982632	778.0
1554.495905	756.0
1555.009123	771.0
1555.522286	763.0
1556.035395	780.0
1556.54845	766.0
1557.06145	770.0
1557.574396	769.0
1558.087288	775.0
1558.600125	783.0
1559.112908	766.0
1559.625637	768.0
1560.138311	771.0
1560.650931	769.0
1561.163497	777.0
1561.676008	768.0
1562.188465	774.0
1562.700867	774.0
1563.213216	766.0
1563.725509	761.0
1564.237749	777.0
1564.749934	776.0
1565.262065	773.0
1565.774142	782.0
1566.286164	756.0
1566.798132	770.0
1567.310046	765.0
1567.821906	769.0
1568.333711	768.0
1568.845462	769.0
1569.357158	773.0
1569.868801	753.0
1570.380389	776.0
1570.891922	769.0
1571.403402	775.0
1571.914827	774.0
1572.426198	772.0
1572.937515	782.0
1573.448777	776.0
1573.959985	780.0
1574.471139	783.0
1574.982239	774.0
1575.493285	771.0
1576.004276	768.0
1576.515213	780.0
1577.026096	771.0
1577.536924	769.0
1578.047698	780.0
1578.558419	769.0
1579.069084	785.0
1579.579696	768.0
1580.090254	776.0
1580.600757	770.0
1581.111206	765.0
1581.621601	777.0
1582.131941	779.0
1582.642228	766.0
1583.15246	763.0
1583.662638	761.0
1584.172762	774.0
1584.682832	782.0
1585.192847	769.0
1585.702809	780.0
1586.212716	776.0
1586.722569	774.0
1587.232368	758.0
1587.742113	784.0
1588.251803	775.0
1588.76144	768.0
1589.271022	775.0
1589.78055	771.0
1590.290024	768.0
1590.799444	766.0
1591.30881	778.0
1591.818121	783.0
1592.327379	779.0
