1042.414189	681.75
1042.980685	685.0
1043.547124	681.5
1044.113505	681.5
1044.679828	683.5
1045.246093	676.0
1045.8123	681.5
1046.378449	679.0
1046.94454	677.0
1047.510573	674.75
1048.076548	679.75
1048.642465	677.5
1049.208325	678.25
1049.774126	676.75
1050.339869	674.0
1050.905555	677.5
1051.471183	673.75
1052.036752	676.0
1052.602264	672.5
1053.167718	677.0
1053.733114	675.0
1054.298452	675.0
1054.863733	675.0
1055.428955	673.5
1055.994119	670.0
1056.559226	675.5
1057.124275	673.25
1057.689266	675.75
1058.254199	673.25
1058.819074	673.25
1059.383891	673.75
1059.94865	672.5
1060.513352	673.25
1061.077996	672.5
1061.642582	670.75
1062.20711	673.0
1062.77158	670.5
1063.335992	670.0
1063.900347	674.75
1064.464643	673.0
1065.028882	671.75
1065.593063	672.0
1066.157187	674.75
1066.721252	672.25
1067.28526	673.75
1067.84921	669.5
1068.413102	670.75
1068.976936	672.75
1069.540713	673.25
1070.104431	679.75
1070.668092	673.75
1071.231696	672.75
1071.795241	671.75
1072.358729	669.75
1072.922159	673.5
1073.485531	668.75
1074.048845	671.75
1074.612102	672.5
1075.175301	672.25
1075.738442	670.75
1076.301525	673.5
1076.864551	671.25
1077.427519	672.5
1077.990429	675.25
1078.553281	671.75
1079.116076	668.25
1079.678813	669.75
1080.241492	669.75
1080.804114	668.75
1081.366678	671.25
1081.929184	668.25
1082.491633	673.75
1083.054024	667.75
1083.616357	671.75
1084.178632	671.0
1084.74085	671.0
1085.30301	668.5
1085.865113	670.75
1086.427158	670.75
1086.989145	674.0
1087.551074	670.5
1088.112946	671.0
1088.67476	669.75
1089.236517	673.25
1089.798216	673.25
1090.359857	673.25
1090.92144	672.25
1091.482966	668.0
1092.044435	671.25
1092.605845	674.5
1093.167199	670.25
1093.728494	670.75
1094.289732	670.75
1094.850912	671.75
1095.412035	681.75
1095.9731	671.5
1096.534107	671.0
1097.095057	678.75
1097.65595	672.5
1098.216784	671.5
1098.777561	676.25
1099.338281	667.5
1099.898943	675.75
1100.459547	671.0
1101.020094	672.25
1101.580584	669.75
1102.141015	672.5
1102.701389	668.0
1103.261706	671.0
1103.821965	668.25
1104.382167	673.0
1104.942311	669.5
1105.502397	668.5
1106.062426	672.0
1106.622398	667.75
1107.182312	670.0
1107.742168	666.5
1108.301967	667.25
1108.861708	668.0
1109.421392	668.0
1109.981019	669.25
1110.540587	670.75
1111.100099	672.25
1111.659553	668.0
1112.218949	671.5
1112.778288	667.75
1113.33757	669.25
1113.896794	668.0
1114.45596	668.75
1115.015069	670.5
1115.574121	669.0
1116.133115	669.0
1116.692052	668.75
1117.250931	670.5
1117.809753	669.25
1118.368517	669.0
1118.927224	669.0
1119.485873	668.0
1120.044465	670.5
1120.603	667.25
1121.161477	667.0
1121.719897	668.5
1122.278259	666.5
1122.836564	671.25
1123.394812	669.25
1123.953002	670.5
1124.511135	669.75
1125.06921	668.25
1125.627228	669.75
1126.185189	667.5
1126.743092	668.0
1127.300938	671.75
1127.858726	670.5
1128.416457	668.5
1128.974131	668.25
1129.531748	673.25
1130.089307	668.75
1130.646808	666.75
1131.204252	673.0
1131.761639	672.25
1132.318969	670.0
1132.876241	669.75
1133.433456	668.75
1133.990614	670.25
1134.547714	670.0
1135.104757	668.25
1135.661743	671.75
1136.218671	667.75
1136.775542	670.75
1137.332356	666.75
1137.889112	670.5
1138.445811	670.25
1139.002453	673.25
1139.559037	668.5
1140.115565	669.75
1140.672035	668.25
1141.228447	669.0
1141.784803	667.0
1142.341101	666.5
1142.897342	670.0
1143.453525	667.75
1144.009651	668.75
1144.565721	668.25
1145.121732	668.75
1145.677687	669.25
1146.233584	667.0
1146.789424	665.75
1147.345207	667.25
1147.900933	671.0
1148.456601	669.5
1149.012212	670.5
1149.567766	671.75
1150.123263	671.0
1150.678702	668.0
1151.234085	668.25
1151.78941	668.25
1152.344678	666.5
1152.899888	669.0
1153.455042	668.25
1154.010138	667.75
1154.565177	667.75
1155.120159	670.0
1155.675084	670.5
1156.229951	671.0
1156.784762	667.25
1157.339515	669.0
1157.894211	668.0
1158.44885	669.0
1159.003432	670.25
1159.557956	668.0
1160.112424	670.75
1160.666834	666.5
1161.221187	670.0
1161.775483	669.0
1162.329722	666.25
1162.883904	669.75
1163.438029	666.75
1163.992096	671.0
1164.546107	668.25
1165.10006	667.75
1165.653956	666.5
1166.207795	668.5
1166.761577	670.25
1167.315302	669.5
1167.86897	666.75
1168.422581	666.0
1168.976134	666.75
1169.529631	668.5
1170.08307	668.0
1170.636453	672.75
1171.189778	673.0
1171.743046	670.0
1172.296257	667.5
1172.849412	668.0
1173.402509	671.0
1173.955549	667.5
1174.508532	667.75
1175.061458	666.5
1175.614327	668.75
1176.167138	668.0
1176.719893	669.0
1177.272591	668.75
1177.825232	669.75
1178.377816	666.0
1178.930342	667.0
1179.482812	666.25
1180.035225	668.75
1180.587581	669.25
1181.139879	666.5
1181.692121	667.75
1182.244306	668.25
1182.796434	667.25
1183.348504	670.25
1183.900518	668.25
1184.452475	666.25
1185.004375	670.25
1185.556218	671.25
1186.108004	669.5
1186.659733	670.5
1187.211405	667.5
1187.76302	671.75
1188.314578	667.75
1188.866079	668.75
1189.417523	667.75
1189.96891	667.75
1190.520241	668.5
1191.071514	667.75
1191.622731	666.75
1192.17389	666.25
1192.724993	668.75
1193.276039	690.25
1193.827027	667.75
1194.377959	668.75
1194.928834	670.25
1195.479653	669.0
1196.030414	669.5
1196.581118	669.5
1197.131766	664.25
1197.682356	668.5
1198.23289	668.0
1198.783367	665.75
1199.333786	668.5
1199.88415	668.5
1200.434456	665.75
1200.984705	668.75
1201.534898	669.5
1202.085033	667.5
1202.635112	667.75
1203.185134	669.0
1203.735099	669.25
1204.285007	666.0
1204.834859	669.75
1205.384653	669.75
1205.934391	671.0
1206.484072	669.0
1207.033696	668.75
1207.583263	667.25
1208.132774	669.25
1208.682228	667.25
1209.231624	669.75
1209.780965	669.75
1210.330248	669.0
1210.879474	669.0
1211.428644	669.0
1211.977757	671.25
1212.526813	668.75
1213.075813	668.75
1213.624755	673.5
1214.173641	673.0
1214.72247	670.75
1215.271242	668.75
1215.819958	670.0
1216.368617	671.75
1216.917219	669.0
1217.465764	669.75
1218.014253	668.0
1218.562685	671.25
1219.11106	670.25
1219.659378	671.25
1220.20764	669.25
1220.755845	668.5
1221.303993	671.75
1221.852085	674.0
1222.400119	674.0
1222.948097	669.5
1223.496019	669.0
1224.043883	670.0
1224.591691	668.75
1225.139443	670.75
1225.687137	668.75
1226.234775	668.5
1226.782357	667.75
1227.329881	667.75
1227.877349	670.75
1228.42476	670.75
1228.972115	672.0
1229.519413	671.0
1230.066654	665.75
1230.613839	671.25
1231.160967	670.5
1231.708038	674.0
1232.255053	670.25
1232.802011	672.0
1233.348912	673.75
1233.895757	669.25
1234.442545	671.0
1234.989277	673.5
1235.535951	665.75
1236.08257	671.25
1236.629131	672.0
1237.175636	671.75
1237.722085	668.75
1238.268477	674.25
1238.814812	667.5
1239.361091	671.0
1239.907313	670.25
1240.453478	669.75
1240.999587	672.75
1241.54564	671.75
1242.091636	669.5
1242.637575	670.0
1243.183457	672.0
1243.729284	672.5
1244.275053	675.25
1244.820766	671.5
1245.366423	670.5
1245.912022	675.5
1246.457566	673.5
1247.003053	672.75
1247.548483	673.75
1248.093857	675.5
1248.639174	673.25
1249.184435	675.0
1249.729639	677.75
1250.274787	676.0
1250.819878	672.5
1251.364912	673.25
1251.909891	672.75
1252.454812	669.25
1252.999677	673.0
1253.544486	674.75
1254.089238	671.75
1254.633934	669.75
1255.178573	675.75
1255.723156	673.75
1256.267682	674.0
1256.812152	672.25
1257.356565	671.0
1257.900922	674.5
1258.445223	676.25
1258.989467	675.0
1259.533654	680.75
1260.077785	687.0
1260.62186	676.75
1261.165878	677.5
1261.70984	681.25
1262.253745	677.5
1262.797594	681.25
1263.341386	684.5
1263.885123	691.5
1264.428802	706.0
1264.972425	703.5
1265.515992	705.75
1266.059503	690.75
1266.602957	686.75
1267.146354	682.75
1267.689696	677.25
1268.23298	674.0
1268.776209	676.75
1269.319381	676.25
1269.862497	672.5
1270.405556	674.75
1270.948559	677.5
1271.491506	676.75
1272.034396	675.25
1272.57723	674.25
1273.120007	677.25
1273.662728	674.75
1274.205393	674.0
1274.748002	677.25
1275.290554	674.25
1275.83305	675.0
1276.375489	675.25
1276.917872	679.25
1277.460199	675.75
1278.00247	673.75
1278.544684	679.75
1279.086842	673.5
1279.628943	679.0
1280.170989	679.75
1280.712978	681.0
1281.25491	683.75
1281.796787	691.0
1282.338607	696.0
1282.880371	712.0
1283.422078	752.5
1283.963729	836.75
1284.505324	1022.75
1285.046863	1249.5
1285.588345	1173.75
1286.129772	884.0
1286.671142	756.25
1287.212455	716.0
1287.753713	695.25
1288.294914	690.0
1288.836059	689.0
1289.377147	681.25
1289.91818	678.5
1290.459156	679.0
1291.000076	678.75
1291.54094	679.75
1292.081747	675.5
1292.622499	680.0
1293.163194	676.25
1293.703833	676.5
1294.244415	675.25
1294.784942	678.75
1295.325412	676.25
1295.865826	675.0
1296.406184	673.25
1296.946486	674.5
1297.486731	673.5
1298.026921	673.5
1298.567054	674.75
1299.107131	673.0
1299.647152	673.0
1300.187116	672.25
1300.727025	671.75
1301.266877	673.75
1301.806673	675.75
1302.346413	671.0
1302.886097	673.75
1303.425725	673.75
1303.965297	673.5
1304.504812	673.25
1305.044272	672.25
1305.583675	678.25
1306.123022	672.25
1306.662313	672.75
1307.201548	671.5
1307.740727	676.0
1308.279849	674.5
1308.818916	673.0
1309.357926	675.5
1309.896881	672.5
1310.435779	669.0
1310.974621	670.25
1311.513407	675.0
1312.052137	671.75
1312.590811	671.25
1313.129429	672.25
1313.667991	671.25
1314.206497	673.25
1314.744946	670.75
1315.28334	672.5
1315.821678	674.0
1316.359959	671.0
1316.898184	672.75
1317.436354	672.5
1317.974467	670.25
1318.512525	672.0
1319.050526	671.75
1319.588471	667.5
1320.12636	672.5
1320.664194	673.75
1321.201971	669.5
1321.739692	672.5
1322.277357	675.25
1322.814967	672.25
1323.35252	673.75
1323.890017	677.0
1324.427458	674.5
1324.964843	672.0
1325.502173	672.5
1326.039446	674.25
1326.576663	673.5
1327.113824	670.5
1327.65093	669.75
1328.187979	671.5
1328.724972	669.5
1329.26191	674.0
1329.798791	670.0
1330.335617	672.5
1330.872386	674.25
1331.4091	669.25
1331.945758	670.25
1332.48236	672.75
1333.018905	676.75
1333.555395	670.25
1334.091829	671.25
1334.628207	672.0
1335.164529	669.25
1335.700796	672.5
1336.237006	673.5
1336.77316	674.0
1337.309259	672.0
1337.845301	672.75
1338.381288	671.0
1338.917219	671.25
1339.453094	670.75
1339.988913	669.5
1340.524676	670.5
1341.060383	670.5
1341.596034	668.5
1342.13163	673.75
1342.66717	669.75
1343.202653	669.5
1343.738081	671.5
1344.273453	670.75
1344.80877	673.5
1345.34403	673.75
1345.879235	670.5
1346.414383	670.0
1346.949476	671.75
1347.484513	672.0
1348.019494	675.0
1348.55442	671.75
1349.089289	672.25
1349.624103	672.5
1350.158861	667.5
1350.693563	671.5
1351.228209	671.25
1351.7628	672.25
1352.297334	671.25
1352.831813	675.0
1353.366236	671.25
1353.900604	675.5
1354.434915	672.75
1354.969171	674.75
1355.503371	672.75
1356.037515	674.0
1356.571604	672.25
1357.105636	671.0
1357.639613	669.75
1358.173535	673.5
1358.7074	674.5
1359.24121	670.5
1359.774964	669.75
1360.308662	667.25
1360.842304	673.5
1361.375891	673.0
1361.909422	671.75
1362.442897	672.75
1362.976317	673.25
1363.50968	675.0
1364.042989	676.25
1364.576241	675.75
1365.109438	676.25
1365.642579	673.75
1366.175664	675.5
1366.708693	677.5
1367.241667	673.75
1367.774585	675.25
1368.307448	674.75
1368.840255	675.0
1369.373006	677.5
1369.905701	680.0
1370.438341	694.75
1370.970925	685.5
1371.503454	675.75
1372.035926	677.25
1372.568344	675.0
1373.100705	673.0
1373.633011	678.25
1374.165261	671.0
1374.697456	674.0
1375.229595	676.75
1375.761678	678.25
1376.293705	679.0
1376.825677	678.75
1377.357594	673.0
1377.889455	677.5
1378.42126	676.5
1378.953009	678.0
1379.484703	680.25
1380.016342	679.5
1380.547924	678.5
1381.079452	677.25
1381.610923	679.0
1382.142339	680.75
1382.673699	679.75
1383.205004	680.5
1383.736253	685.75
1384.267447	690.5
1384.798585	688.0
1385.329668	698.0
1385.860695	701.0
1386.391666	719.25
1386.922582	759.75
1387.453442	841.0
1387.984247	1176.5
1388.514996	1738.5
1389.04569	1592.25
1389.576328	986.5
1390.10691	778.75
1390.637437	722.5
1391.167909	700.25
1391.698325	692.75
1392.228685	688.0
1392.75899	682.75
1393.28924	682.0
1393.819434	687.5
1394.349572	680.25
1394.879655	680.25
1395.409683	677.75
1395.939655	675.0
1396.469571	678.5
1396.999432	679.0
1397.529237	676.0
1398.058987	676.5
1398.588682	677.75
1399.118321	675.5
1399.647905	675.0
1400.177433	676.0
1400.706906	674.25
1401.236323	675.25
1401.765685	672.25
1402.294991	676.5
1402.824242	676.5
1403.353437	675.25
1403.882577	671.25
1404.411662	673.5
1404.940691	674.5
1405.469665	677.5
1405.998583	678.5
1406.527446	675.75
1407.056253	681.75
1407.585005	681.75
1408.113702	688.0
1408.642343	692.25
1409.170929	708.0
1409.69946	731.75
1410.227935	744.25
1410.756354	717.75
1411.284719	696.75
1411.813028	685.5
1412.341281	682.25
1412.869479	678.0
1413.397622	674.75
1413.92571	677.0
1414.453742	671.75
1414.981718	676.25
1415.50964	687.0
1416.037506	674.0
1416.565316	673.5
1417.093072	674.0
1417.620772	670.25
1418.148416	674.75
1418.676005	672.25
1419.203539	673.5
1419.731018	673.5
1420.258441	673.5
1420.785809	672.5
1421.313122	671.5
1421.840379	671.5
1422.367582	673.0
1422.894728	668.5
1423.42182	674.5
1423.948856	674.25
1424.475837	673.25
1425.002762	675.5
1425.529633	674.0
1426.056448	672.0
1426.583207	674.75
1427.109912	675.75
1427.636561	671.25
1428.163155	670.25
1428.689694	667.75
1429.216177	668.25
1429.742605	670.5
1430.268978	672.25
1430.795296	671.25
1431.321558	667.5
1431.847765	668.0
1432.373917	675.0
1432.900014	672.75
1433.426056	667.25
1433.952042	671.75
1434.477973	670.25
1435.003849	665.5
1435.529669	669.75
1436.055435	669.75
1436.581145	670.75
1437.1068	669.5
1437.632399	671.5
1438.157944	669.75
1438.683433	669.75
1439.208868	669.75
1439.734247	669.25
1440.25957	667.25
1440.784839	668.0
1441.310053	669.5
1441.835211	667.5
1442.360314	668.0
1442.885362	669.75
1443.410355	670.25
1443.935292	666.75
1444.460175	668.75
1444.985002	666.25
1445.509774	670.25
1446.034491	669.75
1446.559153	666.5
1447.08376	670.0
1447.608312	665.25
1448.132808	670.75
1448.65725	668.75
1449.181636	669.75
1449.705967	666.25
1450.230243	668.0
1450.754464	667.75
1451.27863	665.5
1451.802741	668.25
1452.326797	666.75
1452.850797	668.75
1453.374743	665.75
1453.898633	664.25
1454.422468	665.25
1454.946249	670.25
1455.469974	670.0
1455.993644	665.5
1456.517259	666.25
1457.040819	665.5
1457.564324	668.75
1458.087773	669.75
1458.611168	666.5
1459.134508	666.25
1459.657793	669.5
1460.181022	668.0
1460.704197	669.25
1461.227316	666.75
1461.750381	668.0
1462.27339	668.25
1462.796345	666.75
1463.319244	666.0
1463.842089	665.25
1464.364878	671.25
1464.887613	664.0
1465.410292	667.25
1465.932916	665.0
1466.455486	663.25
1466.978	667.75
1467.50046	664.25
1468.022864	669.0
1468.545214	668.5
1469.067508	667.75
1469.589748	664.5
1470.111932	671.75
1470.634062	665.25
1471.156136	667.75
1471.678156	667.25
1472.20012	665.25
1472.72203	668.5
1473.243885	667.25
1473.765685	668.5
1474.28743	665.0
1474.80912	666.25
1475.330755	665.5
1475.852335	666.5
1476.37386	663.25
1476.89533	665.5
1477.416745	663.5
1477.938106	667.25
1478.459411	666.5
1478.980662	665.75
1479.501857	665.5
1480.022998	666.75
1480.544084	669.25
1481.065115	664.5
1481.586091	665.0
1482.107012	665.25
1482.627878	665.5
1483.14869	666.25
1483.669446	667.25
1484.190148	665.75
1484.710794	668.75
1485.231386	666.0
1485.751923	665.5
1486.272406	665.25
1486.792833	665.75
1487.313205	666.75
1487.833523	668.0
1488.353786	667.25
1488.873994	663.75
1489.394147	666.0
1489.914245	667.25
1490.434288	666.25
1490.954277	663.0
1491.474211	664.25
1491.99409	668.0
1492.513914	666.5
1493.033683	664.75
1493.553398	666.5
1494.073057	664.5
1494.592662	666.5
1495.112212	666.5
1495.631708	665.5
1496.151148	667.0
1496.670534	666.75
1497.189865	666.0
1497.709141	668.0
1498.228362	669.0
1498.747529	668.25
1499.266641	665.25
1499.785698	673.25
1500.3047	669.75
1500.823648	666.75
1501.34254	664.0
1501.861379	666.5
1502.380162	663.75
1502.89889	665.0
1503.417564	666.5
1503.936183	668.5
1504.454748	668.25
1504.973257	664.25
1505.491712	666.5
1506.010112	667.0
1506.528458	666.75
1507.046748	665.75
1507.564984	663.25
1508.083166	664.0
1508.601292	666.25
1509.119364	665.25
1509.637381	666.0
1510.155344	665.25
1510.673252	676.0
1511.191105	664.5
1511.708903	667.0
1512.226647	665.25
1512.744336	668.0
1513.261971	667.0
1513.77955	669.75
1514.297076	663.75
1514.814546	665.0
1515.331962	665.5
1515.849323	665.75
1516.366629	666.0
1516.883881	664.5
1517.401078	667.5
1517.918221	665.25
1518.435309	666.0
1518.952342	667.75
1519.469321	664.25
1519.986245	666.5
1520.503114	663.75
1521.019929	666.25
1521.536689	665.5
1522.053395	664.5
1522.570046	665.5
1523.086642	666.5
1523.603184	663.25
1524.119671	666.25
1524.636103	667.75
1525.152481	664.0
1525.668805	665.25
1526.185073	668.5
1526.701288	662.75
1527.217447	665.75
1527.733552	664.75
1528.249603	667.25
1528.765599	666.25
1529.28154	664.0
1529.797427	668.5
1530.313259	667.0
1530.829037	666.75
1531.34476	664.0
1531.860429	665.25
1532.376043	665.25
1532.891602	667.0
1533.407107	668.25
1533.922558	664.75
1534.437954	667.25
1534.953295	665.25
1535.468582	667.75
1535.983815	662.75
1536.498993	664.5
1537.014116	667.25
1537.529185	666.75
1538.044199	661.5
1538.559159	665.5
1539.074064	662.25
1539.588915	666.5
1540.103712	666.25
1540.618454	664.25
1541.133141	667.25
1541.647774	666.0
1542.162353	665.5
1542.676877	666.25
1543.191346	666.0
1543.705761	665.75
1544.220122	665.75
1544.734428	666.25
1545.24868	665.5
1545.762877	663.75
1546.27702	664.0
1546.791109	667.5
1547.305143	664.5
1547.819122	667.0
1548.333047	665.0
1548.846918	665.75
1549.360734	665.5
1549.874496	667.5
1550.388204	666.25
1550.901857	663.75
1551.415455	664.0
1551.929	663.0
1552.442489	666.0
1552.955925	665.5
1553.469306	669.25
1553.982632	664.25
1554.495905	665.25
1555.009123	666.5
1555.522286	666.25
1556.035395	664.25
1556.54845	663.75
1557.06145	665.75
1557.574396	664.5
1558.087288	665.75
1558.600125	668.25
1559.112908	663.75
1559.625637	663.5
1560.138311	665.5
1560.650931	667.5
1561.163497	665.5
1561.676008	663.0
1562.188465	666.75
1562.700867	665.25
1563.213216	665.5
1563.725509	666.5
1564.237749	664.0
1564.749934	666.0
1565.262065	666.75
1565.774142	662.75
1566.286164	666.75
1566.798132	663.5
1567.310046	665.5
1567.821906	667.0
1568.333711	666.0
1568.845462	664.25
1569.357158	664.25
1569.868801	665.75
1570.380389	665.25
1570.891922	664.0
1571.403402	668.0
1572.937515	663.5
1573.448777	665.25
1573.959985	665.5
1574.471139	668.25
1574.982239	666.5
1575.493285	665.25
1576.004276	669.25
1576.515213	664.75
1577.026096	665.0
1577.536924	668.25
1578.047698	667.5
1578.558419	663.5
1579.069084	665.0
1579.579696	666.25
1580.090254	667.5
1580.600757	668.75
1581.111206	665.75
1581.621601	665.75
1582.131941	666.5
1582.642228	663.5
1583.15246	666.5
1583.662638	668.0
1584.172762	663.5
1584.682832	662.75
1585.192847	665.75
1585.702809	665.0
1586.212716	667.75
1586.722569	668.25
1587.232368	664.75
1587.742113	665.25
1588.251803	669.25
1588.76144	667.0
1589.271022	663.0
1589.78055	666.75
1590.290024	661.5
1590.799444	664.0
1591.30881	665.25
1591.818121	666.75
1592.327379	663.25
