1042.414189	788.0
1042.980685	793.5
1043.547124	790.75
1044.113505	791.25
1044.679828	801.75
1045.246093	793.5
1045.8123	792.5
1046.378449	783.25
1046.94454	782.5
1047.510573	783.0
1048.076548	790.0
1048.642465	787.5
1049.208325	782.75
1049.774126	790.75
1050.339869	785.25
1050.905555	787.0
1051.471183	776.75
1052.036752	792.75
1052.602264	784.5
1053.167718	784.75
1053.733114	781.0
1054.298452	779.25
1054.863733	783.0
1055.428955	782.25
1055.994119	787.5
1056.559226	782.0
1057.124275	787.0
1057.689266	781.75
1058.254199	779.5
1058.819074	783.5
1059.383891	783.5
1059.94865	780.0
1060.513352	781.0
1061.077996	780.0
1061.642582	781.0
1062.20711	781.5
1062.77158	782.0
1063.335992	785.0
1063.900347	777.5
1064.464643	782.25
1065.028882	774.75
1065.593063	781.0
1066.157187	781.5
1066.721252	773.0
1067.28526	774.75
1067.84921	776.75
1068.413102	776.75
1068.976936	777.5
1069.540713	785.25
1070.104431	792.5
1070.668092	780.25
1071.231696	776.25
1071.795241	778.0
1072.358729	779.25
1072.922159	778.0
1073.485531	776.75
1074.048845	781.0
1074.612102	773.5
1075.175301	779.25
1075.738442	777.5
1076.301525	777.75
1076.864551	769.0
1077.427519	774.5
1077.990429	775.0
1078.553281	783.5
1079.116076	777.0
1079.678813	778.75
1080.241492	776.0
1080.804114	776.5
1081.366678	781.0
1081.929184	776.75
1082.491633	779.0
1083.054024	768.75
1083.616357	777.0
1084.178632	779.75
1084.74085	773.5
1085.30301	777.0
1085.865113	772.25
1086.427158	779.25
1086.989145	779.25
1087.551074	772.0
1088.112946	774.0
1088.67476	780.25
1089.236517	777.75
1089.798216	772.0
1090.359857	779.5
1090.92144	775.5
1091.482966	784.5
1092.044435	774.5
1092.605845	780.0
1093.167199	779.0
1093.728494	774.0
1094.289732	783.25
1094.850912	766.5
1095.412035	787.0
1095.9731	767.75
1096.534107	772.5
1097.095057	783.25
1097.65595	774.0
1098.216784	773.0
1098.777561	776.75
1099.338281	771.0
1099.898943	768.0
1100.459547	767.25
1101.020094	773.5
1101.580584	777.75
1102.141015	767.75
1102.701389	774.5
1103.261706	774.5
1103.821965	771.75
1104.382167	773.0
1104.942311	775.0
1105.502397	768.5
1106.062426	772.5
1106.622398	768.75
1107.182312	767.25
1107.742168	764.5
1108.301967	772.25
1108.861708	773.75
1109.421392	774.25
1109.981019	772.0
1110.540587	767.75
1111.100099	763.75
1111.659553	771.0
1112.218949	774.0
1112.778288	768.25
1113.33757	774.5
1113.896794	768.25
1114.45596	773.5
1115.015069	765.25
1115.574121	768.5
1116.133115	770.0
1116.692052	774.5
1117.250931	770.75
1117.809753	766.75
1118.368517	774.25
1118.927224	774.5
1119.485873	767.5
1120.044465	766.75
1120.603	769.5
1121.161477	771.0
1121.719897	776.75
1122.278259	766.5
1122.836564	770.0
1123.394812	767.75
1123.953002	770.25
1124.511135	767.75
1125.06921	767.75
1125.627228	768.5
1126.185189	770.5
1126.743092	768.75
1127.300938	772.25
1127.858726	777.0
1128.416457	770.5
1128.974131	765.0
1129.531748	774.75
1130.089307	775.25
1130.646808	774.5
1131.204252	769.0
1131.761639	766.75
1132.318969	765.75
1132.876241	766.0
1133.433456	768.0
1133.990614	763.25
1134.547714	769.25
1135.104757	772.0
1135.661743	769.5
1136.218671	769.25
1136.775542	769.5
1137.332356	765.5
1137.889112	769.25
1138.445811	772.5
1139.002453	765.5
1139.559037	762.5
1140.115565	768.25
1140.672035	765.5
1141.228447	769.25
1141.784803	765.25
1142.341101	765.0
1142.897342	771.25
1143.453525	771.0
1144.009651	770.25
1144.565721	768.75
1145.121732	767.0
1145.677687	771.5
1146.233584	763.0
1146.789424	766.5
1147.345207	757.0
1147.900933	772.75
1148.456601	768.5
1149.012212	773.25
1149.567766	768.25
1150.123263	769.25
1150.678702	770.75
1151.234085	765.25
1151.78941	769.75
1152.344678	770.25
1152.899888	765.0
1153.455042	767.0
1154.010138	769.0
1154.565177	769.0
1155.120159	771.25
1155.675084	767.25
1156.229951	771.75
1156.784762	770.5
1157.339515	769.75
1157.894211	768.5
1158.44885	765.5
1159.003432	769.25
1159.557956	770.25
1160.112424	767.0
1160.666834	761.0
1161.221187	762.75
1161.775483	766.5
1162.329722	767.25
1162.883904	773.5
1163.438029	760.5
1163.992096	768.25
1164.546107	765.25
1165.10006	768.75
1165.653956	770.75
1166.207795	764.5
1166.761577	768.5
1167.315302	772.5
1167.86897	770.75
1168.422581	767.0
1168.976134	768.75
1169.529631	766.0
1170.08307	769.25
1170.636453	766.0
1171.189778	763.25
1171.743046	767.5
1172.296257	768.75
1172.849412	767.5
1173.402509	763.25
1173.955549	763.25
1174.508532	765.75
1175.061458	765.25
1175.614327	770.0
1176.167138	763.75
1176.719893	765.75
1177.272591	764.25
1177.825232	768.5
1178.377816	768.75
1178.930342	763.0
1179.482812	769.0
1180.035225	765.75
1180.587581	766.75
1181.139879	769.75
1181.692121	760.75
1182.244306	769.0
1182.796434	765.0
1183.348504	765.5
1183.900518	764.0
1184.452475	768.0
1185.004375	770.0
1185.556218	764.5
1186.108004	768.25
1186.659733	764.0
1187.211405	766.75
1187.76302	755.5
1188.314578	768.5
1188.866079	763.0
1189.417523	767.75
1189.96891	759.5
1190.520241	772.0
1191.071514	770.5
1191.622731	766.75
1192.17389	758.0
1192.724993	770.25
1193.276039	781.75
1193.827027	761.5
1194.377959	763.5
1194.928834	769.5
1195.479653	764.25
1196.030414	819.5
1196.581118	878.25
1197.131766	770.5
1197.682356	761.25
1198.23289	761.5
1198.783367	767.0
1199.333786	766.25
1199.88415	766.25
1200.434456	762.25
1200.984705	765.5
1201.534898	760.25
1202.085033	768.0
1202.635112	763.0
1203.185134	761.0
1203.735099	761.25
1204.285007	769.0
1204.834859	763.5
1205.384653	762.0
1205.934391	758.75
1206.484072	762.75
1207.033696	758.25
1207.583263	767.75
1208.132774	761.5
1208.682228	763.0
1209.231624	761.5
1209.780965	758.0
1210.330248	767.0
1210.879474	761.5
1211.428644	761.75
1211.977757	766.25
1212.526813	759.25
1213.075813	761.25
1213.624755	761.0
1214.173641	761.0
1214.72247	766.0
1215.271242	768.5
1215.819958	764.0
1216.368617	762.75
1216.917219	759.25
1217.465764	764.5
1218.014253	765.25
1218.562685	764.5
1219.11106	758.75
1219.659378	756.75
1220.20764	756.0
1220.755845	763.5
1221.303993	761.75
1221.852085	763.75
1222.400119	756.5
1222.948097	761.75
1223.496019	761.5
1224.043883	755.75
1224.591691	766.75
1225.139443	761.0
1225.687137	760.0
1226.234775	757.25
1226.782357	761.75
1227.329881	761.5
1227.877349	765.25
1228.42476	758.5
1228.972115	758.25
1229.519413	761.5
1230.066654	755.0
1230.613839	751.0
1231.160967	764.25
1231.708038	761.75
1232.255053	757.5
1232.802011	768.5
1233.348912	760.0
1233.895757	760.0
1234.442545	757.5
1234.989277	764.0
1235.535951	756.75
1236.08257	764.5
1236.629131	761.5
1237.175636	752.75
1237.722085	761.0
1238.268477	760.0
1238.814812	762.25
1239.361091	758.5
1239.907313	761.25
1240.453478	762.75
1240.999587	755.75
1241.54564	762.0
1242.091636	763.75
1242.637575	760.75
1243.183457	757.0
1243.729284	764.75
1244.275053	762.25
1244.820766	760.25
1245.366423	763.25
1245.912022	758.75
1246.457566	762.25
1247.003053	763.0
1247.548483	760.0
1248.093857	762.25
1248.639174	754.75
1249.184435	763.25
1249.729639	755.5
1250.274787	755.75
1250.819878	762.0
1251.364912	766.5
1251.909891	761.0
1252.454812	760.25
1252.999677	758.5
1253.544486	762.0
1254.089238	763.75
1254.633934	764.0
1255.178573	759.5
1255.723156	758.5
1256.267682	768.75
1257.356565	767.0
1257.900922	764.0
1258.445223	759.5
1258.989467	757.25
1259.533654	761.25
1260.077785	772.75
1260.62186	755.25
1261.165878	762.75
1261.70984	763.75
1262.253745	759.75
1262.797594	762.25
1263.341386	761.25
1263.885123	763.5
1264.428802	763.5
1264.972425	760.75
1265.515992	786.0
1266.059503	797.75
1266.602957	778.75
1267.146354	763.5
1267.689696	758.75
1268.23298	756.0
1268.776209	758.75
1269.319381	763.75
1269.862497	756.0
1270.405556	761.75
1270.948559	760.25
1271.491506	757.5
1272.034396	758.0
1272.57723	756.5
1273.120007	758.75
1273.662728	762.0
1274.205393	755.5
1274.748002	758.0
1275.290554	766.5
1275.83305	755.75
1276.375489	761.0
1276.917872	758.75
1277.460199	755.75
1278.00247	758.0
1278.544684	766.75
1279.086842	756.0
1279.628943	759.5
1280.170989	755.0
1280.712978	758.5
1281.25491	764.0
1281.796787	755.0
1282.338607	762.25
1282.880371	764.0
1283.422078	764.75
1283.963729	752.0
1284.505324	760.5
1285.046863	774.5
1285.588345	818.25
1286.129772	1008.0
1286.671142	969.5
1287.212455	805.75
1287.753713	769.0
1288.294914	764.0
1288.836059	765.0
1289.377147	758.25
1289.91818	760.5
1290.459156	757.5
1291.000076	762.25
1291.54094	757.75
1292.081747	763.5
1292.622499	762.75
1293.163194	750.0
1293.703833	755.0
1294.244415	755.75
1294.784942	766.25
1295.325412	761.75
1295.865826	760.5
1296.406184	764.25
1296.946486	755.75
1297.486731	760.25
1298.026921	753.25
1298.567054	756.25
1299.107131	752.75
1299.647152	757.0
1300.187116	755.25
1300.727025	756.25
1301.266877	759.5
1301.806673	753.25
1302.346413	758.5
1302.886097	758.0
1303.425725	757.75
1303.965297	759.5
1304.504812	759.0
1305.044272	759.75
1305.583675	754.75
1306.123022	758.75
1306.662313	755.25
1307.201548	758.5
1307.740727	756.0
1308.279849	756.0
1308.818916	759.5
1309.357926	757.25
1309.896881	757.0
1310.435779	752.25
1310.974621	761.5
1311.513407	754.75
1312.052137	761.0
1312.590811	760.25
1313.129429	760.75
1313.667991	758.0
1314.206497	751.75
1314.744946	755.5
1315.28334	755.5
1315.821678	760.75
1316.359959	751.25
1316.898184	751.25
1317.436354	757.5
1317.974467	754.0
1318.512525	761.25
1319.050526	758.5
1319.588471	756.5
1320.12636	760.75
1320.664194	754.0
1321.201971	753.75
1321.739692	760.5
1322.277357	751.0
1322.814967	751.75
1323.35252	759.0
1323.890017	756.75
1324.427458	756.75
1324.964843	752.25
1325.502173	754.75
1326.039446	759.75
1326.576663	751.75
1327.113824	760.25
1327.65093	759.25
1328.187979	749.0
1328.724972	751.5
1329.26191	760.0
1329.798791	750.75
1330.335617	757.75
1330.872386	756.75
1331.4091	748.75
1331.945758	753.5
1332.48236	750.0
1333.018905	751.5
1333.555395	755.75
1334.091829	751.75
1334.628207	749.75
1335.164529	753.5
1335.700796	758.0
1336.237006	754.75
1336.77316	755.25
1337.309259	759.5
1337.845301	753.75
1338.381288	754.5
1338.917219	746.75
1339.453094	758.0
1339.988913	754.75
1340.524676	757.0
1341.060383	752.25
1341.596034	752.5
1342.13163	748.25
1342.66717	754.5
1343.202653	757.0
1343.738081	754.25
1344.273453	759.0
1344.80877	755.25
1345.34403	753.25
1345.879235	751.5
1346.414383	756.0
1346.949476	762.75
1347.484513	750.75
1348.019494	753.25
1348.55442	761.25
1349.089289	755.5
1349.624103	748.75
1350.158861	756.0
1350.693563	754.5
1351.228209	753.25
1351.7628	752.0
1352.297334	753.75
1352.831813	750.0
1353.366236	756.25
1353.900604	754.25
1354.434915	753.5
1354.969171	746.5
1355.503371	752.5
1356.037515	745.75
1356.571604	750.25
1357.105636	755.25
1357.639613	750.25
1358.173535	751.75
1358.7074	753.25
1359.24121	755.0
1359.774964	751.0
1360.308662	751.25
1360.842304	754.25
1361.375891	755.75
1361.909422	749.25
1362.442897	758.25
1362.976317	757.25
1363.50968	753.0
1364.042989	750.5
1364.576241	754.75
1365.109438	755.25
1365.642579	751.5
1366.175664	748.0
1366.708693	756.5
1367.241667	754.0
1367.774585	752.25
1368.307448	755.75
1368.840255	751.5
1369.373006	753.0
1369.905701	753.0
1370.438341	760.25
1370.970925	759.5
1371.503454	756.75
1372.035926	752.25
1372.568344	747.5
1373.100705	754.5
1373.633011	753.75
1374.165261	752.75
1374.697456	749.0
1375.229595	749.0
1375.761678	753.75
1376.293705	750.0
1376.825677	749.75
1377.357594	756.25
1377.889455	752.5
1378.42126	756.0
1378.953009	751.75
1379.484703	753.0
1380.016342	753.0
1380.547924	753.5
1381.079452	746.5
1381.610923	752.5
1382.142339	753.0
1382.673699	749.5
1383.205004	750.25
1383.736253	750.25
1384.267447	757.5
1384.798585	751.5
1385.329668	756.5
1385.860695	753.75
1386.391666	754.25
1386.922582	749.75
1387.453442	760.5
1387.984247	764.25
1388.514996	803.5
1389.04569	1028.0
1389.576328	1146.0
1390.10691	837.75
1390.637437	763.25
1391.167909	754.5
1391.698325	754.25
1392.228685	751.0
1392.75899	749.0
1393.28924	756.25
1393.819434	748.25
1394.349572	747.5
1394.879655	751.0
1395.409683	745.5
1395.939655	743.75
1396.469571	747.5
1396.999432	746.75
1397.529237	750.75
1398.058987	748.5
1398.588682	745.0
1399.118321	749.5
1399.647905	742.25
1400.177433	747.25
1400.706906	743.0
1401.236323	746.0
1401.765685	748.25
1402.294991	747.0
1402.824242	747.25
1403.353437	741.75
1403.882577	752.5
1404.411662	753.0
1404.940691	748.25
1405.469665	750.75
1405.998583	747.5
1406.527446	741.5
1407.056253	745.25
1407.585005	743.75
1408.113702	748.0
1408.642343	746.75
1409.170929	751.0
1409.69946	756.75
1410.227935	780.25
1410.756354	799.5
1411.284719	766.0
1411.813028	755.25
1412.341281	745.25
1412.869479	750.5
1413.397622	747.75
1413.92571	743.5
1414.453742	746.25
1414.981718	750.75
1415.50964	757.25
1416.037506	747.0
1416.565316	747.25
1417.093072	743.0
1417.620772	748.25
1418.148416	746.0
1418.676005	743.0
1419.203539	744.0
1419.731018	739.0
1420.258441	744.75
1420.785809	752.0
1421.313122	742.75
1421.840379	746.0
1422.367582	746.0
1422.894728	747.25
1423.42182	749.25
1423.948856	746.5
1424.475837	740.5
1425.002762	745.25
1425.529633	739.25
1426.056448	744.25
1426.583207	744.0
1427.109912	746.0
1427.636561	744.5
1428.163155	743.5
1428.689694	744.0
1429.216177	741.0
1429.742605	737.5
1430.268978	741.75
1430.795296	739.75
1431.321558	741.5
1431.847765	744.5
1432.373917	735.75
1432.900014	740.0
1433.426056	747.0
1433.952042	744.5
1434.477973	744.25
1435.003849	737.25
1435.529669	743.5
1436.055435	740.0
1436.581145	741.25
1437.1068	733.75
1437.632399	737.25
1438.157944	739.75
1438.683433	746.75
1439.208868	737.25
1439.734247	735.25
1440.25957	735.75
1440.784839	737.0
1441.310053	736.0
1441.835211	737.25
1442.360314	740.75
1442.885362	740.75
1443.410355	734.75
1443.935292	740.75
1444.460175	744.25
1444.985002	739.0
1445.509774	736.75
1446.034491	736.5
1446.559153	736.5
1447.08376	738.0
1447.608312	739.75
1448.132808	735.0
1448.65725	739.25
1449.181636	736.75
1449.705967	739.0
1450.230243	735.75
1450.754464	740.0
1451.27863	737.0
1451.802741	732.0
1452.326797	738.25
1452.850797	735.5
1453.374743	734.75
1453.898633	740.0
1454.422468	737.25
1454.946249	738.0
1455.469974	734.25
1455.993644	737.25
1456.517259	734.25
1457.040819	734.75
1457.564324	737.25
1458.087773	741.75
1458.611168	738.5
1459.134508	730.0
1459.657793	741.0
1460.181022	731.5
1460.704197	734.0
1461.227316	738.25
1461.750381	736.25
1462.27339	736.0
1462.796345	733.0
1463.319244	748.0
1463.842089	737.0
1464.364878	738.25
1464.887613	731.25
1465.410292	732.0
1465.932916	733.25
1466.455486	732.25
1466.978	731.0
1467.50046	732.0
1468.022864	729.5
1468.545214	735.75
1469.067508	732.0
1469.589748	732.5
1470.111932	734.0
1470.634062	732.0
1471.156136	734.5
1471.678156	731.0
1472.20012	732.0
1472.72203	732.0
1473.243885	730.25
1473.765685	738.0
1474.28743	728.75
1474.80912	731.0
1475.330755	728.5
1475.852335	730.75
1476.37386	735.75
1476.89533	727.75
1477.416745	730.0
1477.938106	728.5
1478.459411	731.25
1478.980662	720.25
1479.501857	730.0
1480.022998	729.75
1480.544084	736.0
1481.065115	725.25
1481.586091	725.0
1482.107012	732.75
1482.627878	726.75
1483.14869	734.75
1483.669446	727.5
1484.190148	726.5
1484.710794	729.75
1485.231386	733.25
1485.751923	735.0
1486.272406	732.0
1486.792833	729.0
1487.313205	726.0
1487.833523	731.0
1488.353786	730.25
1488.873994	728.25
1489.394147	731.5
1489.914245	726.5
1490.434288	729.5
1490.954277	731.75
1491.474211	727.75
1491.99409	726.25
1492.513914	731.5
1493.033683	729.0
1493.553398	732.5
1494.073057	729.75
1494.592662	729.25
1495.112212	726.25
1495.631708	727.75
1496.151148	728.75
1496.670534	725.25
1497.189865	729.75
1497.709141	728.5
1498.228362	730.75
1498.747529	731.75
1499.266641	727.0
1499.785698	738.5
1500.3047	725.5
1500.823648	741.25
1501.34254	722.5
1501.861379	728.0
1502.380162	729.75
1502.89889	730.25
1503.417564	724.25
1503.936183	723.25
1504.454748	721.75
1504.973257	727.5
1505.491712	727.25
1506.010112	728.75
1506.528458	724.0
1507.046748	723.25
1507.564984	727.75
1508.083166	730.25
1508.601292	732.25
1509.119364	726.25
1509.637381	727.5
1510.155344	725.75
1510.673252	737.5
1511.191105	732.75
1511.708903	728.25
1512.226647	727.0
1512.744336	729.25
1513.261971	729.5
1513.77955	725.0
1514.297076	728.5
1514.814546	724.75
1515.331962	725.0
1515.849323	725.75
1516.366629	729.25
1516.883881	729.0
1517.401078	727.0
1517.918221	723.0
1518.435309	726.5
1518.952342	728.25
1519.469321	721.5
1519.986245	727.75
1520.503114	723.0
1521.019929	725.5
1521.536689	729.5
1522.053395	727.0
1522.570046	722.25
1523.086642	729.5
1523.603184	726.5
1524.119671	718.5
1524.636103	731.75
1525.152481	722.5
1525.668805	721.75
1526.185073	726.0
1526.701288	730.0
1527.217447	723.75
1527.733552	730.0
1528.249603	726.75
1528.765599	721.5
1529.28154	727.5
1529.797427	727.0
1530.313259	729.0
1530.829037	726.25
1531.34476	725.5
1531.860429	722.5
1532.376043	727.75
1532.891602	727.5
1533.407107	726.75
1533.922558	729.5
1534.437954	727.75
1534.953295	729.0
1535.468582	727.75
1535.983815	722.75
1536.498993	723.0
1537.014116	721.25
1537.529185	725.75
1538.044199	724.75
1538.559159	727.25
1539.074064	724.25
1539.588915	724.25
1540.103712	726.75
1540.618454	722.5
1541.133141	721.5
1541.647774	726.0
1542.162353	728.75
1542.676877	729.75
1543.191346	726.75
1543.705761	729.5
1544.220122	723.75
1544.734428	724.0
1545.24868	723.5
1545.762877	720.0
1546.27702	718.75
1546.791109	715.75
1547.305143	722.0
1547.819122	722.75
1548.333047	722.75
1548.846918	725.5
1549.360734	721.25
1549.874496	728.25
1550.388204	720.5
1550.901857	725.25
1551.415455	723.0
1551.929	729.75
1552.442489	725.5
1552.955925	723.0
1553.469306	727.0
1553.982632	728.5
1554.495905	719.25
1555.009123	721.75
1555.522286	728.5
1556.035395	722.0
1556.54845	724.0
1557.06145	720.75
1557.574396	723.75
1558.087288	726.75
1558.600125	723.25
1559.112908	728.0
1559.625637	727.75
1560.138311	728.5
1560.650931	724.0
1561.163497	720.25
1561.676008	722.75
1562.188465	729.25
1562.700867	720.25
1563.213216	724.25
1563.725509	722.25
1564.237749	721.25
1564.749934	727.0
1565.262065	722.5
1565.774142	725.75
1566.286164	723.75
1566.798132	723.0
1567.310046	723.75
1567.821906	724.5
1568.333711	720.25
1568.845462	718.0
1569.357158	724.5
1570.380389	747.0
1570.891922	724.75
1571.403402	724.0
1571.914827	724.75
1572.426198	721.25
1572.937515	725.5
1573.448777	727.0
1573.959985	726.25
1574.471139	728.25
1574.982239	723.75
1575.493285	725.25
1576.004276	728.5
1576.515213	722.0
1577.026096	721.75
1577.536924	724.5
1578.047698	721.0
1578.558419	725.0
1579.069084	721.75
1579.579696	722.75
1580.090254	727.75
1580.600757	727.5
1581.111206	729.75
1581.621601	721.5
1582.131941	721.75
1582.642228	721.0
1583.15246	725.25
1583.662638	722.25
1584.172762	720.0
1584.682832	726.5
1585.192847	727.0
1585.702809	722.25
1586.212716	720.25
1586.722569	724.0
1587.232368	726.75
1587.742113	721.75
1588.251803	717.5
1588.76144	719.5
1589.271022	731.75
1589.78055	722.75
1590.290024	718.5
1590.799444	722.75
1591.30881	725.25
1591.818121	722.5
1592.327379	719.75
