1042.414189	792.0
1042.980685	800.0
1043.547124	794.0
1044.113505	790.0
1044.679828	789.0
1045.246093	794.0
1045.8123	801.25
1046.378449	790.25
1046.94454	790.0
1047.510573	792.0
1048.076548	790.25
1048.642465	791.0
1049.208325	779.75
1049.774126	783.0
1050.339869	787.75
1050.905555	787.25
1051.471183	790.5
1052.036752	781.75
1052.602264	772.75
1053.167718	785.25
1053.733114	781.5
1054.298452	785.25
1054.863733	782.75
1055.428955	785.5
1055.994119	783.25
1056.559226	783.5
1057.124275	785.0
1057.689266	777.25
1058.254199	780.0
1058.819074	777.0
1059.383891	784.25
1059.94865	784.5
1060.513352	780.0
1061.077996	786.5
1061.642582	780.75
1062.20711	785.75
1062.77158	778.0
1063.335992	780.75
1063.900347	776.75
1064.464643	780.0
1065.028882	778.25
1065.593063	780.0
1066.157187	779.75
1066.721252	775.25
1067.28526	781.75
1067.84921	777.75
1068.413102	776.25
1068.976936	783.0
1069.540713	775.75
1070.104431	791.0
1070.668092	775.25
1071.231696	779.0
1071.795241	782.0
1072.358729	772.25
1072.922159	775.5
1073.485531	780.25
1074.048845	771.0
1074.612102	780.25
1075.175301	780.75
1075.738442	769.5
1076.301525	776.0
1076.864551	776.75
1077.427519	783.0
1077.990429	776.25
1078.553281	777.0
1079.116076	780.5
1079.678813	780.75
1080.241492	778.5
1080.804114	773.25
1081.366678	778.5
1081.929184	774.0
1082.491633	783.25
1083.054024	769.5
1083.616357	775.5
1084.178632	778.25
1084.74085	780.5
1085.30301	773.25
1085.865113	774.75
1086.427158	769.75
1086.989145	771.75
1087.551074	787.0
1088.112946	772.5
1088.67476	775.5
1089.236517	767.25
1089.798216	771.5
1090.359857	778.0
1090.92144	776.75
1091.482966	773.25
1092.044435	778.75
1092.605845	775.75
1093.167199	776.25
1093.728494	773.0
1094.289732	774.25
1094.850912	774.5
1095.412035	783.0
1095.9731	768.25
1096.534107	775.25
1097.095057	778.0
1097.65595	772.5
1098.216784	773.25
1098.777561	770.0
1099.338281	767.25
1099.898943	777.25
1100.459547	774.5
1101.020094	774.25
1101.580584	779.0
1102.141015	770.0
1102.701389	771.0
1103.261706	774.75
1103.821965	767.0
1104.382167	770.0
1104.942311	766.0
1105.502397	769.75
1106.062426	775.5
1106.622398	775.25
1107.182312	765.5
1107.742168	771.0
1108.301967	772.25
1108.861708	774.0
1109.421392	776.0
1109.981019	775.0
1110.540587	771.25
1111.100099	769.0
1111.659553	772.75
1112.218949	768.25
1112.778288	766.0
1113.33757	776.75
1113.896794	774.25
1114.45596	773.0
1115.015069	770.75
1115.574121	768.5
1116.133115	772.5
1116.692052	774.0
1117.250931	769.25
1117.809753	775.25
1118.368517	772.5
1118.927224	764.25
1119.485873	774.75
1120.044465	776.25
1120.603	772.5
1121.161477	766.25
1121.719897	773.5
1122.278259	774.25
1122.836564	770.5
1123.394812	763.75
1123.953002	773.0
1124.511135	772.75
1125.06921	772.0
1125.627228	766.75
1126.185189	765.0
1126.743092	769.25
1127.300938	774.75
1127.858726	770.25
1128.416457	767.25
1128.974131	768.0
1129.531748	771.25
1130.089307	774.25
1130.646808	767.5
1131.204252	761.0
1131.761639	765.25
1132.318969	772.25
1132.876241	761.25
1133.433456	773.75
1133.990614	763.75
1134.547714	766.75
1135.104757	766.0
1135.661743	766.5
1136.218671	769.5
1136.775542	768.75
1137.332356	770.75
1137.889112	764.75
1138.445811	767.5
1139.002453	762.5
1139.559037	769.75
1140.115565	767.5
1140.672035	760.0
1141.228447	765.0
1141.784803	763.5
1142.341101	775.75
1142.897342	772.5
1143.453525	770.25
1144.009651	776.0
1144.565721	769.0
1145.121732	767.5
1145.677687	770.5
1146.233584	766.25
1146.789424	762.0
1147.345207	763.0
1147.900933	772.0
1148.456601	774.75
1149.012212	770.25
1149.567766	772.5
1150.123263	768.5
1150.678702	768.0
1151.234085	772.25
1151.78941	772.0
1152.344678	769.0
1152.899888	771.5
1153.455042	767.0
1154.010138	764.0
1154.565177	761.25
1155.120159	775.5
1155.675084	768.25
1156.229951	761.25
1156.784762	768.25
1157.339515	768.25
1157.894211	765.25
1158.44885	770.25
1159.003432	772.0
1159.557956	766.5
1160.112424	766.75
1160.666834	766.0
1161.221187	763.0
1161.775483	765.0
1162.329722	761.75
1162.883904	766.25
1163.438029	763.75
1163.992096	764.75
1164.546107	772.0
1165.10006	771.25
1165.653956	763.75
1166.207795	768.75
1166.761577	768.25
1167.315302	767.75
1167.86897	758.25
1168.422581	767.25
1168.976134	757.0
1169.529631	765.75
1170.08307	764.5
1170.636453	768.75
1171.189778	764.5
1171.743046	768.25
1172.296257	763.25
1172.849412	768.5
1173.402509	763.75
1173.955549	778.5
1174.508532	765.0
1175.061458	766.5
1175.614327	766.5
1176.167138	766.75
1176.719893	770.75
1177.272591	768.5
1177.825232	769.0
1178.377816	763.75
1178.930342	760.0
1179.482812	768.25
1180.035225	761.75
1180.587581	768.25
1181.139879	762.5
1181.692121	762.75
1182.244306	765.5
1182.796434	764.75
1183.348504	765.75
1183.900518	762.75
1184.452475	762.25
1185.004375	769.0
1185.556218	769.75
1186.108004	761.5
1186.659733	767.75
1187.211405	769.0
1187.76302	761.5
1188.314578	762.75
1188.866079	769.25
1189.417523	760.75
1189.96891	772.25
1190.520241	764.25
1191.071514	762.25
1191.622731	763.75
1192.17389	762.5
1192.724993	758.0
1193.276039	789.75
1193.827027	764.0
1194.377959	764.25
1194.928834	762.25
1195.479653	768.25
1196.030414	766.25
1196.581118	763.5
1197.131766	759.0
1197.682356	762.0
1198.23289	767.5
1198.783367	761.75
1199.333786	761.5
1199.88415	762.0
1200.434456	760.0
1200.984705	759.0
1201.534898	759.25
1202.085033	762.25
1202.635112	762.5
1203.185134	762.5
1203.735099	762.25
1204.285007	758.75
1204.834859	763.25
1205.384653	763.75
1205.934391	760.5
1206.484072	760.75
1207.033696	757.25
1207.583263	757.75
1208.132774	762.25
1208.682228	757.5
1209.231624	757.0
1209.780965	761.75
1210.330248	763.25
1210.879474	759.75
1211.428644	764.25
1211.977757	763.5
1212.526813	759.25
1213.075813	763.75
1213.624755	754.5
1214.173641	758.0
1214.72247	763.75
1215.271242	764.5
1215.819958	763.0
1216.368617	762.25
1216.917219	756.5
1217.465764	760.75
1218.014253	767.5
1218.562685	759.5
1219.11106	758.0
1219.659378	762.5
1220.20764	761.25
1220.755845	763.0
1221.303993	761.5
1221.852085	761.0
1222.400119	759.75
1222.948097	755.75
1223.496019	758.0
1224.043883	761.25
1224.591691	754.5
1225.139443	762.5
1225.687137	762.75
1226.234775	764.0
1226.782357	763.5
1227.329881	756.25
1227.877349	762.75
1228.42476	760.25
1228.972115	768.75
1229.519413	762.5
1230.066654	757.25
1230.613839	760.0
1231.160967	762.5
1231.708038	764.5
1232.255053	764.75
1232.802011	765.5
1233.348912	760.0
1233.895757	761.5
1234.442545	755.5
1234.989277	765.25
1235.535951	759.75
1236.08257	761.5
1236.629131	759.75
1237.175636	761.25
1237.722085	759.5
1238.268477	756.5
1238.814812	759.75
1239.361091	758.75
1239.907313	759.25
1240.453478	761.75
1240.999587	758.0
1241.54564	759.75
1242.091636	759.5
1242.637575	762.0
1243.183457	759.5
1243.729284	759.75
1244.275053	755.25
1244.820766	765.25
1245.366423	763.0
1245.912022	760.75
1246.457566	769.0
1247.003053	764.75
1247.548483	759.25
1248.093857	758.5
1248.639174	756.25
1249.184435	763.0
1249.729639	758.25
1250.274787	762.75
1250.819878	759.25
1251.364912	755.5
1251.909891	758.75
1252.454812	761.75
1252.999677	759.25
1253.544486	757.5
1254.089238	768.75
1254.633934	759.75
1255.178573	757.5
1255.723156	760.75
1256.267682	758.75
1256.812152	758.25
1257.356565	754.5
1257.900922	762.5
1258.445223	757.5
1258.989467	761.25
1259.533654	755.5
1260.077785	776.0
1260.62186	763.5
1261.165878	763.0
1261.70984	754.75
1262.253745	763.5
1262.797594	762.5
1263.341386	763.5
1263.885123	759.25
1264.428802	762.75
1264.972425	765.25
1265.515992	774.75
1266.059503	788.5
1266.602957	771.25
1267.146354	767.75
1267.689696	761.25
1268.23298	766.0
1268.776209	760.0
1269.319381	759.25
1269.862497	764.0
1270.405556	758.0
1270.948559	760.0
1271.491506	760.75
1272.034396	760.75
1272.57723	756.75
1273.120007	759.25
1273.662728	763.0
1274.205393	762.0
1274.748002	758.0
1275.290554	757.25
1275.83305	759.25
1276.375489	764.0
1276.917872	761.0
1277.460199	767.25
1278.00247	755.75
1278.544684	766.0
1279.086842	753.0
1279.628943	760.75
1280.170989	759.25
1280.712978	758.75
1281.25491	759.5
1281.796787	759.75
1282.338607	763.5
1282.880371	762.0
1283.422078	765.5
1283.963729	753.5
1284.505324	761.25
1285.046863	773.0
1285.588345	829.0
1286.129772	1001.0
1286.671142	964.75
1287.212455	806.0
1287.753713	774.75
1288.294914	765.25
1288.836059	766.0
1289.377147	762.5
1289.91818	757.75
1290.459156	757.5
1291.000076	756.75
1291.54094	754.0
1292.081747	760.5
1292.622499	762.5
1293.163194	758.0
1293.703833	755.75
1294.244415	753.5
1294.784942	755.25
1295.325412	762.0
1295.865826	758.25
1296.406184	758.25
1296.946486	765.0
1297.486731	758.0
1298.026921	756.75
1298.567054	751.0
1299.107131	762.25
1299.647152	761.5
1300.187116	760.25
1300.727025	761.25
1301.266877	753.75
1301.806673	760.25
1302.346413	754.0
1302.886097	758.75
1303.425725	758.75
1303.965297	750.0
1304.504812	758.5
1305.044272	755.25
1305.583675	756.0
1306.123022	756.5
1306.662313	755.0
1307.201548	754.75
1307.740727	755.0
1308.279849	754.75
1308.818916	755.5
1309.357926	756.5
1309.896881	753.0
1310.435779	758.5
1310.974621	755.5
1311.513407	759.5
1312.052137	760.75
1312.590811	754.0
1313.129429	756.75
1313.667991	759.25
1314.206497	756.5
1314.744946	760.75
1315.28334	758.75
1315.821678	757.0
1316.359959	760.0
1316.898184	753.75
1317.436354	759.25
1317.974467	757.0
1318.512525	759.75
1319.050526	756.5
1319.588471	756.25
1320.12636	752.25
1320.664194	760.0
1321.201971	754.75
1321.739692	755.5
1322.277357	753.5
1322.814967	755.0
1323.35252	759.5
1323.890017	756.75
1324.427458	754.5
1324.964843	754.0
1325.502173	754.75
1326.039446	754.5
1326.576663	750.75
1327.113824	754.5
1327.65093	757.5
1328.187979	758.5
1328.724972	757.5
1329.26191	755.5
1329.798791	754.0
1330.335617	762.5
1330.872386	749.25
1331.4091	748.0
1331.945758	760.5
1332.48236	753.0
1333.018905	750.75
1333.555395	757.5
1334.091829	751.0
1334.628207	751.5
1335.164529	758.5
1335.700796	751.0
1336.237006	752.25
1336.77316	754.75
1337.309259	752.0
1337.845301	751.75
1338.381288	757.5
1338.917219	761.25
1339.453094	757.25
1339.988913	752.5
1340.524676	754.25
1341.060383	755.25
1341.596034	750.0
1342.13163	753.5
1342.66717	747.5
1343.202653	755.75
1343.738081	751.0
1344.273453	759.75
1344.80877	754.75
1345.34403	754.5
1345.879235	753.75
1346.414383	750.5
1346.949476	756.25
1347.484513	755.0
1348.019494	755.25
1348.55442	764.0
1349.089289	750.0
1349.624103	750.5
1350.158861	758.75
1350.693563	761.25
1351.228209	755.75
1351.7628	749.0
1352.297334	758.25
1352.831813	758.25
1353.366236	749.5
1353.900604	751.75
1354.434915	761.25
1354.969171	755.25
1355.503371	753.0
1356.037515	751.25
1356.571604	755.0
1357.105636	753.5
1357.639613	756.75
1358.173535	754.75
1358.7074	750.75
1359.24121	751.25
1359.774964	751.0
1360.308662	748.5
1360.842304	752.5
1361.375891	753.5
1361.909422	758.0
1362.442897	755.0
1362.976317	750.0
1363.50968	750.75
1364.042989	753.0
1364.576241	752.5
1365.109438	749.25
1365.642579	761.0
1366.175664	752.0
1366.708693	753.75
1367.241667	754.0
1367.774585	758.0
1368.307448	753.75
1368.840255	751.75
1369.373006	750.25
1369.905701	751.5
1370.438341	756.5
1370.970925	756.0
1371.503454	752.0
1372.035926	752.0
1372.568344	755.25
1373.100705	755.25
1373.633011	755.25
1374.165261	745.75
1374.697456	750.5
1375.229595	756.5
1375.761678	756.0
1376.293705	747.75
1376.825677	750.25
1377.357594	753.0
1377.889455	749.0
1378.42126	749.75
1378.953009	757.0
1379.484703	750.25
1380.016342	748.5
1380.547924	752.25
1381.079452	754.75
1381.610923	749.75
1382.142339	752.5
1382.673699	745.0
1383.205004	757.0
1383.736253	749.25
1384.267447	753.75
1384.798585	747.25
1385.329668	744.0
1385.860695	753.0
1386.391666	754.5
1386.922582	756.5
1387.453442	757.25
1387.984247	760.25
1388.514996	806.75
1389.04569	1037.75
1389.576328	1174.25
1390.10691	832.25
1390.637437	760.0
1391.167909	755.75
1391.698325	753.75
1392.228685	756.5
1392.75899	746.25
1393.28924	753.5
1393.819434	760.0
1394.349572	746.5
1394.879655	745.0
1395.409683	749.0
1395.939655	745.25
1396.469571	749.5
1396.999432	752.25
1397.529237	752.5
1398.058987	753.25
1398.588682	749.0
1399.118321	749.75
1399.647905	748.5
1400.177433	751.0
1400.706906	747.0
1401.236323	746.5
1401.765685	750.5
1402.294991	742.5
1402.824242	743.5
1403.353437	747.5
1403.882577	746.5
1404.411662	744.75
1404.940691	749.75
1405.469665	750.25
1405.998583	743.75
1406.527446	751.75
1407.056253	746.5
1407.585005	745.0
1408.113702	752.0
1408.642343	745.75
1409.170929	746.25
1409.69946	756.75
1410.227935	780.75
1410.756354	811.0
1411.284719	772.75
1411.813028	749.25
1412.341281	749.25
1412.869479	744.0
1413.397622	745.5
1413.92571	745.5
1414.453742	742.5
1414.981718	749.0
1415.50964	757.25
1416.037506	747.0
1416.565316	739.75
1417.093072	746.25
1417.620772	747.25
1418.148416	744.5
1418.676005	742.75
1419.203539	747.5
1420.785809	748.25
1421.313122	741.0
1421.840379	749.0
1422.367582	745.5
1422.894728	736.0
1423.42182	747.0
1423.948856	743.75
1424.475837	744.5
1425.002762	744.75
1425.529633	747.5
1426.056448	745.0
1426.583207	753.5
1427.109912	752.0
1427.636561	743.5
1428.163155	742.75
1428.689694	748.0
1429.216177	740.25
1429.742605	745.0
1430.268978	742.0
1430.795296	744.25
1431.321558	740.25
1431.847765	745.0
1432.373917	739.25
1432.900014	739.75
1433.426056	739.25
1433.952042	745.25
1434.477973	740.25
1435.003849	736.75
1435.529669	741.5
1436.055435	740.0
1436.581145	736.5
1437.1068	739.0
1437.632399	739.25
1438.157944	737.25
1438.683433	746.0
1439.208868	738.25
1439.734247	743.75
1440.25957	738.25
1440.784839	737.25
1441.310053	739.25
1441.835211	744.75
1442.360314	737.5
1442.885362	738.75
1443.410355	736.25
1443.935292	738.0
1444.460175	744.0
1444.985002	738.75
1445.509774	738.75
1446.034491	737.0
1446.559153	739.25
1447.08376	735.25
1447.608312	736.25
1448.132808	741.5
1448.65725	738.0
1449.181636	735.75
1449.705967	735.25
1450.230243	741.0
1450.754464	736.75
1451.27863	738.75
1451.802741	735.75
1452.326797	736.5
1452.850797	733.5
1453.374743	734.5
1453.898633	737.25
1454.422468	737.25
1454.946249	739.5
1455.469974	731.25
1455.993644	732.5
1456.517259	733.5
1457.040819	736.0
1457.564324	732.75
1458.087773	742.25
1458.611168	738.0
1459.134508	732.25
1459.657793	739.0
1460.181022	726.5
1460.704197	739.5
1461.227316	734.0
1461.750381	735.75
1462.27339	730.75
1462.796345	734.75
1463.319244	733.0
1463.842089	736.75
1464.364878	732.5
1464.887613	732.5
1465.410292	737.0
1465.932916	735.25
1466.455486	733.25
1466.978	734.5
1467.50046	727.0
1468.022864	730.75
1468.545214	733.5
1469.067508	732.25
1469.589748	734.25
1470.111932	732.25
1470.634062	736.25
1471.156136	734.75
1471.678156	733.25
1472.20012	735.75
1472.72203	733.75
1473.243885	735.0
1473.765685	732.75
1474.28743	730.75
1474.80912	728.25
1475.330755	733.5
1475.852335	729.25
1476.37386	729.25
1476.89533	729.25
1477.416745	731.0
1477.938106	733.0
1478.459411	733.25
1478.980662	733.5
1479.501857	732.25
1480.022998	734.0
1480.544084	730.75
1481.065115	733.5
1481.586091	730.0
1482.107012	728.0
1482.627878	731.75
1483.14869	729.0
1483.669446	728.5
1484.190148	727.25
1484.710794	729.0
1485.231386	734.0
1485.751923	731.0
1486.272406	728.0
1486.792833	732.75
1487.313205	728.5
1487.833523	732.5
1488.353786	724.75
1488.873994	729.5
1489.394147	722.5
1489.914245	730.5
1490.434288	732.5
1490.954277	725.25
1491.474211	724.0
1491.99409	725.5
1492.513914	730.25
1493.033683	726.5
1493.553398	732.75
1494.073057	732.0
1494.592662	728.25
1495.112212	730.5
1495.631708	724.75
1496.151148	727.0
1496.670534	724.5
1497.189865	727.75
1497.709141	732.0
1498.228362	729.5
1498.747529	730.5
1499.266641	725.75
1499.785698	738.5
1500.3047	731.75
1500.823648	725.25
1501.34254	727.0
1501.861379	726.0
1502.380162	723.25
1502.89889	721.5
1503.417564	732.25
1503.936183	726.75
1504.454748	722.75
1504.973257	730.5
1505.491712	721.75
1506.010112	728.75
1506.528458	724.5
1507.046748	728.0
1507.564984	730.75
1508.083166	726.0
1508.601292	722.0
1509.119364	724.5
1509.637381	720.25
1510.155344	728.75
1510.673252	733.25
1511.191105	726.0
1511.708903	726.25
1512.226647	728.0
1512.744336	722.5
1513.261971	728.25
1513.77955	726.5
1514.297076	730.25
1514.814546	729.25
1515.331962	731.75
1515.849323	728.0
1516.366629	728.0
1516.883881	729.5
1517.401078	730.5
1517.918221	725.5
1518.435309	728.75
1518.952342	726.25
1519.469321	729.25
1519.986245	722.25
1520.503114	730.5
1521.019929	731.5
1521.536689	727.0
1522.053395	727.25
1522.570046	725.75
1523.086642	729.0
1523.603184	724.25
1524.119671	722.5
1524.636103	729.5
1525.152481	720.0
1525.668805	722.25
1526.185073	724.25
1526.701288	722.75
1527.217447	732.5
1527.733552	727.25
1528.249603	723.5
1528.765599	726.5
1529.28154	731.0
1529.797427	727.25
1530.313259	725.75
1530.829037	724.0
1531.34476	726.5
1531.860429	731.0
1532.376043	724.25
1532.891602	730.25
1533.407107	721.75
1533.922558	728.25
1534.437954	725.25
1534.953295	724.25
1535.468582	729.5
1535.983815	723.75
1536.498993	719.5
1537.014116	726.5
1537.529185	725.75
1538.044199	724.5
1538.559159	728.5
1539.074064	726.25
1539.588915	725.25
1540.103712	723.0
1540.618454	724.75
1541.133141	724.75
1541.647774	724.75
1542.162353	726.0
1542.676877	721.5
1543.191346	731.25
1543.705761	726.25
1544.220122	717.0
1544.734428	721.75
1545.24868	721.75
1545.762877	723.25
1546.27702	729.25
1546.791109	730.0
1547.305143	727.75
1547.819122	729.0
1548.333047	719.75
1548.846918	725.0
1549.360734	722.75
1549.874496	723.5
1550.388204	725.25
1550.901857	727.75
1551.415455	725.25
1551.929	726.25
1552.442489	724.75
1552.955925	721.25
1553.469306	725.0
1553.982632	730.0
1554.495905	723.75
1555.009123	725.75
1555.522286	723.75
1556.035395	722.0
1556.54845	727.5
1557.06145	727.75
1557.574396	727.75
1558.087288	724.25
1558.600125	726.75
1559.112908	722.5
1559.625637	729.75
1560.138311	726.0
1560.650931	719.75
1561.163497	728.25
1561.676008	726.0
1562.188465	726.0
1562.700867	720.5
1563.213216	729.75
1563.725509	727.75
1564.237749	729.25
1564.749934	723.25
1565.262065	720.75
1565.774142	723.75
1566.286164	723.25
1566.798132	723.75
1567.310046	726.25
1567.821906	723.0
1568.333711	721.0
1568.845462	723.5
1569.357158	723.25
1569.868801	726.5
1570.380389	722.25
1570.891922	720.5
1571.403402	723.25
1571.914827	723.75
1572.426198	729.25
1572.937515	723.5
1573.448777	722.5
1573.959985	725.25
1574.471139	726.25
1574.982239	729.25
1575.493285	724.0
1576.004276	722.5
1576.515213	721.5
1577.026096	723.5
1577.536924	720.75
1578.047698	720.75
1578.558419	725.75
1579.069084	720.5
1579.579696	721.25
1580.090254	721.75
1580.600757	720.25
1581.111206	721.0
1581.621601	726.0
1582.131941	723.25
1582.642228	721.25
1583.15246	722.5
1583.662638	721.25
1584.172762	723.75
1584.682832	721.5
1585.192847	722.75
1585.702809	721.5
1586.212716	723.25
1586.722569	721.5
1587.232368	723.0
1587.742113	723.75
1588.251803	729.0
1588.76144	723.25
1589.271022	722.75
1589.78055	723.75
1590.290024	719.0
1590.799444	724.25
1591.30881	723.0
1591.818121	724.0
1592.327379	722.25
