1042.414189	801.25
1042.980685	796.0
1043.547124	791.75
1044.113505	788.75
1044.679828	791.25
1045.246093	796.0
1045.8123	794.5
1046.378449	791.5
1046.94454	781.5
1047.510573	788.25
1048.076548	779.75
1048.642465	794.0
1049.208325	781.25
1049.774126	785.0
1050.339869	785.5
1050.905555	792.0
1051.471183	789.75
1052.036752	783.75
1052.602264	789.0
1053.167718	784.0
1053.733114	783.75
1054.298452	788.5
1054.863733	789.25
1055.428955	781.5
1055.994119	778.25
1056.559226	778.75
1057.124275	784.75
1057.689266	782.5
1058.254199	785.0
1058.819074	784.25
1059.383891	782.75
1059.94865	778.25
1060.513352	782.5
1061.077996	781.5
1061.642582	785.0
1062.20711	774.5
1062.77158	778.25
1063.335992	785.0
1063.900347	774.0
1064.464643	776.0
1065.028882	777.25
1065.593063	774.5
1066.157187	780.5
1066.721252	783.75
1067.28526	782.75
1067.84921	781.75
1068.413102	784.75
1068.976936	773.75
1069.540713	778.0
1070.104431	784.0
1070.668092	773.5
1071.231696	773.75
1071.795241	770.5
1072.358729	776.75
1072.922159	778.75
1073.485531	776.5
1074.048845	774.0
1074.612102	778.5
1075.175301	781.25
1075.738442	772.75
1076.301525	776.0
1076.864551	775.5
1077.427519	776.25
1077.990429	773.5
1078.553281	782.75
1079.116076	772.0
1079.678813	774.25
1080.241492	776.75
1080.804114	776.5
1081.366678	779.0
1081.929184	769.25
1082.491633	774.0
1083.054024	774.75
1083.616357	777.25
1084.178632	783.25
1084.74085	778.25
1085.30301	776.5
1085.865113	779.25
1086.427158	779.0
1086.989145	773.25
1087.551074	772.75
1088.112946	775.75
1088.67476	779.25
1089.236517	779.25
1089.798216	773.5
1090.359857	769.5
1090.92144	767.25
1091.482966	771.25
1092.044435	767.5
1092.605845	773.5
1093.167199	779.5
1093.728494	770.25
1094.289732	765.75
1094.850912	775.75
1095.412035	782.5
1095.9731	766.25
1096.534107	771.25
1097.095057	772.0
1097.65595	771.75
1098.216784	775.5
1098.777561	774.0
1099.338281	774.5
1099.898943	773.75
1100.459547	765.5
1101.020094	770.5
1101.580584	772.0
1102.141015	763.75
1102.701389	771.25
1103.261706	770.25
1103.821965	765.5
1104.382167	768.25
1104.942311	768.0
1105.502397	772.0
1106.062426	771.75
1106.622398	774.5
1107.182312	770.25
1107.742168	768.75
1108.301967	764.25
1108.861708	778.0
1109.421392	765.0
1109.981019	771.25
1110.540587	767.0
1111.100099	768.5
1111.659553	757.25
1112.218949	768.0
1112.778288	772.75
1113.33757	765.25
1113.896794	764.0
1114.45596	764.5
1115.015069	765.0
1115.574121	765.25
1116.133115	768.75
1116.692052	765.0
1117.250931	773.25
1117.809753	761.5
1118.368517	768.25
1118.927224	768.75
1119.485873	770.0
1120.044465	768.0
1120.603	764.25
1121.161477	765.75
1121.719897	770.0
1122.278259	768.75
1122.836564	760.5
1123.394812	768.5
1123.953002	767.0
1124.511135	773.75
1125.06921	774.25
1125.627228	769.25
1126.185189	765.25
1126.743092	769.5
1127.300938	768.0
1127.858726	768.25
1128.416457	765.25
1128.974131	768.5
1129.531748	769.25
1130.089307	766.25
1130.646808	765.25
1131.204252	770.75
1131.761639	769.0
1132.318969	766.25
1132.876241	764.75
1133.433456	761.75
1133.990614	762.25
1134.547714	762.25
1135.104757	763.0
1135.661743	762.5
1136.218671	765.5
1136.775542	766.25
1137.332356	767.25
1137.889112	761.5
1138.445811	766.0
1139.002453	763.75
1139.559037	762.5
1140.115565	764.75
1140.672035	763.5
1141.228447	763.25
1141.784803	764.75
1142.341101	766.25
1142.897342	766.0
1143.453525	761.75
1144.009651	768.0
1144.565721	769.0
1145.121732	760.5
1145.677687	765.0
1146.233584	767.0
1146.789424	761.75
1147.345207	766.0
1147.900933	763.75
1148.456601	768.25
1149.012212	765.0
1149.567766	764.25
1150.123263	768.5
1150.678702	766.75
1151.234085	767.0
1151.78941	761.25
1152.344678	764.0
1152.899888	764.0
1153.455042	761.0
1154.010138	763.25
1154.565177	759.0
1155.120159	769.75
1155.675084	767.0
1156.229951	768.0
1156.784762	763.75
1157.339515	769.25
1157.894211	759.5
1158.44885	762.0
1159.003432	767.25
1159.557956	763.0
1160.112424	756.0
1160.666834	760.5
1161.221187	767.0
1161.775483	768.5
1162.329722	768.75
1162.883904	765.75
1163.438029	763.0
1163.992096	760.0
1164.546107	763.25
1165.10006	762.0
1165.653956	761.5
1166.207795	763.25
1166.761577	760.75
1167.315302	765.0
1167.86897	768.0
1168.422581	760.25
1168.976134	764.75
1169.529631	768.5
1170.08307	767.5
1170.636453	759.25
1171.189778	763.0
1171.743046	759.0
1172.296257	757.5
1172.849412	767.25
1173.402509	762.5
1173.955549	762.75
1174.508532	761.75
1175.061458	763.25
1175.614327	765.0
1176.167138	766.75
1176.719893	762.25
1177.272591	761.25
1177.825232	761.25
1178.377816	759.0
1178.930342	763.5
1179.482812	764.0
1180.035225	764.0
1180.587581	767.75
1181.139879	763.0
1181.692121	762.5
1182.244306	766.0
1182.796434	758.0
1183.348504	762.75
1183.900518	760.25
1184.452475	758.75
1185.004375	755.5
1185.556218	762.25
1186.108004	756.75
1186.659733	763.5
1187.211405	765.5
1187.76302	759.5
1188.314578	765.25
1188.866079	762.5
1189.417523	758.5
1189.96891	762.25
1190.520241	756.5
1191.071514	760.75
1191.622731	757.75
1192.17389	766.5
1192.724993	759.25
1193.276039	784.75
1193.827027	757.75
1194.377959	765.75
1194.928834	759.5
1195.479653	760.25
1196.030414	756.0
1196.581118	756.75
1197.131766	762.25
1197.682356	755.75
1198.23289	756.0
1198.783367	758.75
1199.333786	757.25
1199.88415	764.0
1200.434456	756.75
1200.984705	762.25
1201.534898	758.0
1202.085033	760.0
1202.635112	753.25
1203.185134	758.0
1203.735099	759.25
1204.285007	757.75
1204.834859	756.0
1205.384653	756.75
1205.934391	755.5
1206.484072	762.25
1207.033696	758.5
1207.583263	759.5
1208.132774	757.0
1208.682228	753.5
1209.231624	749.0
1209.780965	763.75
1210.330248	755.25
1210.879474	762.0
1211.428644	754.75
1211.977757	759.5
1212.526813	761.5
1213.075813	757.5
1213.624755	759.25
1214.173641	757.0
1214.72247	757.0
1215.271242	755.0
1215.819958	761.75
1216.368617	759.25
1216.917219	751.75
1217.465764	757.5
1218.014253	761.0
1218.562685	759.75
1219.11106	758.75
1219.659378	762.0
1220.20764	762.0
1220.755845	756.25
1221.303993	756.0
1221.852085	760.75
1222.400119	751.25
1222.948097	756.25
1223.496019	751.75
1224.043883	760.75
1224.591691	752.25
1225.139443	756.0
1225.687137	763.75
1226.234775	765.0
1226.782357	756.0
1227.329881	753.5
1227.877349	757.25
1228.42476	751.5
1228.972115	755.5
1229.519413	755.0
1230.066654	753.0
1230.613839	754.25
1231.160967	759.75
1231.708038	763.5
1232.255053	756.75
1232.802011	757.25
1233.348912	757.25
1233.895757	757.25
1234.442545	757.0
1234.989277	756.5
1235.535951	757.75
1236.08257	756.25
1236.629131	760.5
1237.175636	754.25
1237.722085	756.5
1238.268477	759.25
1238.814812	761.5
1239.361091	752.0
1239.907313	762.0
1240.453478	755.75
1240.999587	756.0
1241.54564	756.5
1242.091636	756.5
1242.637575	764.5
1243.183457	760.75
1243.729284	756.5
1244.275053	752.75
1244.820766	762.0
1245.366423	758.25
1245.912022	751.5
1246.457566	759.0
1247.003053	751.5
1247.548483	755.25
1248.093857	758.25
1248.639174	756.0
1249.184435	759.25
1249.729639	750.0
1250.274787	758.75
1250.819878	759.75
1251.364912	756.75
1251.909891	749.5
1252.454812	755.75
1252.999677	761.75
1253.544486	756.0
1254.089238	753.25
1254.633934	755.0
1255.178573	762.25
1255.723156	752.25
1256.267682	754.75
1256.812152	759.5
1257.356565	757.0
1257.900922	745.5
1258.445223	756.75
1258.989467	759.75
1259.533654	760.75
1260.077785	764.0
1260.62186	755.0
1261.165878	758.25
1261.70984	757.5
1262.253745	754.75
1262.797594	758.0
1263.341386	763.75
1263.885123	757.5
1264.428802	756.25
1264.972425	755.5
1265.515992	773.5
1266.059503	799.0
1266.602957	771.75
1267.146354	756.75
1267.689696	754.0
1268.23298	753.0
1268.776209	755.25
1269.319381	757.0
1269.862497	760.25
1270.405556	749.0
1270.948559	750.5
1271.491506	760.5
1272.034396	759.0
1272.57723	759.75
1273.120007	750.25
1273.662728	751.75
1274.205393	749.75
1274.748002	758.25
1275.290554	758.0
1275.83305	757.75
1276.375489	755.0
1276.917872	758.25
1277.460199	752.0
1278.00247	758.5
1278.544684	753.25
1279.086842	750.0
1279.628943	754.25
1280.170989	758.0
1280.712978	748.75
1281.25491	758.5
1281.796787	754.0
1282.338607	758.75
1282.880371	753.25
1283.422078	759.75
1283.963729	757.75
1284.505324	759.75
1285.046863	768.0
1285.588345	814.25
1286.129772	1021.0
1286.671142	983.75
1287.212455	805.25
1287.753713	763.0
1288.294914	759.75
1288.836059	758.25
1289.377147	757.75
1289.91818	759.25
1290.459156	758.25
1291.000076	751.5
1291.54094	755.5
1292.081747	760.0
1292.622499	753.0
1293.163194	755.75
1293.703833	752.0
1294.244415	748.5
1294.784942	754.0
1295.325412	758.75
1295.865826	755.0
1296.406184	751.0
1296.946486	749.25
1297.486731	757.0
1298.026921	751.0
1298.567054	750.75
1299.107131	755.25
1299.647152	755.0
1300.187116	751.0
1300.727025	757.25
1301.266877	747.25
1301.806673	754.25
1302.346413	753.5
1302.886097	749.25
1303.425725	754.75
1303.965297	753.0
1304.504812	752.25
1305.044272	752.75
1305.583675	755.75
1306.123022	744.0
1306.662313	754.0
1307.201548	753.75
1307.740727	751.5
1308.279849	752.75
1308.818916	754.75
1309.357926	750.0
1309.896881	751.0
1310.435779	750.5
1310.974621	748.5
1311.513407	752.75
1312.052137	750.25
1312.590811	754.75
1313.129429	758.5
1313.667991	760.75
1314.206497	751.75
1314.744946	749.0
1315.28334	752.0
1315.821678	752.25
1316.359959	746.5
1316.898184	753.0
1317.436354	756.5
1317.974467	748.5
1318.512525	751.0
1319.050526	751.25
1319.588471	748.75
1320.12636	752.25
1320.664194	755.0
1321.201971	749.5
1321.739692	752.5
1322.277357	752.5
1322.814967	751.25
1323.35252	756.25
1323.890017	757.25
1324.427458	756.25
1324.964843	749.25
1325.502173	754.75
1326.039446	745.75
1326.576663	753.25
1327.113824	750.5
1327.65093	757.25
1328.187979	750.25
1328.724972	748.75
1329.26191	758.25
1329.798791	746.5
1330.335617	748.0
1330.872386	750.0
1331.4091	753.5
1331.945758	749.5
1332.48236	749.5
1333.018905	750.5
1333.555395	753.5
1334.091829	750.25
1334.628207	757.0
1335.164529	750.75
1335.700796	748.0
1336.237006	754.75
1336.77316	752.25
1337.309259	749.25
1337.845301	753.75
1338.381288	754.5
1338.917219	748.75
1339.453094	755.0
1339.988913	748.5
1340.524676	750.25
1341.060383	753.25
1341.596034	751.75
1342.13163	749.0
1342.66717	745.5
1343.202653	749.25
1343.738081	743.5
1344.273453	753.75
1344.80877	753.5
1345.34403	755.0
1345.879235	753.25
1346.414383	750.0
1346.949476	745.5
1347.484513	752.0
1348.019494	748.75
1348.55442	750.25
1349.089289	747.5
1349.624103	747.25
1350.158861	751.75
1350.693563	747.25
1351.228209	745.75
1351.7628	751.25
1352.297334	747.0
1352.831813	751.0
1353.366236	749.75
1353.900604	748.25
1354.434915	745.0
1354.969171	755.0
1355.503371	750.0
1356.037515	747.5
1356.571604	750.5
1357.105636	751.25
1357.639613	749.75
1358.173535	758.25
1358.7074	752.0
1359.24121	749.25
1359.774964	750.0
1360.308662	750.0
1360.842304	750.5
1361.375891	756.0
1361.909422	749.5
1362.442897	750.25
1362.976317	749.5
1363.50968	749.5
1364.042989	754.0
1364.576241	749.5
1365.109438	750.0
1365.642579	756.5
1366.175664	749.25
1366.708693	748.5
1367.241667	749.75
1367.774585	750.75
1368.307448	753.0
1368.840255	746.75
1369.373006	742.0
1369.905701	756.75
1370.438341	750.75
1370.970925	755.5
1371.503454	748.0
1372.035926	745.75
1372.568344	750.0
1373.100705	749.0
1373.633011	741.75
1374.165261	752.25
1374.697456	743.5
1375.229595	749.75
1375.761678	750.75
1376.293705	750.0
1376.825677	747.0
1377.357594	746.25
1377.889455	749.75
1378.42126	751.5
1378.953009	748.25
1379.484703	747.0
1380.016342	747.0
1380.547924	743.75
1381.079452	750.0
1381.610923	741.25
1382.142339	751.25
1382.673699	750.25
1383.205004	748.25
1383.736253	744.5
1384.267447	747.5
1384.798585	748.0
1385.329668	749.25
1385.860695	753.0
1386.391666	753.25
1386.922582	751.25
1387.453442	754.5
1387.984247	762.75
1388.514996	802.75
1389.04569	1076.0
1389.576328	1206.5
1390.10691	844.5
1390.637437	772.5
1391.167909	748.75
1391.698325	745.25
1392.228685	753.75
1392.75899	747.0
1393.28924	742.75
1393.819434	752.25
1394.349572	750.75
1394.879655	751.75
1395.409683	746.75
1395.939655	740.5
1396.469571	746.75
1396.999432	741.25
1397.529237	746.25
1398.058987	742.0
1398.588682	747.75
1399.118321	746.0
1399.647905	745.75
1400.177433	746.5
1400.706906	748.75
1401.236323	740.0
1401.765685	751.0
1402.294991	748.75
1402.824242	745.25
1403.353437	741.75
1403.882577	750.75
1404.411662	748.5
1404.940691	745.75
1405.469665	743.5
1405.998583	742.25
1406.527446	737.5
1407.056253	747.0
1407.585005	741.25
1408.113702	741.25
1408.642343	748.25
1409.170929	750.0
1409.69946	755.0
1410.227935	778.0
1410.756354	806.0
1411.284719	771.75
1411.813028	750.5
1412.341281	748.5
1412.869479	750.25
1413.397622	741.75
1413.92571	742.0
1414.453742	746.25
1414.981718	743.0
1415.50964	754.75
1416.037506	740.5
1416.565316	739.0
1417.093072	738.0
1417.620772	738.5
1418.148416	738.25
1418.676005	747.75
1419.203539	740.75
1419.731018	744.5
1420.258441	740.75
1420.785809	738.25
1421.313122	740.5
1421.840379	741.25
1422.367582	742.5
1422.894728	737.75
1423.42182	744.75
1423.948856	745.25
1424.475837	739.75
1425.002762	744.25
1425.529633	741.0
1426.056448	735.5
1426.583207	746.5
1427.109912	745.25
1427.636561	741.25
1428.163155	743.25
1428.689694	735.25
1429.216177	747.75
1429.742605	740.25
1430.268978	742.5
1430.795296	737.5
1431.321558	735.25
1431.847765	743.25
1432.373917	737.5
1432.900014	739.5
1433.426056	737.0
1433.952042	738.75
1434.477973	733.5
1435.003849	740.75
1435.529669	742.0
1436.055435	732.0
1436.581145	739.0
1437.1068	736.5
1437.632399	736.25
1438.157944	746.0
1438.683433	735.25
1439.208868	738.5
1439.734247	743.5
1440.25957	742.0
1440.784839	740.25
1441.310053	737.5
1441.835211	739.0
1442.360314	737.5
1442.885362	738.0
1443.410355	733.25
1443.935292	733.0
1444.460175	736.25
1444.985002	739.5
1445.509774	737.75
1446.034491	735.0
1446.559153	738.25
1447.08376	732.5
1447.608312	736.75
1448.132808	733.75
1448.65725	737.0
1449.181636	730.75
1449.705967	734.25
1450.230243	738.0
1450.754464	731.5
1451.27863	730.75
1451.802741	735.25
1452.326797	730.0
1452.850797	737.5
1453.374743	734.0
1453.898633	736.5
1454.422468	737.0
1454.946249	733.75
1455.469974	730.25
1455.993644	730.0
1456.517259	730.75
1457.040819	729.5
1457.564324	728.75
1458.087773	734.0
1458.611168	727.5
1459.134508	728.75
1459.657793	734.25
1460.181022	731.5
1460.704197	727.75
1461.227316	734.0
1461.750381	730.75
1462.27339	731.25
1462.796345	735.0
1463.319244	734.0
1463.842089	733.0
1464.364878	734.0
1464.887613	737.75
1465.410292	737.5
1465.932916	734.5
1466.455486	725.75
1466.978	732.25
1467.50046	727.25
1468.022864	726.25
1468.545214	732.75
1469.067508	730.5
1469.589748	729.75
1470.111932	734.75
1470.634062	732.25
1471.156136	731.0
1471.678156	730.5
1472.20012	728.25
1472.72203	727.5
1473.243885	731.5
1473.765685	727.5
1474.28743	729.5
1474.80912	729.5
1475.330755	729.0
1475.852335	731.75
1476.37386	727.5
1476.89533	729.25
1477.416745	729.0
1477.938106	731.25
1478.459411	731.5
1478.980662	731.25
1479.501857	728.0
1480.022998	728.5
1480.544084	729.5
1481.065115	728.0
1481.586091	728.0
1482.107012	729.75
1482.627878	726.0
1483.14869	728.5
1483.669446	726.75
1484.190148	730.0
1485.751923	728.5
1486.272406	725.75
1486.792833	725.75
1487.313205	728.0
1487.833523	732.75
1488.353786	721.5
1488.873994	724.5
1489.394147	732.25
1489.914245	725.25
1490.434288	728.25
1490.954277	725.75
1491.474211	723.75
1491.99409	726.0
1492.513914	718.25
1493.033683	725.75
1493.553398	726.75
1494.073057	725.5
1494.592662	730.75
1495.112212	727.25
1495.631708	724.25
1496.151148	724.25
1496.670534	721.75
1497.189865	728.5
1497.709141	723.5
1498.228362	726.5
1498.747529	726.5
1499.266641	727.25
1499.785698	731.25
1500.3047	726.25
1500.823648	726.0
1501.34254	729.25
1501.861379	718.75
1502.380162	719.25
1502.89889	726.75
1503.417564	723.75
1503.936183	727.0
1504.454748	725.25
1504.973257	730.0
1505.491712	725.5
1506.010112	722.25
1506.528458	724.25
1507.046748	723.25
1507.564984	721.5
1508.083166	726.0
1508.601292	722.0
1509.119364	721.5
1509.637381	717.0
1510.155344	724.0
1510.673252	735.25
1511.191105	729.0
1511.708903	728.25
1512.226647	726.5
1512.744336	724.0
1513.261971	729.5
1513.77955	723.75
1514.297076	722.0
1514.814546	726.5
1515.331962	722.75
1515.849323	725.0
1516.366629	722.75
1516.883881	720.5
1517.401078	729.0
1517.918221	729.25
1518.435309	722.0
1518.952342	719.25
1519.469321	722.75
1519.986245	721.25
1520.503114	724.0
1521.019929	725.75
1521.536689	724.75
1522.053395	724.5
1522.570046	721.75
1523.086642	725.0
1523.603184	724.25
1524.119671	722.25
1524.636103	724.0
1525.152481	722.0
1525.668805	725.5
1526.185073	725.75
1526.701288	724.0
1527.217447	727.75
1527.733552	725.0
1528.249603	721.25
1528.765599	725.0
1529.28154	722.0
1529.797427	721.0
1530.313259	723.25
1530.829037	723.0
1531.34476	725.0
1531.860429	722.5
1532.376043	728.5
1532.891602	721.75
1533.407107	726.25
1533.922558	726.5
1534.437954	725.25
1534.953295	722.75
1535.468582	725.0
1535.983815	722.5
1536.498993	724.0
1537.014116	722.75
1537.529185	716.75
1538.044199	722.75
1538.559159	726.25
1539.074064	724.5
1539.588915	723.5
1540.103712	721.0
1540.618454	721.5
1541.133141	723.25
1541.647774	721.0
1542.162353	724.25
1542.676877	722.75
1543.191346	728.0
1543.705761	726.5
1544.220122	724.0
1544.734428	718.25
1545.24868	721.5
1545.762877	721.25
1546.27702	721.75
1546.791109	727.5
1547.305143	721.0
1547.819122	724.25
1548.333047	727.25
1548.846918	721.0
1549.360734	727.0
1549.874496	726.75
1550.388204	723.5
1550.901857	722.25
1551.415455	724.25
1551.929	726.25
1552.442489	722.75
1552.955925	722.25
1553.469306	726.75
1553.982632	721.25
1554.495905	725.75
1555.009123	722.25
1555.522286	727.0
1556.035395	721.0
1556.54845	719.5
1557.06145	718.75
1557.574396	719.5
1558.087288	722.0
1559.625637	887.75
1560.138311	726.75
1560.650931	718.0
1561.163497	725.5
1561.676008	723.0
1562.188465	719.5
1562.700867	723.25
1563.213216	722.0
1563.725509	727.75
1564.237749	724.25
1564.749934	723.25
1565.262065	721.5
1565.774142	725.75
1566.286164	721.0
1566.798132	717.0
1567.310046	726.75
1567.821906	718.5
1568.333711	720.5
1568.845462	724.75
1569.357158	723.0
1569.868801	723.0
1570.380389	727.25
1570.891922	724.5
1571.403402	722.5
1571.914827	722.25
1572.426198	729.25
1572.937515	723.0
1573.448777	725.0
1573.959985	719.5
1574.471139	724.75
1574.982239	717.5
1575.493285	718.0
1576.004276	724.75
1576.515213	718.25
1577.026096	723.25
1577.536924	719.75
1578.047698	723.5
1578.558419	720.5
1579.069084	716.75
1579.579696	721.75
1580.090254	722.5
1580.600757	720.5
1581.111206	722.5
1581.621601	723.0
1582.131941	720.75
1582.642228	719.5
1583.15246	725.5
1583.662638	719.5
1584.172762	719.25
1584.682832	721.0
1585.192847	723.5
1585.702809	717.75
1586.212716	724.0
1586.722569	721.25
1587.232368	723.25
1587.742113	719.0
1588.251803	721.5
1588.76144	723.5
1589.271022	720.25
1589.78055	716.75
1590.290024	720.75
1590.799444	722.0
1591.30881	721.0
1591.818121	714.0
1592.327379	722.5
