1042.414189	753.75
1042.980685	754.25
1043.547124	742.5
1044.113505	742.0
1044.679828	741.0
1045.246093	748.5
1045.8123	744.0
1046.378449	744.5
1046.94454	739.0
1047.510573	747.75
1048.076548	737.0
1048.642465	736.25
1049.208325	725.75
1049.774126	730.5
1050.339869	735.5
1050.905555	731.25
1051.471183	734.75
1052.036752	738.0
1052.602264	734.5
1053.167718	726.75
1053.733114	729.25
1054.298452	728.25
1054.863733	734.5
1055.428955	728.25
1055.994119	731.75
1056.559226	726.25
1057.124275	726.0
1057.689266	730.5
1058.254199	728.75
1058.819074	727.5
1059.383891	726.25
1059.94865	724.75
1060.513352	724.25
1061.077996	723.25
1061.642582	726.5
1062.20711	725.0
1062.77158	725.75
1063.335992	726.25
1063.900347	722.0
1064.464643	721.0
1065.028882	722.75
1065.593063	728.75
1066.157187	726.0
1066.721252	722.25
1067.28526	718.0
1067.84921	722.25
1068.413102	724.25
1068.976936	726.75
1069.540713	719.5
1070.104431	727.0
1070.668092	722.75
1071.231696	724.5
1071.795241	723.25
1072.358729	726.0
1072.922159	721.5
1073.485531	719.5
1074.048845	724.25
1074.612102	719.75
1075.175301	721.5
1075.738442	718.0
1076.301525	721.5
1076.864551	719.25
1077.427519	721.5
1077.990429	720.25
1078.553281	729.75
1079.116076	723.25
1079.678813	717.0
1080.241492	721.5
1080.804114	728.25
1081.366678	720.0
1081.929184	728.0
1082.491633	730.25
1083.054024	730.25
1083.616357	728.25
1084.178632	725.25
1084.74085	725.5
1085.30301	730.25
1085.865113	731.5
1086.427158	727.5
1086.989145	732.0
1087.551074	732.5
1088.112946	729.0
1088.67476	739.0
1089.236517	739.5
1089.798216	736.25
1090.359857	730.75
1090.92144	729.25
1091.482966	742.0
1092.044435	734.5
1092.605845	739.25
1093.167199	736.75
1093.728494	736.75
1094.289732	727.75
1094.850912	737.25
1095.412035	745.5
1095.9731	740.5
1096.534107	741.0
1097.095057	738.75
1097.65595	731.5
1098.216784	730.5
1098.777561	725.5
1099.338281	726.75
1099.898943	722.0
1100.459547	721.5
1101.020094	723.5
1101.580584	726.75
1102.141015	721.0
1102.701389	718.75
1103.261706	715.25
1103.821965	718.0
1104.382167	717.0
1104.942311	720.75
1105.502397	719.5
1106.062426	713.5
1106.622398	717.0
1107.182312	717.0
1107.742168	716.0
1108.301967	715.0
1108.861708	712.5
1109.421392	714.25
1109.981019	716.75
1110.540587	709.75
1111.100099	712.5
1111.659553	709.0
1112.218949	710.75
1112.778288	711.75
1113.33757	710.5
1113.896794	713.5
1114.45596	709.25
1115.015069	710.0
1115.574121	712.25
1116.133115	709.25
1116.692052	708.5
1117.250931	712.0
1117.809753	708.75
1118.368517	706.75
1118.927224	710.0
1119.485873	709.25
1120.044465	713.25
1120.603	707.0
1121.161477	709.75
1121.719897	711.5
1122.278259	710.5
1122.836564	709.0
1123.394812	707.25
1123.953002	704.25
1124.511135	714.0
1125.06921	707.5
1125.627228	709.25
1126.185189	706.25
1126.743092	711.5
1127.300938	707.25
1127.858726	705.75
1128.416457	705.5
1128.974131	707.5
1129.531748	702.5
1130.089307	705.25
1130.646808	714.0
1131.204252	706.0
1131.761639	705.75
1132.318969	706.5
1132.876241	707.75
1133.433456	708.25
1133.990614	709.75
1134.547714	703.5
1135.104757	704.25
1135.661743	710.75
1136.218671	705.75
1136.775542	703.0
1137.332356	706.75
1137.889112	704.25
1138.445811	708.75
1139.002453	710.0
1139.559037	701.0
1140.115565	703.25
1140.672035	705.5
1141.228447	703.5
1141.784803	706.25
1142.341101	706.0
1142.897342	705.5
1143.453525	703.75
1144.009651	710.5
1144.565721	701.5
1145.121732	699.0
1145.677687	700.5
1146.233584	702.25
1146.789424	705.0
1147.345207	705.75
1147.900933	703.5
1148.456601	705.25
1149.012212	701.0
1149.567766	707.0
1150.123263	702.5
1150.678702	704.0
1151.234085	701.25
1151.78941	702.25
1152.344678	702.5
1152.899888	708.75
1153.455042	704.0
1154.010138	704.5
1154.565177	706.5
1155.120159	708.75
1155.675084	705.5
1156.229951	705.75
1156.784762	702.5
1157.339515	703.25
1157.894211	701.5
1158.44885	704.5
1159.003432	703.25
1159.557956	701.25
1160.112424	702.75
1160.666834	702.25
1161.221187	702.0
1161.775483	701.5
1162.329722	702.75
1162.883904	705.75
1163.438029	702.25
1163.992096	707.0
1164.546107	704.75
1165.10006	705.75
1165.653956	703.25
1166.207795	703.25
1166.761577	704.25
1167.315302	706.75
1167.86897	699.0
1168.422581	705.5
1168.976134	708.25
1169.529631	705.5
1170.08307	705.25
1170.636453	702.25
1171.189778	702.75
1171.743046	699.5
1172.296257	702.75
1172.849412	701.0
1173.402509	702.75
1173.955549	701.25
1174.508532	705.25
1175.061458	703.75
1175.614327	696.5
1176.167138	700.25
1176.719893	705.25
1177.272591	702.0
1177.825232	698.25
1178.377816	700.5
1178.930342	700.75
1179.482812	700.75
1180.035225	697.75
1180.587581	700.25
1181.139879	702.0
1181.692121	704.25
1182.244306	702.25
1182.796434	702.5
1183.348504	704.0
1183.900518	700.5
1184.452475	701.0
1185.004375	702.25
1185.556218	701.25
1186.108004	702.5
1186.659733	700.75
1187.211405	705.0
1187.76302	699.5
1188.314578	704.0
1188.866079	702.25
1189.417523	699.75
1189.96891	698.25
1190.520241	699.0
1191.071514	696.75
1191.622731	703.75
1192.17389	701.0
1192.724993	699.25
1193.276039	716.0
1193.827027	704.25
1194.377959	699.25
1194.928834	701.75
1195.479653	702.0
1196.030414	700.5
1196.581118	701.25
1197.131766	701.5
1197.682356	699.0
1198.23289	698.75
1198.783367	701.25
1199.333786	700.5
1199.88415	705.75
1200.434456	699.75
1200.984705	697.5
1201.534898	699.75
1202.085033	703.0
1202.635112	701.75
1203.185134	701.5
1203.735099	699.25
1204.285007	704.5
1204.834859	697.5
1205.384653	694.5
1205.934391	697.0
1206.484072	700.0
1207.033696	703.25
1207.583263	702.0
1208.132774	701.25
1208.682228	700.75
1209.231624	700.5
1209.780965	701.0
1210.330248	703.5
1210.879474	696.75
1211.428644	703.75
1211.977757	698.5
1212.526813	703.75
1213.075813	701.0
1213.624755	698.0
1214.173641	699.75
1214.72247	702.25
1215.271242	699.75
1215.819958	703.0
1216.368617	696.0
1216.917219	696.25
1217.465764	699.0
1218.014253	695.75
1218.562685	700.75
1219.11106	697.5
1219.659378	701.5
1220.20764	698.0
1220.755845	699.5
1221.303993	700.75
1221.852085	698.75
1222.400119	699.0
1222.948097	695.75
1223.496019	698.75
1224.043883	700.0
1224.591691	698.5
1225.139443	697.25
1225.687137	698.5
1226.234775	700.25
1226.782357	698.0
1227.329881	699.75
1227.877349	699.0
1228.42476	702.5
1228.972115	703.25
1229.519413	700.75
1230.066654	697.0
1230.613839	699.75
1231.160967	696.25
1231.708038	699.0
1232.255053	697.25
1232.802011	698.0
1233.348912	697.75
1233.895757	696.0
1234.442545	696.5
1234.989277	698.25
1235.535951	696.0
1236.08257	698.25
1236.629131	698.75
1237.175636	699.75
1237.722085	696.25
1238.268477	698.25
1238.814812	701.75
1239.361091	695.25
1239.907313	700.75
1240.453478	696.5
1240.999587	697.5
1241.54564	698.0
1242.091636	702.5
1242.637575	698.25
1243.183457	698.0
1243.729284	697.75
1244.275053	702.25
1244.820766	700.5
1245.366423	697.25
1245.912022	699.0
1246.457566	700.75
1247.003053	699.25
1247.548483	697.5
1248.093857	698.5
1248.639174	696.5
1249.184435	695.75
1249.729639	696.0
1250.274787	696.25
1250.819878	701.25
1251.364912	699.5
1251.909891	696.5
1252.454812	698.75
1252.999677	697.5
1253.544486	695.5
1254.089238	698.25
1254.633934	699.5
1255.178573	701.75
1255.723156	696.5
1256.267682	698.75
1256.812152	697.25
1257.356565	695.5
1257.900922	699.25
1258.445223	692.0
1258.989467	696.75
1259.533654	696.25
1260.077785	712.75
1260.62186	700.5
1261.165878	700.0
1261.70984	700.5
1262.253745	695.25
1262.797594	698.75
1263.341386	701.5
1263.885123	699.0
1264.428802	699.75
1264.972425	697.0
1265.515992	701.5
1266.059503	700.25
1266.602957	703.75
1267.146354	701.5
1267.689696	701.25
1268.23298	698.75
1268.776209	701.75
1269.319381	699.5
1269.862497	695.0
1270.405556	695.75
1270.948559	698.5
1271.491506	698.5
1272.034396	697.25
1272.57723	699.5
1273.120007	690.75
1273.662728	696.75
1274.205393	694.25
1274.748002	696.25
1275.290554	700.5
1275.83305	701.25
1276.375489	695.25
1276.917872	697.5
1277.460199	701.5
1278.00247	698.0
1278.544684	698.5
1279.086842	695.75
1279.628943	698.0
1280.170989	695.5
1280.712978	698.25
1281.25491	697.25
1281.796787	698.0
1282.338607	697.5
1282.880371	694.5
1283.422078	695.75
1283.963729	695.0
1284.505324	699.5
1285.046863	698.0
1285.588345	710.5
1286.129772	755.75
1286.671142	782.5
1287.212455	715.75
1287.753713	699.25
1288.294914	696.0
1288.836059	700.5
1289.377147	695.25
1289.91818	693.75
1290.459156	699.25
1291.000076	702.0
1291.54094	702.25
1292.081747	699.25
1292.622499	697.75
1293.163194	699.5
1293.703833	696.0
1294.244415	697.75
1294.784942	694.25
1295.325412	698.75
1295.865826	700.75
1296.406184	698.75
1296.946486	699.0
1297.486731	696.25
1298.026921	696.75
1298.567054	696.75
1299.107131	696.25
1299.647152	700.5
1300.187116	696.25
1300.727025	700.25
1301.266877	695.25
1301.806673	699.5
1302.346413	697.75
1302.886097	697.0
1303.425725	698.0
1303.965297	696.75
1304.504812	696.5
1305.044272	701.75
1305.583675	696.75
1306.123022	698.25
1306.662313	696.25
1307.201548	699.25
1307.740727	699.75
1308.279849	697.25
1308.818916	696.0
1309.357926	701.0
1309.896881	699.25
1310.435779	692.5
1310.974621	698.75
1311.513407	697.75
1312.052137	693.5
1312.590811	699.25
1313.129429	700.0
1313.667991	693.25
1314.206497	692.0
1314.744946	695.5
1315.28334	700.0
1315.821678	696.25
1316.359959	693.0
1316.898184	692.0
1317.436354	692.5
1317.974467	695.0
1318.512525	698.25
1319.050526	696.0
1319.588471	697.0
1320.12636	694.5
1320.664194	694.5
1321.201971	694.75
1321.739692	689.75
1322.277357	697.0
1322.814967	696.5
1323.35252	695.5
1323.890017	702.5
1324.427458	691.5
1324.964843	696.5
1325.502173	692.25
1326.039446	694.25
1326.576663	694.5
1327.113824	696.75
1327.65093	697.75
1328.187979	694.75
1328.724972	694.75
1329.26191	691.25
1329.798791	696.0
1330.335617	696.75
1330.872386	691.0
1331.4091	693.0
1331.945758	695.0
1332.48236	695.5
1333.018905	696.25
1333.555395	695.75
1334.091829	694.75
1334.628207	697.0
1335.164529	693.5
1335.700796	699.25
1336.237006	695.25
1336.77316	694.5
1337.309259	698.75
1337.845301	699.25
1338.381288	696.25
1338.917219	695.75
1339.453094	700.25
1339.988913	693.5
1340.524676	699.0
1341.060383	696.5
1341.596034	689.0
1342.13163	695.0
1342.66717	692.25
1343.202653	697.5
1343.738081	696.0
1344.273453	693.75
1344.80877	699.25
1345.34403	693.0
1345.879235	701.0
1346.414383	700.5
1346.949476	699.0
1347.484513	696.75
1348.019494	698.75
1348.55442	693.25
1349.089289	700.5
1349.624103	698.25
1350.158861	694.25
1350.693563	694.0
1351.228209	695.5
1351.7628	698.75
1352.297334	697.0
1352.831813	694.0
1353.366236	696.0
1353.900604	693.0
1354.434915	697.5
1354.969171	698.5
1355.503371	694.5
1356.037515	696.25
1356.571604	701.25
1357.105636	693.5
1357.639613	697.5
1358.173535	693.5
1358.7074	694.0
1359.24121	695.25
1359.774964	693.75
1360.308662	693.25
1360.842304	699.25
1361.375891	693.0
1361.909422	697.0
1362.442897	694.75
1362.976317	698.25
1363.50968	697.0
1364.042989	694.25
1364.576241	699.25
1365.109438	695.25
1365.642579	697.75
1366.175664	698.75
1366.708693	701.0
1367.241667	693.25
1367.774585	695.25
1368.307448	693.75
1368.840255	693.0
1369.373006	693.75
1369.905701	696.25
1370.438341	697.5
1370.970925	698.75
1371.503454	696.25
1372.035926	692.5
1372.568344	694.5
1373.100705	701.25
1373.633011	693.5
1374.165261	694.25
1374.697456	701.0
1375.229595	694.5
1375.761678	692.5
1376.293705	698.75
1376.825677	696.5
1377.357594	695.5
1377.889455	699.0
1378.42126	694.0
1378.953009	698.75
1379.484703	700.75
1380.016342	696.0
1380.547924	693.5
1381.079452	697.75
1381.610923	697.5
1382.142339	699.0
1382.673699	699.0
1383.205004	695.0
1383.736253	695.25
1384.267447	696.75
1384.798585	696.0
1385.329668	699.5
1385.860695	698.25
1386.391666	695.75
1386.922582	699.0
1387.453442	693.25
1387.984247	695.75
1388.514996	704.25
1389.04569	761.75
1389.576328	836.75
1390.10691	732.5
1390.637437	696.5
1391.167909	696.5
1391.698325	699.75
1392.228685	697.75
1392.75899	696.5
1393.28924	695.25
1393.819434	698.25
1394.349572	695.75
1394.879655	695.75
1395.409683	692.75
1395.939655	696.75
1396.469571	696.25
1396.999432	694.5
1397.529237	696.25
1398.058987	693.75
1398.588682	696.75
1399.118321	695.5
1399.647905	695.75
1400.177433	698.25
1400.706906	695.25
1401.236323	698.25
1401.765685	695.25
1402.294991	698.0
1402.824242	698.5
1403.353437	693.5
1403.882577	696.25
1404.411662	698.25
1404.940691	698.5
1405.469665	697.25
1405.998583	691.75
1406.527446	700.0
1407.056253	694.5
1407.585005	696.75
1408.113702	693.0
1408.642343	694.5
1409.170929	697.0
1409.69946	697.0
1410.227935	696.75
1410.756354	709.75
1411.284719	703.75
1411.813028	700.5
1412.341281	693.75
1412.869479	695.0
1413.397622	691.5
1413.92571	693.5
1414.453742	697.75
1414.981718	694.25
1415.50964	705.25
1416.037506	696.0
1416.565316	696.25
1417.093072	695.25
1417.620772	695.25
1418.148416	695.25
1418.676005	700.5
1419.203539	694.0
1419.731018	694.75
1420.258441	695.25
1420.785809	694.5
1421.313122	695.5
1421.840379	698.75
1422.367582	691.75
1422.894728	698.0
1423.42182	695.25
1423.948856	698.0
1424.475837	696.25
1425.002762	695.5
1425.529633	693.25
1426.056448	695.0
1426.583207	698.0
1427.109912	700.0
1427.636561	697.0
1428.163155	692.75
1428.689694	695.5
1429.216177	697.5
1429.742605	697.5
1430.268978	695.0
1430.795296	690.75
1431.321558	699.5
1431.847765	694.0
1432.373917	695.75
1432.900014	693.25
1433.426056	694.0
1433.952042	693.25
1434.477973	695.5
1435.003849	695.0
1435.529669	696.0
1436.055435	696.0
1436.581145	694.75
1437.1068	697.0
1437.632399	695.5
1438.157944	695.0
1438.683433	695.5
1439.208868	692.0
1439.734247	694.75
1440.25957	694.5
1440.784839	694.5
1441.310053	697.0
1441.835211	694.5
1442.360314	696.0
1442.885362	695.25
1443.410355	693.75
1443.935292	699.0
1444.460175	696.5
1444.985002	697.25
1445.509774	698.25
1446.034491	696.75
1446.559153	695.5
1447.08376	691.0
1447.608312	695.25
1448.132808	694.25
1448.65725	696.5
1449.181636	700.75
1449.705967	695.25
1450.230243	694.25
1450.754464	698.0
1451.27863	696.5
1451.802741	698.75
1452.326797	696.0
1452.850797	692.0
1453.374743	696.75
1453.898633	694.75
1454.422468	691.0
1454.946249	695.0
1455.469974	696.5
1455.993644	696.25
1456.517259	692.0
1457.040819	692.5
1457.564324	695.5
1458.087773	693.5
1458.611168	694.0
1459.134508	696.5
1460.704197	929.5
1462.27339	904.0
1462.796345	900.0
1463.319244	699.25
1463.842089	693.0
1464.364878	695.75
1464.887613	697.0
1465.410292	694.25
1465.932916	694.25
1466.455486	697.5
1466.978	697.5
1467.50046	697.0
1468.022864	697.5
1468.545214	699.75
1469.067508	693.25
1469.589748	691.25
1470.111932	697.25
1470.634062	692.5
1471.156136	692.25
1471.678156	690.75
1472.20012	696.0
1472.72203	698.0
1473.243885	697.75
1473.765685	692.0
1474.28743	696.25
1474.80912	695.75
1475.330755	695.25
1475.852335	701.75
1476.37386	693.75
1476.89533	698.5
1477.416745	693.75
1477.938106	697.25
1478.459411	698.0
1478.980662	694.75
1479.501857	695.0
1480.022998	692.5
1480.544084	695.25
1481.065115	692.5
1481.586091	695.25
1482.107012	693.75
1482.627878	693.75
1483.14869	694.75
1483.669446	695.75
1484.190148	698.0
1484.710794	694.0
1485.231386	694.25
1485.751923	698.0
1486.272406	695.25
1486.792833	696.75
1487.313205	692.25
1487.833523	695.0
1488.353786	691.25
1488.873994	695.25
1489.394147	694.0
1489.914245	692.0
1490.434288	697.0
1490.954277	693.0
1491.474211	696.25
1491.99409	695.25
1492.513914	694.0
1493.033683	697.5
1493.553398	692.75
1494.073057	697.5
1494.592662	692.25
1495.112212	695.0
1495.631708	692.0
1496.151148	697.0
1496.670534	692.75
1497.189865	693.0
1497.709141	690.0
1498.228362	694.25
1498.747529	695.0
1499.266641	696.25
1499.785698	701.75
1500.3047	694.5
1500.823648	695.0
1501.34254	694.25
1501.861379	691.0
1502.380162	695.25
1502.89889	694.0
1503.417564	693.75
1503.936183	693.5
1504.454748	692.0
1504.973257	695.5
1505.491712	695.25
1506.010112	692.0
1506.528458	692.75
1507.046748	696.0
1507.564984	689.25
1508.083166	696.0
1508.601292	698.25
1509.119364	694.75
1509.637381	693.25
1510.155344	693.0
1510.673252	705.0
1511.191105	691.5
1511.708903	691.0
1512.226647	694.0
1512.744336	692.0
1513.261971	691.75
1513.77955	692.0
1514.297076	690.0
1514.814546	698.0
1515.331962	694.5
1515.849323	693.0
1516.366629	694.5
1516.883881	692.5
1517.401078	695.0
1517.918221	694.5
1518.435309	693.75
1518.952342	695.0
1519.469321	694.75
1519.986245	692.75
1520.503114	693.25
1521.019929	695.5
1521.536689	691.75
1522.053395	694.5
1522.570046	695.0
1523.086642	691.75
1523.603184	696.0
1524.119671	691.25
1524.636103	691.5
1525.152481	693.5
1525.668805	693.25
1526.185073	698.25
1526.701288	694.0
1527.217447	693.0
1527.733552	695.0
1528.249603	691.0
1528.765599	694.0
1529.28154	690.5
1529.797427	689.25
1530.313259	696.5
1530.829037	691.75
1531.34476	693.0
1531.860429	697.75
1532.376043	689.75
1532.891602	692.5
1533.407107	692.75
1533.922558	692.5
1534.437954	696.25
1534.953295	693.25
1535.468582	689.5
1535.983815	694.0
1536.498993	696.25
1537.014116	691.5
1537.529185	691.5
1538.044199	695.5
1538.559159	698.0
1539.074064	694.75
1539.588915	696.75
1540.103712	696.0
1540.618454	691.0
1541.133141	697.75
1541.647774	696.0
1542.162353	692.75
1542.676877	693.5
1543.191346	693.75
1543.705761	696.75
1544.220122	694.75
1544.734428	694.5
1545.24868	694.0
1545.762877	695.75
1546.27702	696.5
1546.791109	693.0
1547.305143	693.5
1547.819122	693.5
1548.333047	691.5
1548.846918	696.25
1549.360734	693.25
1549.874496	697.75
1550.388204	691.0
1550.901857	695.0
1551.415455	694.0
1551.929	692.5
1552.442489	695.75
1552.955925	687.0
1553.469306	694.0
1553.982632	698.0
1554.495905	700.25
1555.009123	689.0
1555.522286	694.25
1556.035395	692.5
1556.54845	696.0
1557.06145	696.25
1557.574396	693.75
1558.087288	694.25
1558.600125	694.0
1559.112908	693.0
1559.625637	696.0
1560.138311	693.5
1560.650931	693.75
1561.163497	696.0
1561.676008	691.5
1562.188465	694.5
1562.700867	695.25
1563.213216	696.75
1563.725509	693.25
1564.237749	696.75
1564.749934	692.0
1565.262065	693.75
1565.774142	694.0
1566.286164	696.5
1566.798132	695.5
1567.310046	695.0
1567.821906	693.0
1568.333711	696.75
1568.845462	693.25
1569.357158	690.75
1569.868801	696.75
1570.380389	691.5
1570.891922	694.75
1571.403402	694.75
1571.914827	695.75
1572.426198	691.5
1572.937515	692.0
1573.448777	696.0
1573.959985	694.25
1574.471139	691.5
1574.982239	691.5
1575.493285	693.5
1576.004276	690.75
1576.515213	696.25
1577.026096	689.75
1577.536924	699.5
1578.047698	696.5
1578.558419	694.25
1579.069084	696.5
1579.579696	694.75
1580.090254	698.0
1580.600757	696.25
1581.111206	691.75
1581.621601	694.5
1582.131941	695.75
1582.642228	696.25
1583.15246	694.75
1583.662638	698.75
1584.172762	690.0
1584.682832	694.0
1585.192847	691.5
1585.702809	694.75
1586.212716	692.25
1586.722569	690.5
1587.232368	693.0
1587.742113	696.5
1588.251803	693.25
1588.76144	694.5
1589.271022	695.0
1589.78055	691.0
1590.290024	699.0
1590.799444	694.25
1591.30881	697.0
1591.818121	691.75
1592.327379	690.75
