1042.414189	790.75
1042.980685	793.25
1043.547124	792.25
1044.113505	799.0
1044.679828	788.0
1045.246093	783.25
1045.8123	788.25
1046.378449	794.0
1046.94454	785.25
1047.510573	784.75
1048.076548	776.25
1048.642465	773.5
1049.208325	769.0
1049.774126	767.25
1050.339869	764.75
1050.905555	765.25
1051.471183	758.0
1052.036752	753.0
1052.602264	746.0
1053.167718	747.75
1053.733114	742.75
1054.298452	735.25
1054.863733	730.75
1055.428955	734.75
1055.994119	729.0
1056.559226	732.0
1057.124275	724.0
1057.689266	726.75
1058.254199	722.75
1058.819074	724.0
1059.383891	729.0
1059.94865	724.25
1060.513352	721.5
1061.077996	715.0
1061.642582	721.0
1062.20711	718.75
1062.77158	722.0
1063.335992	716.75
1063.900347	719.75
1064.464643	716.5
1065.028882	719.25
1065.593063	722.75
1066.157187	715.25
1066.721252	716.0
1067.28526	717.5
1067.84921	718.25
1068.413102	717.75
1068.976936	719.5
1069.540713	714.0
1070.104431	720.0
1070.668092	717.75
1071.231696	719.25
1071.795241	713.0
1072.358729	715.25
1072.922159	717.75
1073.485531	717.0
1074.048845	720.25
1074.612102	718.5
1075.175301	716.0
1075.738442	723.5
1076.301525	716.25
1076.864551	717.5
1077.427519	721.5
1077.990429	722.25
1078.553281	721.5
1079.116076	720.25
1079.678813	720.5
1080.241492	718.0
1080.804114	724.5
1081.366678	718.75
1081.929184	723.5
1082.491633	730.75
1083.054024	728.75
1083.616357	729.5
1084.178632	727.75
1084.74085	734.5
1085.30301	738.75
1085.865113	733.75
1086.427158	735.0
1086.989145	742.0
1087.551074	733.25
1088.112946	740.5
1088.67476	745.25
1089.236517	748.5
1089.798216	746.0
1090.359857	751.25
1090.92144	746.5
1091.482966	752.25
1092.044435	758.25
1092.605845	754.75
1093.167199	748.75
1093.728494	754.75
1094.289732	758.5
1094.850912	752.5
1095.412035	760.25
1095.9731	745.0
1096.534107	740.75
1097.095057	751.25
1097.65595	741.5
1098.216784	741.5
1098.777561	730.25
1099.338281	735.75
1099.898943	730.0
1100.459547	728.75
1101.020094	725.75
1101.580584	724.25
1102.141015	726.25
1102.701389	726.75
1103.261706	728.0
1103.821965	725.0
1104.382167	725.25
1104.942311	720.5
1105.502397	725.5
1106.062426	718.5
1106.622398	717.25
1107.182312	714.75
1107.742168	716.5
1108.301967	719.25
1108.861708	719.0
1109.421392	716.75
1109.981019	718.5
1110.540587	721.75
1111.100099	718.25
1111.659553	716.5
1112.218949	714.25
1112.778288	716.0
1113.33757	712.75
1113.896794	715.75
1114.45596	714.75
1115.015069	714.5
1115.574121	712.75
1116.133115	715.0
1116.692052	718.25
1117.250931	718.5
1117.809753	713.0
1118.368517	713.5
1118.927224	718.0
1119.485873	710.0
1120.044465	712.0
1120.603	711.75
1121.161477	711.5
1121.719897	712.75
1122.278259	707.25
1122.836564	713.0
1123.394812	713.0
1123.953002	710.0
1124.511135	713.75
1125.06921	717.75
1125.627228	709.25
1126.185189	713.0
1126.743092	706.25
1127.300938	713.5
1127.858726	710.0
1128.416457	711.5
1128.974131	708.75
1129.531748	712.25
1130.089307	712.5
1130.646808	710.75
1131.204252	718.0
1131.761639	708.25
1132.318969	713.75
1132.876241	716.75
1133.433456	710.0
1133.990614	718.5
1134.547714	711.75
1135.104757	715.25
1135.661743	716.0
1136.218671	710.25
1136.775542	714.75
1137.332356	707.25
1137.889112	713.75
1138.445811	716.25
1139.002453	711.75
1139.559037	709.0
1140.115565	714.5
1140.672035	714.0
1141.228447	714.0
1141.784803	712.0
1142.341101	710.0
1142.897342	713.0
1143.453525	713.0
1144.009651	710.75
1144.565721	712.0
1145.121732	710.75
1145.677687	711.0
1146.233584	709.75
1146.789424	712.25
1147.345207	715.5
1147.900933	710.5
1148.456601	706.75
1149.012212	710.5
1149.567766	708.0
1150.123263	706.0
1150.678702	706.5
1151.234085	705.75
1151.78941	709.0
1152.344678	707.5
1152.899888	701.5
1153.455042	704.0
1154.010138	709.0
1154.565177	705.0
1155.120159	711.75
1155.675084	704.0
1156.229951	707.5
1156.784762	708.5
1157.339515	705.25
1157.894211	706.75
1158.44885	705.25
1159.003432	706.5
1159.557956	706.5
1160.112424	704.25
1160.666834	711.25
1161.221187	709.0
1161.775483	710.25
1162.329722	717.75
1162.883904	711.75
1163.438029	719.75
1163.992096	711.75
1164.546107	715.75
1165.10006	715.0
1165.653956	720.75
1166.207795	718.5
1166.761577	719.75
1167.315302	720.25
1167.86897	718.25
1168.422581	714.75
1168.976134	720.5
1169.529631	716.25
1170.08307	713.75
1170.636453	708.0
1171.189778	718.0
1171.743046	712.5
1172.296257	714.25
1172.849412	704.5
1173.402509	709.75
1173.955549	710.5
1174.508532	706.0
1175.061458	703.75
1175.614327	702.25
1176.167138	702.5
1176.719893	707.0
1177.272591	698.25
1177.825232	707.75
1178.377816	702.25
1178.930342	703.0
1179.482812	701.75
1180.035225	698.5
1180.587581	701.0
1181.139879	702.25
1181.692121	702.0
1182.244306	707.0
1182.796434	702.5
1183.348504	700.0
1183.900518	701.75
1184.452475	702.75
1185.004375	699.75
1185.556218	705.0
1186.108004	698.5
1186.659733	700.5
1187.211405	700.25
1187.76302	704.0
1188.314578	701.75
1188.866079	703.0
1189.417523	701.25
1189.96891	700.0
1190.520241	699.0
1191.071514	697.0
1191.622731	700.5
1192.17389	702.0
1192.724993	700.25
1193.276039	723.75
1193.827027	702.5
1194.377959	699.75
1194.928834	701.75
1195.479653	698.5
1196.030414	700.75
1196.581118	704.25
1197.131766	700.5
1197.682356	704.75
1198.23289	700.5
1198.783367	700.5
1199.333786	697.75
1199.88415	703.0
1200.434456	696.75
1200.984705	702.0
1201.534898	698.5
1202.085033	699.0
1202.635112	699.25
1203.185134	701.25
1203.735099	700.5
1204.285007	698.5
1204.834859	700.25
1205.384653	700.25
1205.934391	701.75
1206.484072	701.25
1207.033696	702.5
1207.583263	704.0
1208.132774	699.25
1208.682228	700.25
1209.231624	702.25
1209.780965	697.5
1210.330248	695.75
1210.879474	698.5
1211.428644	701.5
1211.977757	700.5
1212.526813	698.25
1213.075813	699.75
1213.624755	699.25
1214.173641	699.25
1214.72247	698.75
1215.271242	700.0
1215.819958	702.75
1216.368617	697.25
1216.917219	699.5
1217.465764	698.25
1218.014253	699.75
1218.562685	699.0
1219.11106	697.75
1219.659378	702.75
1220.20764	699.25
1220.755845	698.25
1221.303993	701.25
1221.852085	698.25
1222.400119	700.0
1222.948097	698.75
1223.496019	701.75
1224.043883	695.25
1224.591691	699.0
1225.139443	702.5
1225.687137	700.75
1226.234775	695.75
1226.782357	703.25
1227.329881	702.75
1227.877349	702.75
1228.42476	698.75
1228.972115	701.0
1229.519413	701.5
1230.066654	701.5
1230.613839	701.25
1231.160967	705.75
1231.708038	703.0
1232.255053	701.0
1232.802011	700.75
1233.348912	702.0
1233.895757	700.0
1234.442545	701.25
1234.989277	702.75
1235.535951	699.25
1236.08257	704.0
1236.629131	703.5
1237.175636	702.0
1237.722085	700.75
1238.268477	701.5
1238.814812	702.0
1239.361091	703.0
1239.907313	704.25
1240.453478	705.25
1240.999587	702.5
1241.54564	707.75
1242.091636	705.25
1242.637575	705.75
1243.183457	702.25
1243.729284	708.75
1244.275053	706.0
1244.820766	709.25
1245.366423	708.0
1245.912022	709.75
1246.457566	707.25
1247.003053	710.25
1247.548483	704.75
1248.093857	707.5
1248.639174	708.75
1249.184435	709.25
1249.729639	707.0
1250.274787	706.25
1250.819878	711.25
1251.364912	709.75
1251.909891	710.0
1252.454812	705.0
1252.999677	707.5
1253.544486	707.25
1254.089238	708.75
1254.633934	706.75
1255.178573	712.0
1255.723156	712.75
1256.267682	715.0
1256.812152	710.5
1257.356565	711.0
1257.900922	712.25
1258.445223	714.5
1258.989467	710.0
1259.533654	719.0
1260.077785	728.25
1260.62186	718.0
1261.165878	712.25
1261.70984	713.5
1262.253745	711.0
1262.797594	715.75
1263.341386	714.5
1263.885123	717.5
1264.428802	712.0
1264.972425	723.0
1265.515992	730.0
1266.059503	728.75
1266.602957	722.75
1267.146354	724.0
1267.689696	718.75
1268.23298	723.75
1268.776209	722.0
1269.319381	722.75
1269.862497	721.0
1270.405556	724.0
1270.948559	724.0
1271.491506	725.25
1272.034396	721.0
1272.57723	726.0
1273.120007	720.5
1273.662728	723.25
1274.205393	727.75
1274.748002	731.75
1275.290554	730.0
1275.83305	729.5
1276.375489	723.75
1276.917872	730.0
1277.460199	727.0
1278.00247	729.0
1278.544684	727.75
1279.086842	731.25
1279.628943	729.25
1280.170989	729.25
1280.712978	724.25
1281.25491	723.75
1281.796787	731.25
1282.338607	735.0
1282.880371	730.75
1283.422078	735.0
1283.963729	738.5
1284.505324	736.5
1285.046863	755.75
1285.588345	843.25
1286.129772	958.5
1286.671142	837.5
1287.212455	753.0
1287.753713	739.0
1288.294914	740.0
1288.836059	740.25
1289.377147	729.0
1289.91818	734.25
1290.459156	730.5
1291.000076	735.75
1291.54094	728.75
1292.081747	736.75
1292.622499	733.5
1293.163194	733.25
1293.703833	734.5
1294.244415	737.25
1294.784942	735.75
1295.325412	733.5
1295.865826	734.5
1296.406184	732.25
1296.946486	734.0
1297.486731	738.0
1298.026921	732.25
1298.567054	735.25
1299.107131	734.75
1299.647152	735.0
1300.187116	735.0
1300.727025	728.75
1301.266877	728.75
1301.806673	732.75
1302.346413	733.25
1302.886097	739.25
1303.425725	736.0
1303.965297	733.5
1304.504812	729.0
1305.044272	735.25
1305.583675	734.25
1306.123022	731.5
1306.662313	733.0
1307.201548	724.75
1307.740727	728.75
1308.279849	720.25
1308.818916	724.5
1309.357926	724.0
1309.896881	718.75
1310.435779	720.5
1310.974621	720.5
1311.513407	711.5
1312.052137	714.5
1312.590811	718.25
1313.129429	714.0
1313.667991	714.0
1314.206497	716.25
1314.744946	709.25
1315.28334	710.75
1315.821678	705.75
1316.359959	710.0
1316.898184	705.75
1317.436354	709.5
1317.974467	704.0
1318.512525	705.75
1319.050526	708.0
1319.588471	705.0
1320.12636	701.5
1320.664194	700.0
1321.201971	705.0
1321.739692	706.0
1322.277357	707.75
1322.814967	705.25
1323.35252	706.75
1323.890017	705.25
1324.427458	702.0
1324.964843	703.0
1325.502173	706.25
1326.039446	709.0
1326.576663	703.5
1327.113824	704.0
1327.65093	699.0
1328.187979	703.75
1328.724972	703.25
1329.26191	702.75
1329.798791	697.75
1330.335617	701.25
1330.872386	699.0
1331.4091	697.5
1331.945758	700.75
1332.48236	700.25
1333.018905	704.75
1333.555395	694.75
1334.091829	699.25
1334.628207	703.0
1335.164529	706.25
1335.700796	701.5
1336.237006	699.75
1336.77316	702.5
1337.309259	706.0
1337.845301	701.25
1338.381288	697.75
1338.917219	700.25
1339.453094	701.25
1339.988913	701.75
1340.524676	698.75
1341.060383	701.0
1341.596034	700.0
1342.13163	695.0
1342.66717	699.25
1343.202653	704.25
1343.738081	703.25
1344.273453	704.0
1344.80877	700.25
1345.34403	696.5
1345.879235	698.25
1346.414383	696.0
1346.949476	699.25
1347.484513	697.75
1348.019494	698.75
1348.55442	699.5
1349.089289	696.5
1349.624103	706.0
1350.158861	701.0
1350.693563	701.75
1351.228209	705.0
1351.7628	703.0
1352.297334	698.75
1352.831813	701.75
1353.366236	703.5
1353.900604	698.5
1354.434915	697.5
1354.969171	702.0
1355.503371	697.0
1356.037515	697.5
1356.571604	705.0
1357.105636	700.0
1357.639613	697.25
1358.173535	701.0
1358.7074	700.5
1359.24121	699.0
1359.774964	699.5
1360.308662	701.25
1360.842304	695.75
1361.375891	700.5
1361.909422	703.5
1362.442897	699.0
1362.976317	703.0
1363.50968	700.5
1364.042989	703.25
1364.576241	704.75
1365.109438	704.0
1365.642579	699.0
1366.175664	704.25
1366.708693	702.0
1367.241667	707.0
1367.774585	701.5
1368.307448	710.25
1368.840255	704.0
1369.373006	710.5
1369.905701	704.0
1370.438341	703.75
1370.970925	710.0
1371.503454	708.0
1372.035926	706.5
1372.568344	704.25
1373.100705	703.75
1373.633011	705.75
1374.165261	705.75
1374.697456	704.5
1375.229595	702.75
1375.761678	704.5
1376.293705	701.0
1376.825677	702.5
1377.357594	703.25
1377.889455	698.75
1378.42126	699.75
1378.953009	706.75
1379.484703	701.5
1380.016342	701.75
1380.547924	699.75
1381.079452	702.25
1381.610923	700.75
1382.142339	702.0
1382.673699	696.75
1383.205004	703.25
1383.736253	707.5
1384.267447	703.0
1384.798585	700.5
1385.329668	705.75
1385.860695	706.75
1386.391666	706.25
1386.922582	707.5
1387.453442	708.75
1387.984247	720.25
1388.514996	788.25
1389.04569	1046.0
1389.576328	977.5
1390.10691	758.0
1390.637437	717.75
1391.167909	707.5
1391.698325	705.0
1392.228685	706.25
1392.75899	702.75
1393.28924	700.75
1393.819434	709.25
1394.349572	701.75
1394.879655	707.25
1395.409683	699.0
1395.939655	702.5
1396.469571	695.75
1396.999432	700.5
1397.529237	704.0
1398.058987	703.75
1398.588682	700.0
1399.118321	701.5
1399.647905	702.5
1400.177433	700.25
1400.706906	698.5
1401.236323	704.5
1401.765685	707.5
1402.294991	709.0
1402.824242	704.5
1403.353437	708.5
1403.882577	705.0
1404.411662	704.5
1404.940691	704.0
1405.469665	700.75
1405.998583	702.25
1406.527446	702.25
1407.056253	704.25
1407.585005	710.5
1408.113702	705.5
1408.642343	704.0
1409.170929	704.75
1409.69946	713.0
1410.227935	723.0
1410.756354	735.25
1411.284719	711.75
1411.813028	705.0
1412.341281	702.0
1412.869479	708.25
1413.397622	703.0
1413.92571	706.0
1414.453742	705.75
1414.981718	699.5
1415.50964	715.25
1416.037506	699.5
1416.565316	702.25
1417.093072	697.0
1417.620772	706.5
1418.148416	703.0
1418.676005	697.5
1419.203539	699.5
1419.731018	702.5
1420.258441	702.75
1420.785809	702.0
1421.313122	698.75
1421.840379	699.25
1422.367582	700.75
1422.894728	698.75
1423.42182	701.0
1423.948856	703.0
1424.475837	704.5
1425.002762	703.5
1425.529633	701.0
1426.056448	700.75
1426.583207	706.0
1427.109912	702.75
1427.636561	700.5
1428.163155	703.75
1428.689694	703.25
1429.216177	703.5
1429.742605	699.25
1430.268978	702.75
1430.795296	706.25
1431.321558	705.5
1431.847765	705.5
1432.373917	704.0
1432.900014	703.75
1433.426056	705.5
1433.952042	707.0
1434.477973	705.25
1435.003849	707.0
1435.529669	707.0
1436.055435	703.75
1436.581145	707.0
1437.1068	703.5
1437.632399	704.0
1438.157944	700.0
1438.683433	711.0
1439.208868	707.25
1439.734247	708.75
1440.25957	712.25
1440.784839	708.5
1441.310053	704.5
1441.835211	709.5
1442.360314	705.5
1442.885362	709.0
1443.410355	709.5
1443.935292	707.25
1444.460175	710.5
1444.985002	712.0
1445.509774	710.25
1446.034491	703.0
1446.559153	707.75
1447.08376	708.0
1447.608312	709.75
1448.132808	715.5
1448.65725	709.25
1449.181636	709.25
1449.705967	709.75
1450.230243	714.75
1450.754464	715.75
1451.27863	712.25
1451.802741	707.5
1452.326797	714.25
1452.850797	709.0
1453.374743	711.5
1453.898633	712.25
1454.422468	711.5
1454.946249	709.75
1455.469974	716.25
1455.993644	710.75
1456.517259	708.25
1457.040819	709.75
1457.564324	708.25
1458.087773	708.75
1458.611168	708.5
1459.134508	706.25
1459.657793	708.5
1460.181022	705.0
1460.704197	707.0
1461.227316	704.75
1461.750381	711.5
1462.27339	706.0
1462.796345	703.25
1463.319244	708.25
1463.842089	703.75
1464.364878	703.75
1464.887613	702.0
1465.410292	702.0
1465.932916	704.25
1466.455486	700.75
1466.978	701.5
1467.50046	703.5
1468.022864	702.0
1468.545214	704.0
1469.067508	701.75
1469.589748	701.25
1470.111932	704.0
1470.634062	705.0
1471.156136	699.5
1471.678156	700.25
1472.20012	701.75
1472.72203	700.5
1473.243885	703.25
1473.765685	704.0
1474.28743	703.0
1474.80912	705.25
1475.330755	701.5
1475.852335	700.75
1476.37386	703.0
1476.89533	696.75
1477.416745	702.0
1477.938106	701.0
1478.459411	703.25
1478.980662	703.5
1479.501857	703.0
1480.022998	702.5
1480.544084	703.0
1481.065115	701.75
1481.586091	705.0
1482.107012	699.25
1482.627878	703.25
1483.14869	702.75
1483.669446	699.0
1484.190148	708.5
1484.710794	703.5
1485.231386	706.75
1485.751923	711.0
1487.313205	733.75
1487.833523	706.75
1488.353786	708.75
1488.873994	712.5
1489.394147	710.5
1489.914245	711.5
1490.434288	713.0
1490.954277	711.0
1491.474211	707.0
1491.99409	704.5
1492.513914	707.75
1493.033683	709.0
1493.553398	706.75
1494.073057	711.5
1494.592662	706.25
1495.112212	707.0
1495.631708	710.0
1496.151148	704.5
1496.670534	701.5
1497.189865	704.25
1497.709141	704.0
1498.228362	701.25
1498.747529	703.5
1499.266641	701.0
1499.785698	711.25
1500.3047	702.25
1500.823648	702.75
1501.34254	705.25
1501.861379	702.25
1502.380162	699.75
1502.89889	701.0
1503.417564	698.5
1503.936183	705.5
1504.454748	697.5
1504.973257	702.0
1505.491712	704.25
1506.010112	704.5
1506.528458	706.0
1507.046748	698.25
1507.564984	702.25
1508.083166	700.25
1508.601292	703.25
1509.119364	703.0
1509.637381	699.0
1510.155344	701.5
1510.673252	710.0
1511.191105	702.75
1511.708903	702.25
1512.226647	704.75
1512.744336	699.75
1513.261971	699.5
1513.77955	696.5
1514.297076	697.25
1514.814546	699.0
1515.331962	698.5
1515.849323	700.5
1516.366629	699.75
1516.883881	703.0
1517.401078	700.75
1517.918221	700.0
1518.435309	697.25
1518.952342	700.5
1519.469321	700.75
1519.986245	696.25
1520.503114	697.75
1521.019929	700.25
1521.536689	703.75
1522.053395	696.75
1522.570046	699.25
1523.086642	701.5
1523.603184	700.0
1524.119671	702.25
1524.636103	698.75
1525.152481	700.5
1525.668805	699.0
1526.185073	700.0
1526.701288	704.25
1527.217447	705.75
1527.733552	700.5
1528.249603	701.0
1528.765599	701.25
1529.28154	697.5
1529.797427	699.75
1530.313259	702.5
1530.829037	703.25
1531.34476	700.25
1531.860429	699.5
1532.376043	701.75
1532.891602	700.5
1533.407107	701.0
1533.922558	704.0
1534.437954	701.75
1534.953295	705.25
1535.468582	701.75
1535.983815	700.25
1536.498993	704.5
1537.014116	697.75
1537.529185	698.75
1538.044199	698.25
1538.559159	699.5
1539.074064	700.25
1539.588915	700.25
1540.103712	700.75
1540.618454	702.0
1541.133141	699.25
1541.647774	700.0
1542.162353	700.5
1542.676877	698.25
1543.191346	700.5
1543.705761	699.75
1544.220122	696.5
1544.734428	701.0
1545.24868	702.5
1545.762877	705.5
1546.27702	696.5
1546.791109	698.75
1547.305143	704.0
1547.819122	697.0
1548.333047	702.0
1548.846918	699.25
1549.360734	697.0
1549.874496	704.0
1550.388204	703.5
1550.901857	702.0
1551.415455	701.0
1551.929	700.75
1552.442489	701.25
1552.955925	700.25
1553.469306	700.0
1553.982632	701.75
1554.495905	702.25
1555.009123	700.25
1555.522286	700.0
1556.035395	702.0
1556.54845	706.5
1557.06145	703.5
1557.574396	700.75
1558.087288	697.75
1558.600125	701.5
1559.112908	703.75
1559.625637	700.25
1560.138311	700.5
1560.650931	704.0
1561.163497	701.5
1561.676008	701.75
1562.188465	703.5
1562.700867	703.25
1563.213216	700.5
1563.725509	700.5
1564.237749	703.25
1564.749934	703.5
1565.262065	701.25
1565.774142	698.75
1566.286164	708.0
1566.798132	707.5
1567.310046	707.0
1567.821906	705.0
1568.333711	705.75
1568.845462	706.75
1569.357158	704.75
1569.868801	706.0
1570.380389	703.75
1570.891922	708.75
1571.403402	706.5
1571.914827	707.75
1572.426198	706.5
1572.937515	707.75
1573.448777	711.5
1573.959985	708.5
1574.471139	711.75
1574.982239	711.5
1575.493285	713.5
1576.004276	715.0
1576.515213	716.75
1577.026096	725.5
1577.536924	723.25
1578.047698	722.0
1578.558419	724.75
1579.069084	729.75
1579.579696	732.5
1580.090254	734.75
1580.600757	737.0
1581.111206	738.5
1581.621601	728.75
1582.131941	732.25
1582.642228	728.25
1583.15246	732.0
1583.662638	730.0
1584.172762	719.25
1584.682832	721.75
1585.192847	723.5
1585.702809	717.5
1586.212716	717.75
1586.722569	718.0
1587.232368	721.0
1587.742113	710.25
1588.251803	712.75
1588.76144	711.25
1589.271022	709.75
1589.78055	716.25
1590.290024	713.0
1590.799444	712.25
1591.30881	713.75
1591.818121	710.0
1592.327379	715.0
