1042.414189	751.25
1042.980685	746.5
1043.547124	749.25
1044.113505	754.0
1044.679828	750.5
1045.246093	754.25
1045.8123	748.75
1046.378449	744.25
1046.94454	745.0
1047.510573	741.75
1048.076548	740.0
1048.642465	745.75
1049.208325	734.0
1049.774126	733.25
1050.339869	737.25
1050.905555	727.75
1051.471183	730.5
1052.036752	720.0
1052.602264	721.0
1053.167718	723.0
1053.733114	722.75
1054.298452	722.5
1054.863733	717.5
1055.428955	715.0
1055.994119	711.25
1056.559226	714.0
1057.124275	714.75
1057.689266	713.0
1058.254199	706.5
1058.819074	712.75
1059.383891	707.75
1059.94865	713.5
1060.513352	711.0
1061.077996	706.25
1061.642582	711.0
1062.20711	706.75
1062.77158	706.5
1063.335992	711.0
1063.900347	706.5
1064.464643	708.25
1065.028882	703.5
1065.593063	708.0
1066.157187	709.75
1066.721252	710.75
1067.28526	709.0
1067.84921	705.5
1068.413102	709.25
1068.976936	704.25
1069.540713	708.25
1070.104431	720.5
1070.668092	705.75
1071.231696	709.5
1071.795241	709.75
1072.358729	710.0
1072.922159	711.75
1073.485531	708.25
1074.048845	712.75
1074.612102	715.5
1075.175301	712.0
1075.738442	709.75
1076.301525	714.5
1076.864551	719.25
1077.427519	722.25
1077.990429	717.25
1078.553281	719.0
1079.116076	726.25
1079.678813	719.25
1080.241492	726.25
1080.804114	729.25
1081.366678	725.25
1081.929184	735.0
1082.491633	737.25
1083.054024	738.75
1083.616357	741.0
1084.178632	741.0
1084.74085	750.5
1085.30301	754.0
1085.865113	754.25
1086.427158	757.75
1086.989145	768.5
1087.551074	773.5
1088.112946	775.25
1088.67476	781.25
1089.236517	795.5
1089.798216	792.0
1090.359857	801.5
1090.92144	790.0
1091.482966	812.0
1092.044435	814.25
1092.605845	816.75
1093.167199	816.75
1093.728494	822.0
1094.289732	805.5
1094.850912	806.75
1095.412035	813.5
1095.9731	795.75
1096.534107	791.0
1097.095057	792.0
1097.65595	774.75
1098.216784	773.5
1098.777561	763.75
1099.338281	767.5
1099.898943	755.75
1100.459547	755.75
1101.020094	750.0
1101.580584	744.25
1102.141015	734.25
1102.701389	736.75
1103.261706	734.0
1103.821965	726.75
1104.382167	724.75
1104.942311	726.25
1105.502397	724.0
1106.062426	720.75
1106.622398	713.0
1107.182312	717.0
1107.742168	714.5
1108.301967	712.25
1108.861708	712.75
1109.421392	702.75
1109.981019	708.5
1110.540587	704.0
1111.100099	706.75
1111.659553	705.5
1112.218949	705.5
1112.778288	703.0
1113.33757	710.25
1113.896794	704.0
1114.45596	705.0
1115.015069	704.25
1115.574121	701.25
1116.133115	699.75
1116.692052	700.75
1117.250931	702.5
1117.809753	700.25
1118.368517	699.25
1118.927224	698.5
1119.485873	703.0
1120.044465	702.75
1120.603	700.5
1121.161477	695.5
1121.719897	702.0
1122.278259	700.0
1122.836564	696.25
1123.394812	700.75
1123.953002	692.5
1124.511135	698.75
1125.06921	692.5
1125.627228	696.5
1126.185189	696.75
1126.743092	695.25
1127.300938	698.5
1127.858726	697.75
1128.416457	698.5
1128.974131	695.5
1129.531748	698.0
1130.089307	695.5
1130.646808	696.25
1131.204252	700.5
1131.761639	693.5
1132.318969	696.25
1132.876241	699.25
1133.433456	696.25
1133.990614	695.75
1134.547714	696.25
1135.104757	700.0
1135.661743	697.75
1136.218671	697.0
1136.775542	691.5
1137.332356	693.25
1137.889112	696.5
1138.445811	699.5
1139.002453	697.75
1139.559037	696.25
1140.115565	695.0
1140.672035	692.0
1141.228447	695.5
1141.784803	696.75
1142.341101	696.0
1142.897342	696.25
1143.453525	698.5
1144.009651	693.5
1144.565721	696.25
1145.121732	698.0
1145.677687	694.25
1146.233584	697.25
1146.789424	698.75
1147.345207	696.75
1147.900933	693.25
1148.456601	691.75
1149.012212	689.75
1149.567766	697.75
1150.123263	696.0
1150.678702	694.75
1151.234085	694.25
1151.78941	694.0
1152.344678	691.5
1152.899888	693.0
1153.455042	693.75
1154.010138	690.0
1154.565177	689.75
1155.120159	695.5
1155.675084	692.25
1156.229951	693.25
1156.784762	693.25
1157.339515	691.25
1157.894211	695.25
1158.44885	690.75
1159.003432	693.25
1159.557956	694.0
1160.112424	692.0
1160.666834	694.5
1161.221187	693.25
1161.775483	691.25
1162.329722	696.75
1162.883904	694.75
1163.438029	699.0
1163.992096	696.75
1164.546107	697.5
1165.10006	700.5
1165.653956	696.75
1166.207795	698.25
1166.761577	701.75
1167.315302	697.5
1167.86897	700.25
1168.422581	697.75
1168.976134	698.25
1169.529631	698.5
1170.08307	698.25
1170.636453	694.25
1171.189778	695.25
1171.743046	694.5
1172.296257	692.5
1172.849412	692.75
1173.402509	690.75
1173.955549	689.0
1174.508532	693.5
1175.061458	692.5
1175.614327	689.75
1176.167138	690.75
1176.719893	692.0
1177.272591	687.75
1177.825232	690.25
1178.377816	688.75
1178.930342	690.0
1179.482812	689.75
1180.035225	690.0
1180.587581	688.75
1181.139879	689.25
1181.692121	690.5
1182.244306	686.25
1182.796434	685.5
1183.348504	688.5
1183.900518	689.5
1184.452475	693.5
1185.004375	690.75
1185.556218	685.75
1186.108004	687.0
1186.659733	690.5
1187.211405	686.5
1187.76302	687.0
1188.314578	689.5
1188.866079	691.75
1189.417523	692.25
1189.96891	687.75
1190.520241	686.75
1191.071514	689.0
1191.622731	682.25
1192.17389	687.25
1192.724993	688.0
1193.276039	708.75
1193.827027	691.25
1194.377959	690.75
1194.928834	689.5
1195.479653	691.0
1196.030414	686.0
1196.581118	685.25
1197.131766	688.25
1197.682356	686.0
1198.23289	683.75
1198.783367	690.25
1199.333786	688.25
1199.88415	686.0
1200.434456	687.5
1200.984705	684.75
1201.534898	686.75
1202.085033	686.75
1202.635112	685.25
1203.185134	692.0
1203.735099	686.75
1204.285007	689.25
1204.834859	690.0
1205.384653	690.5
1205.934391	685.5
1206.484072	689.0
1207.033696	688.75
1207.583263	690.5
1208.132774	686.75
1208.682228	687.5
1209.231624	686.5
1209.780965	686.0
1210.330248	685.75
1210.879474	684.5
1211.428644	683.0
1211.977757	686.75
1212.526813	690.0
1213.075813	691.25
1213.624755	689.0
1214.173641	688.25
1214.72247	688.75
1215.271242	686.0
1215.819958	688.25
1216.368617	690.0
1216.917219	686.75
1217.465764	692.0
1218.014253	690.5
1218.562685	689.75
1219.11106	691.0
1219.659378	684.0
1220.20764	682.5
1220.755845	691.5
1221.303993	688.5
1221.852085	689.75
1222.400119	689.25
1222.948097	690.25
1223.496019	685.25
1224.043883	688.0
1224.591691	689.75
1225.139443	685.5
1225.687137	690.5
1226.234775	690.5
1226.782357	689.5
1227.329881	690.5
1227.877349	687.75
1228.42476	688.25
1228.972115	689.25
1229.519413	686.5
1230.066654	694.25
1230.613839	686.0
1231.160967	692.75
1231.708038	692.75
1232.255053	691.5
1232.802011	690.25
1233.348912	686.5
1233.895757	690.0
1234.442545	692.75
1234.989277	691.0
1235.535951	689.5
1236.08257	689.75
1236.629131	689.5
1237.175636	690.0
1237.722085	688.75
1238.268477	693.25
1238.814812	692.25
1239.361091	692.5
1239.907313	692.75
1240.453478	691.25
1240.999587	688.25
1241.54564	691.5
1242.091636	696.25
1242.637575	693.75
1243.183457	693.5
1243.729284	694.25
1244.275053	692.25
1244.820766	691.0
1245.366423	692.75
1245.912022	692.0
1246.457566	689.0
1247.003053	690.75
1247.548483	695.5
1248.093857	695.75
1248.639174	695.25
1249.184435	693.0
1249.729639	692.25
1250.274787	695.75
1250.819878	695.25
1251.364912	693.25
1251.909891	690.5
1252.454812	690.0
1252.999677	689.75
1253.544486	696.0
1254.089238	692.75
1254.633934	692.5
1255.178573	693.5
1255.723156	694.25
1256.267682	695.25
1256.812152	692.0
1257.356565	691.5
1257.900922	689.25
1258.445223	695.75
1258.989467	692.5
1259.533654	696.25
1260.077785	708.25
1260.62186	694.75
1261.165878	694.0
1261.70984	700.0
1262.253745	697.5
1262.797594	690.25
1263.341386	698.5
1263.885123	698.0
1264.428802	697.5
1264.972425	703.5
1265.515992	709.0
1266.059503	712.0
1266.602957	700.0
1267.146354	701.25
1267.689696	697.25
1268.23298	696.25
1268.776209	700.0
1269.319381	699.5
1269.862497	696.5
1270.405556	700.25
1270.948559	699.75
1271.491506	701.5
1272.034396	700.75
1272.57723	703.75
1273.120007	703.25
1273.662728	702.5
1274.205393	702.5
1274.748002	702.25
1275.290554	702.75
1275.83305	701.5
1276.375489	696.5
1276.917872	703.75
1277.460199	704.25
1278.00247	701.0
1278.544684	700.0
1279.086842	700.75
1279.628943	701.75
1280.170989	703.25
1280.712978	702.5
1281.25491	704.75
1281.796787	703.5
1282.338607	702.5
1282.880371	705.5
1283.422078	707.0
1283.963729	705.25
1284.505324	715.25
1285.046863	735.75
1285.588345	816.0
1286.129772	904.5
1286.671142	788.5
1287.212455	721.0
1287.753713	710.25
1288.294914	706.5
1288.836059	708.75
1289.377147	702.5
1289.91818	707.0
1290.459156	700.25
1291.000076	707.5
1291.54094	701.0
1292.081747	707.0
1292.622499	704.0
1293.163194	707.0
1293.703833	700.25
1294.244415	702.25
1294.784942	703.5
1295.325412	710.25
1295.865826	701.0
1296.406184	712.75
1296.946486	704.25
1297.486731	710.25
1298.026921	707.0
1298.567054	707.0
1299.107131	705.5
1299.647152	703.0
1300.187116	709.5
1300.727025	702.25
1301.266877	706.5
1301.806673	706.0
1302.346413	710.25
1302.886097	706.25
1303.425725	711.75
1303.965297	709.25
1304.504812	702.5
1305.044272	703.5
1305.583675	706.0
1306.123022	707.5
1306.662313	702.0
1307.201548	698.25
1307.740727	704.25
1308.279849	702.25
1308.818916	700.0
1309.357926	697.75
1309.896881	700.0
1310.435779	692.75
1310.974621	700.5
1311.513407	693.5
1312.052137	698.0
1312.590811	696.25
1313.129429	692.75
1313.667991	691.25
1314.206497	700.0
1314.744946	692.75
1315.28334	695.5
1315.821678	693.75
1316.359959	692.0
1316.898184	693.0
1317.436354	694.5
1317.974467	689.5
1318.512525	690.25
1319.050526	691.5
1319.588471	692.75
1320.12636	696.75
1320.664194	687.5
1321.201971	688.25
1321.739692	688.75
1322.277357	693.25
1322.814967	688.5
1323.35252	688.5
1323.890017	691.5
1324.427458	687.75
1324.964843	684.75
1325.502173	690.25
1326.039446	686.25
1326.576663	687.25
1327.113824	686.0
1327.65093	690.75
1328.187979	689.0
1328.724972	691.25
1329.26191	689.25
1329.798791	688.5
1330.335617	689.5
1330.872386	688.5
1331.4091	688.5
1331.945758	690.0
1332.48236	693.25
1333.018905	687.0
1333.555395	687.75
1334.091829	690.25
1334.628207	691.0
1335.164529	688.0
1335.700796	690.75
1336.237006	688.0
1336.77316	689.5
1337.309259	686.5
1337.845301	687.5
1338.381288	689.75
1338.917219	690.25
1339.453094	685.25
1339.988913	694.5
1340.524676	686.25
1341.060383	686.5
1341.596034	688.75
1342.13163	689.5
1342.66717	687.75
1343.202653	688.75
1343.738081	683.0
1344.273453	690.5
1344.80877	686.25
1345.34403	683.25
1345.879235	688.25
1346.414383	685.75
1346.949476	687.25
1347.484513	687.75
1348.019494	685.5
1348.55442	687.0
1349.089289	685.25
1349.624103	684.5
1350.158861	686.0
1350.693563	687.0
1351.228209	689.0
1351.7628	690.25
1352.297334	686.5
1352.831813	688.5
1353.366236	685.75
1353.900604	688.5
1354.434915	689.25
1354.969171	687.0
1355.503371	688.25
1356.037515	690.25
1356.571604	690.25
1357.105636	691.5
1357.639613	690.75
1358.173535	686.75
1359.774964	721.5
1360.308662	687.75
1360.842304	690.0
1361.375891	688.5
1361.909422	690.25
1362.442897	690.25
1362.976317	689.0
1363.50968	690.75
1364.042989	687.0
1364.576241	691.0
1365.109438	692.0
1365.642579	689.0
1366.175664	689.25
1366.708693	689.75
1367.241667	690.75
1367.774585	689.75
1368.307448	688.5
1368.840255	693.5
1369.373006	692.25
1369.905701	689.25
1370.438341	689.5
1370.970925	698.25
1371.503454	682.0
1372.035926	691.0
1372.568344	687.5
1373.100705	693.5
1373.633011	689.0
1374.165261	690.0
1374.697456	687.25
1375.229595	689.25
1375.761678	689.75
1376.293705	688.0
1376.825677	686.5
1377.357594	692.0
1377.889455	687.5
1378.42126	689.5
1378.953009	687.5
1379.484703	688.0
1380.016342	691.5
1380.547924	690.0
1381.079452	691.25
1381.610923	690.75
1382.142339	687.25
1382.673699	687.0
1383.205004	687.75
1383.736253	691.5
1384.267447	691.5
1384.798585	691.5
1385.329668	685.25
1385.860695	691.0
1386.391666	689.0
1386.922582	694.0
1387.453442	699.5
1387.984247	703.25
1388.514996	772.5
1389.04569	995.75
1389.576328	943.25
1390.10691	733.75
1390.637437	698.0
1391.167909	692.75
1391.698325	691.75
1392.228685	691.5
1392.75899	687.75
1393.28924	695.0
1393.819434	694.75
1394.349572	692.75
1394.879655	690.0
1395.409683	686.5
1395.939655	686.75
1396.469571	687.75
1396.999432	688.25
1397.529237	686.75
1398.058987	685.0
1398.588682	686.75
1399.118321	687.5
1399.647905	686.25
1400.177433	689.75
1400.706906	688.75
1401.236323	684.5
1401.765685	690.25
1402.294991	690.25
1402.824242	689.75
1403.353437	692.25
1403.882577	690.5
1404.411662	685.25
1404.940691	687.5
1405.469665	690.0
1405.998583	688.75
1406.527446	691.75
1407.056253	689.75
1407.585005	691.75
1408.113702	694.0
1408.642343	691.25
1409.170929	695.25
1409.69946	694.5
1410.227935	710.75
1410.756354	714.75
1411.284719	701.0
1411.813028	694.25
1412.341281	692.75
1412.869479	690.25
1413.397622	687.25
1413.92571	688.25
1414.453742	691.5
1414.981718	689.0
1415.50964	700.0
1416.037506	689.75
1416.565316	685.75
1417.093072	689.0
1417.620772	685.0
1418.148416	688.5
1418.676005	689.0
1419.203539	689.5
1419.731018	685.75
1420.258441	686.25
1420.785809	690.25
1421.313122	689.25
1421.840379	687.25
1422.367582	690.0
1422.894728	688.75
1423.42182	691.25
1423.948856	689.75
1424.475837	688.5
1425.002762	685.5
1425.529633	687.75
1426.056448	691.0
1426.583207	689.25
1427.109912	691.75
1427.636561	687.75
1428.163155	691.0
1428.689694	688.0
1429.216177	688.5
1429.742605	688.25
1430.268978	690.0
1430.795296	690.5
1431.321558	692.75
1431.847765	689.5
1432.373917	687.0
1432.900014	691.0
1433.426056	693.25
1433.952042	689.25
1434.477973	692.25
1435.003849	693.5
1435.529669	690.75
1436.055435	692.25
1436.581145	690.5
1437.1068	688.5
1437.632399	692.75
1438.157944	690.0
1438.683433	692.5
1439.208868	690.5
1439.734247	689.75
1440.25957	694.25
1440.784839	695.75
1441.310053	693.5
1441.835211	691.5
1442.360314	691.75
1442.885362	689.0
1443.410355	698.75
1443.935292	693.25
1444.460175	694.75
1444.985002	693.0
1445.509774	691.0
1446.034491	694.5
1446.559153	690.5
1447.08376	691.25
1447.608312	692.5
1448.132808	689.5
1448.65725	698.0
1449.181636	697.25
1449.705967	698.0
1450.230243	693.5
1450.754464	695.5
1451.27863	692.25
1451.802741	696.0
1452.326797	695.5
1452.850797	695.5
1453.374743	693.75
1453.898633	691.25
1454.422468	692.5
1454.946249	696.25
1455.469974	692.5
1455.993644	693.5
1456.517259	694.0
1457.040819	692.75
1457.564324	692.5
1458.087773	692.0
1458.611168	693.75
1459.134508	691.25
1459.657793	693.5
1460.181022	692.5
1460.704197	693.5
1461.227316	692.5
1461.750381	690.25
1462.27339	690.25
1462.796345	690.25
1463.319244	693.5
1463.842089	690.75
1464.364878	687.5
1464.887613	693.25
1465.410292	689.0
1465.932916	691.0
1466.455486	690.0
1466.978	692.5
1467.50046	691.75
1468.022864	691.25
1468.545214	687.75
1469.067508	688.5
1469.589748	689.0
1470.111932	692.0
1470.634062	690.0
1471.156136	693.25
1471.678156	692.0
1472.20012	687.5
1472.72203	685.75
1473.243885	688.75
1473.765685	690.75
1474.28743	688.25
1474.80912	688.75
1475.330755	689.5
1475.852335	691.0
1476.37386	692.0
1476.89533	686.75
1477.416745	685.0
1477.938106	689.0
1478.459411	689.75
1478.980662	687.25
1479.501857	684.0
1480.022998	686.75
1480.544084	689.5
1481.065115	688.25
1481.586091	688.5
1482.107012	692.25
1482.627878	690.25
1483.14869	687.5
1483.669446	693.0
1484.190148	689.25
1484.710794	689.0
1485.231386	692.25
1485.751923	686.25
1486.272406	689.0
1486.792833	688.5
1487.313205	690.75
1487.833523	690.75
1488.353786	691.5
1488.873994	691.5
1489.394147	694.25
1489.914245	692.5
1490.434288	692.5
1490.954277	691.0
1491.474211	686.75
1491.99409	691.0
1492.513914	690.75
1493.033683	695.5
1493.553398	691.25
1494.073057	690.0
1494.592662	690.25
1495.112212	693.0
1495.631708	690.0
1496.151148	688.75
1496.670534	690.25
1497.189865	690.25
1497.709141	691.0
1498.228362	688.75
1498.747529	692.0
1499.266641	687.25
1499.785698	697.75
1500.3047	691.25
1500.823648	689.0
1501.34254	692.5
1501.861379	690.25
1502.380162	686.0
1502.89889	686.0
1503.417564	688.25
1503.936183	686.75
1504.454748	690.75
1504.973257	687.25
1505.491712	686.0
1506.010112	688.25
1506.528458	685.5
1507.046748	684.25
1507.564984	688.25
1508.083166	689.25
1508.601292	687.75
1509.119364	685.25
1509.637381	686.0
1510.155344	691.75
1510.673252	695.75
1511.191105	693.0
1511.708903	692.75
1512.226647	688.25
1512.744336	690.5
1513.261971	690.5
1513.77955	690.5
1514.297076	686.5
1514.814546	687.5
1515.331962	688.5
1515.849323	686.25
1516.366629	685.0
1516.883881	688.75
1517.401078	685.0
1517.918221	687.5
1518.435309	686.5
1518.952342	686.25
1519.469321	688.75
1519.986245	687.25
1520.503114	684.5
1521.019929	686.25
1521.536689	687.25
1522.053395	687.25
1522.570046	686.0
1523.086642	688.5
1523.603184	686.0
1524.119671	686.75
1524.636103	685.25
1525.152481	689.0
1525.668805	692.0
1526.185073	691.25
1526.701288	684.0
1527.217447	686.25
1527.733552	690.25
1528.249603	687.0
1528.765599	688.0
1529.28154	689.0
1529.797427	687.5
1530.313259	685.5
1530.829037	686.75
1531.34476	693.0
1531.860429	687.75
1532.376043	691.25
1532.891602	686.75
1533.407107	688.5
1533.922558	687.0
1534.437954	685.75
1534.953295	689.25
1535.468582	688.0
1535.983815	686.0
1536.498993	685.75
1537.014116	685.25
1537.529185	688.25
1538.044199	687.5
1538.559159	686.25
1539.074064	688.25
1539.588915	688.5
1540.103712	689.25
1540.618454	685.75
1541.133141	687.0
1541.647774	682.5
1542.162353	686.25
1542.676877	688.0
1543.191346	686.0
1543.705761	683.25
1544.220122	687.5
1544.734428	688.5
1545.24868	685.75
1545.762877	688.75
1546.27702	687.0
1546.791109	687.5
1547.305143	688.25
1547.819122	689.5
1548.333047	689.75
1548.846918	685.5
1549.360734	684.5
1549.874496	687.25
1550.388204	686.5
1550.901857	686.75
1551.415455	688.75
1551.929	686.75
1552.442489	692.25
1552.955925	686.75
1553.469306	685.75
1553.982632	682.25
1554.495905	688.5
1555.009123	689.25
1555.522286	688.75
1556.035395	685.5
1556.54845	689.5
1557.06145	688.25
1557.574396	689.75
1558.087288	684.0
1558.600125	687.25
1559.112908	687.75
1559.625637	685.0
1560.138311	690.25
1560.650931	686.75
1561.163497	690.25
1561.676008	687.25
1562.188465	687.75
1562.700867	692.5
1563.213216	690.25
1563.725509	684.5
1564.237749	685.0
1564.749934	690.25
1565.262065	689.0
1565.774142	689.5
1566.286164	687.25
1566.798132	687.0
1567.310046	687.5
1567.821906	690.25
1568.333711	688.5
1568.845462	686.25
1569.357158	685.25
1569.868801	689.0
1570.380389	692.25
1570.891922	689.5
1571.403402	689.25
1571.914827	690.25
1572.426198	692.25
1572.937515	690.0
1573.448777	692.5
1573.959985	688.5
1574.471139	693.0
1574.982239	690.5
1575.493285	692.25
1576.004276	696.0
1576.515213	694.75
1577.026096	700.5
1577.536924	700.0
1578.047698	698.5
1578.558419	699.0
1579.069084	705.5
1579.579696	704.0
1580.090254	702.75
1580.600757	704.75
1581.111206	711.25
1581.621601	708.5
1582.131941	704.0
1582.642228	705.25
1583.15246	704.5
1583.662638	705.0
1584.172762	700.25
1584.682832	701.0
1585.192847	697.5
1585.702809	703.75
1586.212716	697.5
1586.722569	694.0
1587.232368	692.75
1587.742113	689.5
1588.251803	696.25
1588.76144	693.5
1589.271022	692.75
1589.78055	694.5
1590.290024	692.5
1590.799444	693.25
1591.30881	692.0
1591.818121	695.5
1592.327379	694.75
