1042.414189	868.0
1042.980685	875.5
1043.547124	866.25
1044.113505	875.0
1044.679828	859.75
1045.246093	862.0
1045.8123	860.0
1046.378449	855.75
1046.94454	863.25
1047.510573	857.75
1048.076548	846.5
1048.642465	846.75
1049.208325	840.25
1049.774126	851.25
1050.339869	830.75
1050.905555	830.0
1051.471183	824.0
1052.036752	820.75
1052.602264	818.0
1053.167718	813.25
1053.733114	812.0
1054.298452	807.5
1054.863733	801.0
1055.428955	804.75
1055.994119	796.75
1056.559226	786.0
1057.124275	780.5
1057.689266	786.75
1058.254199	786.25
1058.819074	792.0
1059.383891	787.0
1059.94865	788.0
1060.513352	778.0
1061.077996	781.75
1061.642582	775.5
1062.20711	781.0
1062.77158	772.5
1063.335992	782.25
1063.900347	776.25
1064.464643	778.0
1065.028882	779.0
1065.593063	781.25
1066.157187	774.75
1066.721252	778.5
1067.28526	781.0
1067.84921	785.75
1068.413102	777.25
1068.976936	774.25
1069.540713	777.0
1070.104431	787.0
1070.668092	778.0
1071.231696	780.25
1071.795241	769.75
1072.358729	777.5
1072.922159	776.75
1073.485531	779.25
1074.048845	777.5
1074.612102	774.25
1075.175301	779.0
1075.738442	773.75
1076.301525	780.25
1076.864551	773.25
1077.427519	776.0
1077.990429	775.0
1078.553281	773.5
1079.116076	774.0
1079.678813	776.5
1080.241492	777.5
1080.804114	769.5
1081.366678	773.25
1081.929184	775.75
1082.491633	772.75
1083.054024	771.75
1083.616357	779.5
1084.178632	774.0
1084.74085	772.0
1085.30301	782.0
1085.865113	776.75
1086.427158	775.0
1086.989145	777.75
1087.551074	774.0
1088.112946	771.0
1088.67476	773.25
1089.236517	781.75
1089.798216	774.0
1090.359857	772.75
1090.92144	776.0
1091.482966	777.5
1092.044435	774.25
1092.605845	773.25
1093.167199	779.0
1093.728494	776.0
1094.289732	777.25
1094.850912	774.75
1095.412035	789.75
1095.9731	777.75
1096.534107	777.0
1097.095057	782.5
1097.65595	765.25
1098.216784	777.5
1098.777561	776.25
1099.338281	773.25
1099.898943	779.5
1100.459547	777.25
1101.020094	779.25
1101.580584	777.75
1102.141015	772.25
1102.701389	776.25
1103.261706	782.0
1103.821965	779.0
1104.382167	773.5
1104.942311	774.25
1105.502397	780.5
1106.062426	776.0
1106.622398	768.75
1107.182312	781.0
1107.742168	776.75
1108.301967	782.75
1108.861708	775.75
1109.421392	777.5
1109.981019	783.25
1110.540587	784.0
1111.100099	778.75
1111.659553	785.25
1112.218949	784.5
1112.778288	779.25
1113.33757	786.0
1113.896794	782.5
1114.45596	786.25
1115.015069	781.5
1115.574121	774.75
1116.133115	784.25
1116.692052	782.0
1117.250931	782.5
1117.809753	785.25
1118.368517	784.25
1118.927224	781.25
1119.485873	778.5
1120.044465	780.25
1120.603	783.25
1121.161477	776.25
1121.719897	779.75
1122.278259	781.25
1122.836564	784.75
1123.394812	779.0
1123.953002	779.75
1124.511135	787.5
1125.06921	775.75
1125.627228	774.5
1126.185189	778.5
1126.743092	784.75
1127.300938	786.5
1127.858726	784.5
1128.416457	784.75
1128.974131	777.5
1129.531748	780.25
1130.089307	782.0
1130.646808	787.25
1131.204252	779.5
1131.761639	789.25
1132.318969	784.75
1132.876241	787.75
1133.433456	782.75
1133.990614	782.75
1134.547714	780.25
1135.104757	782.75
1135.661743	779.75
1136.218671	791.5
1136.775542	780.5
1137.332356	781.5
1137.889112	782.25
1138.445811	787.0
1139.002453	783.25
1139.559037	785.0
1140.115565	788.25
1140.672035	781.25
1141.228447	782.5
1141.784803	787.0
1142.341101	790.25
1142.897342	788.0
1143.453525	793.0
1144.009651	792.0
1144.565721	785.75
1145.121732	787.75
1145.677687	786.5
1146.233584	784.5
1146.789424	778.0
1147.345207	785.25
1147.900933	781.0
1148.456601	785.75
1149.012212	781.25
1149.567766	779.0
1150.123263	788.0
1150.678702	790.25
1151.234085	783.0
1151.78941	778.0
1152.344678	786.5
1152.899888	779.5
1153.455042	779.25
1154.010138	779.25
1154.565177	779.0
1155.120159	775.25
1155.675084	776.0
1156.229951	779.0
1156.784762	776.75
1157.339515	779.5
1157.894211	776.0
1158.44885	785.0
1159.003432	775.5
1159.557956	774.5
1160.112424	781.75
1160.666834	779.75
1161.221187	782.5
1161.775483	783.25
1162.329722	790.0
1162.883904	786.25
1163.438029	792.25
1163.992096	796.5
1164.546107	797.0
1165.10006	794.0
1165.653956	791.25
1166.207795	795.75
1166.761577	800.0
1167.315302	801.25
1167.86897	794.5
1168.422581	792.25
1168.976134	796.0
1169.529631	792.0
1170.08307	794.0
1170.636453	786.75
1171.189778	791.75
1171.743046	785.25
1172.296257	784.25
1172.849412	778.0
1173.402509	780.75
1173.955549	780.5
1174.508532	780.0
1175.061458	785.75
1175.614327	779.75
1176.167138	778.25
1176.719893	784.75
1177.272591	774.0
1177.825232	782.0
1178.377816	773.25
1178.930342	780.25
1179.482812	778.25
1180.035225	779.75
1180.587581	776.5
1181.139879	769.5
1181.692121	770.0
1182.244306	773.5
1182.796434	773.25
1183.348504	778.25
1183.900518	773.0
1184.452475	775.75
1185.004375	774.5
1185.556218	773.25
1186.108004	766.25
1186.659733	779.0
1187.211405	769.5
1187.76302	775.75
1188.314578	773.5
1188.866079	781.25
1189.417523	778.5
1189.96891	769.5
1190.520241	773.0
1191.071514	773.5
1191.622731	773.5
1192.17389	772.5
1192.724993	765.25
1193.276039	800.75
1193.827027	772.25
1194.377959	770.25
1194.928834	777.25
1195.479653	774.0
1196.030414	771.0
1196.581118	776.75
1197.131766	774.0
1197.682356	773.25
1198.23289	780.5
1198.783367	773.75
1199.333786	776.25
1199.88415	777.25
1200.434456	767.25
1200.984705	770.5
1201.534898	771.75
1202.085033	774.0
1202.635112	775.5
1203.185134	777.25
1203.735099	773.5
1204.285007	772.0
1204.834859	771.25
1205.384653	776.75
1205.934391	780.5
1206.484072	772.5
1207.033696	786.0
1207.583263	772.75
1208.132774	778.75
1208.682228	774.0
1209.231624	772.75
1209.780965	777.5
1210.330248	771.0
1210.879474	773.25
1211.428644	773.5
1211.977757	768.5
1212.526813	775.5
1213.075813	787.0
1213.624755	777.0
1214.173641	777.0
1214.72247	770.5
1215.271242	777.5
1215.819958	774.0
1216.368617	770.5
1216.917219	773.25
1217.465764	776.0
1218.014253	776.75
1218.562685	778.25
1219.11106	771.25
1219.659378	775.5
1220.20764	776.75
1220.755845	780.0
1221.303993	780.75
1221.852085	772.25
1222.400119	770.0
1222.948097	778.75
1223.496019	776.5
1224.043883	780.25
1224.591691	779.75
1225.139443	778.75
1225.687137	779.0
1226.234775	777.5
1226.782357	786.75
1227.329881	782.5
1227.877349	779.0
1228.42476	776.75
1228.972115	779.25
1229.519413	784.0
1230.066654	780.75
1230.613839	779.5
1231.160967	786.0
1231.708038	784.75
1232.255053	785.0
1232.802011	784.5
1233.348912	787.5
1233.895757	784.5
1234.442545	782.75
1234.989277	786.75
1235.535951	780.5
1236.08257	784.75
1236.629131	787.5
1237.175636	782.0
1237.722085	789.0
1238.268477	791.75
1238.814812	792.0
1239.361091	790.0
1239.907313	784.25
1240.453478	794.75
1240.999587	788.5
1241.54564	791.75
1242.091636	788.25
1242.637575	789.5
1243.183457	787.25
1243.729284	796.75
1244.275053	790.0
1244.820766	794.5
1245.366423	799.5
1245.912022	792.5
1246.457566	793.75
1247.003053	789.75
1247.548483	794.75
1248.093857	794.5
1248.639174	787.25
1249.184435	801.0
1249.729639	798.0
1250.274787	794.5
1250.819878	793.75
1251.364912	790.25
1251.909891	795.0
1252.454812	796.5
1252.999677	793.25
1253.544486	803.5
1254.089238	798.75
1254.633934	801.25
1255.178573	797.25
1255.723156	798.0
1256.267682	794.25
1256.812152	808.5
1257.356565	802.25
1257.900922	813.5
1258.445223	817.25
1258.989467	809.75
1259.533654	810.75
1260.077785	828.0
1260.62186	818.25
1261.165878	826.0
1261.70984	833.75
1262.253745	837.25
1262.797594	850.75
1263.341386	860.75
1263.885123	874.25
1264.428802	874.25
1264.972425	858.75
1265.515992	848.5
1266.059503	838.5
1266.602957	825.0
1267.146354	827.75
1267.689696	819.5
1268.23298	823.0
1268.776209	821.75
1269.319381	817.5
1269.862497	825.75
1270.405556	819.75
1270.948559	831.25
1271.491506	821.25
1272.034396	831.25
1272.57723	824.75
1273.120007	824.25
1273.662728	824.75
1274.205393	828.75
1274.748002	839.5
1275.290554	829.75
1275.83305	828.75
1276.375489	829.0
1276.917872	837.0
1277.460199	832.25
1278.00247	838.5
1278.544684	852.0
1279.086842	851.25
1279.628943	852.75
1280.170989	867.25
1280.712978	882.0
1281.25491	926.75
1281.796787	1007.0
1282.338607	1172.5
1282.880371	1446.25
1283.422078	1809.25
1283.963729	2040.5
1284.505324	1872.5
1285.046863	1463.25
1285.588345	1140.75
1286.129772	983.25
1286.671142	919.25
1287.212455	895.0
1287.753713	868.75
1288.294914	872.25
1288.836059	850.5
1289.377147	855.25
1289.91818	842.5
1290.459156	843.25
1291.000076	853.5
1291.54094	838.25
1292.081747	836.5
1292.622499	843.25
1293.163194	837.5
1293.703833	833.75
1294.244415	832.75
1294.784942	834.25
1295.325412	830.5
1295.865826	829.75
1296.406184	829.25
1296.946486	838.75
1297.486731	832.25
1298.026921	833.75
1298.567054	823.75
1299.107131	830.5
1299.647152	830.75
1300.187116	837.75
1300.727025	836.75
1301.266877	834.5
1301.806673	831.75
1302.346413	832.0
1302.886097	829.5
1303.425725	839.75
1303.965297	833.75
1304.504812	823.25
1305.044272	824.75
1305.583675	836.0
1306.123022	822.5
1306.662313	827.75
1307.201548	819.0
1307.740727	818.5
1308.279849	825.5
1308.818916	825.0
1309.357926	819.5
1309.896881	813.5
1310.435779	808.25
1310.974621	816.25
1311.513407	812.0
1312.052137	808.75
1312.590811	816.5
1313.129429	803.0
1313.667991	805.25
1314.206497	802.5
1314.744946	800.25
1315.28334	799.25
1315.821678	799.5
1316.359959	794.75
1316.898184	803.25
1317.436354	802.75
1317.974467	798.0
1318.512525	791.75
1319.050526	805.5
1319.588471	794.75
1320.12636	791.75
1320.664194	786.25
1321.201971	794.0
1321.739692	790.25
1322.277357	787.75
1322.814967	788.75
1323.35252	785.25
1323.890017	796.0
1324.427458	786.25
1324.964843	784.75
1325.502173	788.25
1326.039446	788.0
1326.576663	787.5
1327.113824	791.5
1327.65093	782.5
1328.187979	798.0
1328.724972	792.75
1329.26191	786.5
1329.798791	794.0
1330.335617	786.75
1330.872386	793.5
1331.4091	788.0
1331.945758	781.75
1332.48236	785.75
1333.018905	790.5
1333.555395	790.5
1334.091829	785.25
1334.628207	789.25
1335.164529	793.25
1335.700796	788.0
1336.237006	793.75
1336.77316	786.0
1337.309259	791.0
1337.845301	786.5
1338.381288	786.5
1338.917219	794.0
1339.453094	793.5
1339.988913	796.5
1340.524676	783.25
1341.060383	788.25
1341.596034	798.5
1342.13163	791.5
1342.66717	786.5
1343.202653	789.25
1343.738081	794.5
1344.273453	788.75
1344.80877	783.25
1345.34403	785.0
1345.879235	787.0
1346.414383	783.5
1346.949476	790.25
1347.484513	793.75
1348.019494	791.5
1348.55442	790.75
1349.089289	788.25
1349.624103	787.0
1350.158861	789.75
1350.693563	796.5
1351.228209	788.75
1351.7628	795.0
1352.297334	793.75
1352.831813	788.75
1353.366236	786.0
1353.900604	797.25
1354.434915	788.75
1354.969171	797.25
1355.503371	789.25
1356.037515	788.0
1356.571604	791.5
1357.105636	790.75
1357.639613	790.5
1358.173535	793.25
1358.7074	791.75
1359.24121	796.25
1359.774964	793.75
1360.308662	785.0
1360.842304	797.5
1361.375891	795.75
1361.909422	792.75
1362.442897	792.5
1362.976317	798.5
1363.50968	790.25
1364.042989	794.25
1364.576241	796.25
1365.109438	795.75
1365.642579	801.75
1366.175664	800.75
1366.708693	801.75
1367.241667	804.0
1367.774585	800.75
1368.307448	800.5
1368.840255	800.75
1369.373006	820.25
1369.905701	844.25
1370.438341	837.0
1370.970925	814.0
1371.503454	805.25
1372.035926	807.75
1372.568344	797.5
1373.100705	805.0
1373.633011	804.75
1374.165261	806.5
1374.697456	805.25
1375.229595	811.75
1375.761678	807.5
1376.293705	811.25
1376.825677	813.5
1377.357594	811.75
1377.889455	804.0
1378.42126	814.0
1378.953009	815.5
1379.484703	812.0
1380.016342	811.5
1380.547924	813.75
1381.079452	818.5
1381.610923	827.25
1382.142339	837.5
1382.673699	827.75
1383.205004	835.5
1383.736253	852.25
1384.267447	864.25
1384.798585	898.5
1385.329668	936.0
1385.860695	1001.5
1386.391666	1192.75
1386.922582	1630.0
1387.453442	2578.75
1387.984247	3448.5
1388.514996	2830.0
1389.04569	1719.5
1389.576328	1178.75
1390.10691	981.0
1390.637437	916.0
1391.167909	876.25
1391.698325	865.25
1392.228685	844.5
1392.75899	833.75
1393.28924	829.25
1393.819434	827.75
1394.349572	821.5
1394.879655	820.0
1395.409683	807.25
1395.939655	816.25
1396.469571	813.5
1396.999432	810.5
1397.529237	811.5
1398.058987	812.0
1398.588682	816.5
1399.118321	811.0
1399.647905	813.5
1400.177433	815.75
1400.706906	810.5
1401.236323	811.75
1401.765685	813.25
1402.294991	804.75
1402.824242	806.25
1403.353437	807.75
1403.882577	815.25
1404.411662	811.25
1404.940691	818.5
1405.469665	822.75
1405.998583	820.5
1406.527446	819.5
1407.056253	835.75
1407.585005	857.5
1408.113702	873.75
1408.642343	890.25
1409.170929	928.0
1409.69946	923.0
1410.227935	915.0
1410.756354	871.0
1411.284719	845.25
1411.813028	829.5
1412.341281	810.5
1412.869479	812.0
1413.397622	806.5
1413.92571	798.75
1414.453742	796.0
1414.981718	795.5
1415.50964	816.5
1416.037506	799.0
1416.565316	791.5
1417.093072	797.5
1417.620772	801.5
1418.148416	795.75
1418.676005	793.0
1419.203539	792.5
1419.731018	793.5
1420.258441	787.0
1420.785809	793.5
1421.313122	800.75
1421.840379	794.0
1422.367582	784.25
1422.894728	793.25
1423.42182	794.25
1423.948856	795.25
1424.475837	800.25
1425.002762	799.75
1425.529633	788.0
1426.056448	785.75
1426.583207	787.75
1427.109912	791.5
1427.636561	791.0
1428.163155	792.0
1428.689694	787.5
1429.216177	790.0
1429.742605	787.75
1430.268978	800.75
1430.795296	789.0
1431.321558	789.0
1431.847765	789.75
1432.373917	789.25
1432.900014	786.25
1433.426056	789.5
1433.952042	794.0
1434.477973	793.5
1435.003849	784.25
1435.529669	791.75
1436.055435	788.75
1436.581145	794.25
1437.1068	788.25
1437.632399	787.75
1438.157944	794.5
1438.683433	798.0
1439.208868	790.25
1439.734247	788.5
1440.25957	796.75
1440.784839	796.25
1441.310053	797.5
1441.835211	796.0
1442.360314	788.25
1442.885362	796.25
1443.410355	789.25
1443.935292	792.0
1444.460175	786.75
1444.985002	795.5
1445.509774	798.0
1446.034491	790.25
1446.559153	786.0
1447.08376	793.75
1447.608312	796.0
1448.132808	793.25
1448.65725	794.75
1449.181636	793.0
1449.705967	797.75
1450.230243	795.5
1450.754464	795.5
1451.27863	797.25
1451.802741	796.25
1452.326797	803.0
1452.850797	801.25
1453.374743	796.5
1453.898633	794.0
1454.422468	798.25
1454.946249	790.5
1455.469974	793.0
1455.993644	794.5
1456.517259	793.75
1457.040819	789.25
1457.564324	791.5
1458.087773	792.25
1458.611168	784.5
1459.134508	795.25
1459.657793	791.0
1460.181022	788.5
1460.704197	785.75
1461.227316	796.25
1461.750381	791.0
1462.27339	788.0
1462.796345	784.75
1463.319244	789.0
1463.842089	788.25
1464.364878	791.25
1464.887613	783.5
1465.410292	791.0
1465.932916	784.0
1466.455486	775.0
1466.978	784.75
1467.50046	782.25
1468.022864	778.0
1468.545214	782.75
1469.067508	788.0
1469.589748	780.0
1470.111932	788.75
1470.634062	783.5
1471.156136	779.0
1471.678156	780.5
1472.20012	781.25
1472.72203	789.25
1473.243885	786.25
1473.765685	786.0
1474.28743	777.75
1474.80912	789.0
1475.330755	778.5
1475.852335	781.75
1476.37386	777.0
1476.89533	783.0
1477.416745	783.25
1477.938106	782.75
1478.459411	785.5
1478.980662	786.5
1479.501857	779.5
1480.022998	789.5
1480.544084	783.5
1481.065115	786.0
1481.586091	784.0
1482.107012	783.5
1482.627878	791.5
1483.14869	785.5
1483.669446	775.5
1484.190148	783.0
1484.710794	783.5
1485.231386	786.0
1485.751923	789.75
1486.272406	788.5
1486.792833	783.0
1487.313205	789.75
1487.833523	795.75
1488.353786	789.75
1488.873994	789.25
1489.394147	795.0
1489.914245	799.75
1490.434288	794.25
1490.954277	799.0
1491.474211	793.25
1491.99409	789.75
1492.513914	788.0
1493.033683	791.25
1493.553398	787.5
1494.073057	791.75
1494.592662	787.5
1495.112212	785.75
1495.631708	781.0
1496.151148	784.25
1496.670534	786.0
1497.189865	789.25
1497.709141	790.75
1498.228362	779.75
1498.747529	785.75
1499.266641	784.0
1499.785698	789.25
1500.3047	785.25
1500.823648	781.25
1501.34254	789.75
1501.861379	780.25
1502.380162	791.25
1502.89889	783.5
1503.417564	782.0
1503.936183	780.75
1504.454748	780.25
1504.973257	783.25
1505.491712	774.75
1506.010112	777.5
1506.528458	775.0
1507.046748	782.25
1507.564984	779.5
1508.083166	779.0
1508.601292	780.75
1509.119364	784.25
1509.637381	781.5
1510.155344	772.25
1510.673252	788.75
1511.191105	775.5
1511.708903	784.5
1512.226647	779.75
1512.744336	777.5
1513.261971	780.5
1513.77955	776.5
1514.297076	782.5
1514.814546	778.5
1515.331962	775.0
1515.849323	779.25
1516.366629	787.75
1516.883881	779.25
1517.401078	781.25
1517.918221	778.75
1518.435309	787.25
1518.952342	790.0
1519.469321	777.75
1519.986245	785.0
1520.503114	780.5
1521.019929	785.25
1521.536689	780.5
1522.053395	780.75
1522.570046	785.75
1523.086642	780.5
1523.603184	779.5
1524.119671	783.75
1524.636103	788.75
1525.152481	785.0
1525.668805	784.0
1526.185073	782.25
1526.701288	784.5
1527.217447	774.75
1527.733552	774.5
1528.249603	773.0
1528.765599	786.75
1529.28154	785.25
1529.797427	781.25
1530.313259	783.25
1530.829037	779.0
1531.34476	769.25
1531.860429	786.0
1532.376043	776.75
1532.891602	783.25
1533.407107	779.75
1533.922558	779.75
1534.437954	779.25
1534.953295	776.25
1535.468582	781.0
1535.983815	789.75
1536.498993	786.0
1537.014116	783.5
1537.529185	777.25
1538.044199	778.0
1538.559159	774.5
1539.074064	784.25
1539.588915	780.25
1540.103712	778.0
1540.618454	779.25
1541.133141	785.0
1541.647774	780.75
1542.162353	783.5
1542.676877	776.0
1543.191346	777.0
1543.705761	784.0
1544.220122	787.75
1544.734428	774.5
1545.24868	780.5
1545.762877	781.5
1546.27702	783.25
1546.791109	786.25
1547.305143	779.75
1547.819122	778.0
1548.333047	781.25
1548.846918	779.0
1549.360734	778.5
1549.874496	786.75
1550.388204	785.25
1550.901857	780.25
1551.415455	786.25
1551.929	779.0
1552.442489	790.5
1552.955925	785.75
1553.469306	779.5
1553.982632	783.75
1554.495905	785.75
1555.009123	774.25
1555.522286	784.25
1556.035395	788.25
1556.54845	785.0
1557.06145	782.5
1557.574396	780.75
1558.087288	789.0
1559.112908	797.75
1559.625637	779.5
1560.138311	783.25
1560.650931	789.25
1561.163497	784.25
1561.676008	779.5
1562.188465	787.25
1562.700867	781.75
1563.213216	790.25
1563.725509	784.5
1564.237749	786.25
1564.749934	777.5
1565.262065	785.5
1565.774142	784.5
1566.286164	785.5
1566.798132	787.25
1567.310046	783.75
1567.821906	778.5
1568.333711	789.25
1568.845462	790.75
1569.357158	790.5
1569.868801	781.75
1570.380389	793.75
1570.891922	781.25
1571.403402	789.25
1571.914827	787.25
1572.426198	789.5
1572.937515	794.0
1573.448777	789.75
1573.959985	796.75
1574.471139	795.75
1574.982239	792.0
1575.493285	803.25
1576.004276	801.5
1576.515213	803.25
1577.026096	811.75
1577.536924	802.75
1578.047698	807.5
1578.558419	815.25
1579.069084	815.75
1579.579696	814.5
1580.090254	829.75
1580.600757	825.75
1581.111206	816.5
1581.621601	822.75
1582.131941	828.25
1582.642228	822.75
1583.15246	815.25
1583.662638	812.75
1584.172762	810.75
1584.682832	806.25
1585.192847	807.25
1585.702809	805.25
1586.212716	801.0
1586.722569	805.5
1587.232368	797.75
1587.742113	792.5
1588.251803	799.5
1588.76144	796.5
1589.271022	790.5
1589.78055	794.75
1590.290024	790.75
1590.799444	793.0
1591.30881	804.5
1591.818121	807.5
1592.327379	802.0
