1042.980685	748.75
1043.547124	749.5
1044.113505	749.0
1044.679828	748.25
1045.246093	745.5
1045.8123	738.75
1046.378449	742.75
1046.94454	739.75
1047.510573	738.5
1048.076548	741.75
1048.642465	740.0
1049.208325	737.5
1049.774126	739.25
1050.339869	734.25
1050.905555	735.25
1051.471183	737.75
1052.036752	731.75
1052.602264	730.25
1053.167718	732.0
1053.733114	731.25
1054.298452	729.75
1054.863733	725.5
1055.428955	726.0
1055.994119	724.75
1056.559226	731.0
1057.124275	729.75
1057.689266	728.5
1058.254199	728.25
1058.819074	725.25
1059.383891	723.0
1059.94865	725.0
1060.513352	723.25
1061.077996	719.75
1061.642582	717.0
1062.20711	724.5
1062.77158	720.75
1063.335992	720.5
1063.900347	719.5
1064.464643	724.0
1065.028882	719.75
1065.593063	721.5
1066.157187	719.5
1066.721252	720.0
1067.28526	725.25
1067.84921	717.0
1068.413102	718.75
1068.976936	721.0
1069.540713	721.0
1070.104431	727.75
1070.668092	717.5
1071.231696	715.0
1071.795241	719.5
1072.358729	714.75
1072.922159	718.0
1073.485531	720.25
1074.048845	721.75
1074.612102	723.25
1075.175301	722.25
1075.738442	721.75
1076.301525	721.5
1076.864551	722.0
1077.427519	719.5
1077.990429	725.5
1078.553281	723.75
1079.116076	725.75
1079.678813	727.5
1080.241492	721.75
1080.804114	717.75
1081.366678	724.25
1081.929184	727.0
1082.491633	726.5
1083.054024	724.0
1083.616357	724.5
1084.178632	733.25
1084.74085	732.5
1085.30301	726.75
1085.865113	733.0
1086.427158	735.5
1086.989145	730.75
1087.551074	734.75
1088.112946	738.75
1088.67476	738.0
1089.236517	744.25
1089.798216	739.75
1090.359857	744.5
1090.92144	753.5
1091.482966	749.5
1092.044435	746.75
1092.605845	749.5
1093.167199	752.75
1093.728494	748.25
1094.289732	750.5
1094.850912	750.25
1095.412035	759.5
1095.9731	744.75
1096.534107	746.75
1097.095057	747.75
1097.65595	741.0
1098.216784	737.5
1098.777561	735.75
1099.338281	737.25
1099.898943	736.75
1100.459547	726.0
1101.020094	725.0
1101.580584	724.0
1102.141015	728.0
1102.701389	723.5
1103.261706	722.25
1103.821965	725.75
1104.382167	711.25
1104.942311	716.25
1105.502397	715.0
1106.062426	719.5
1106.622398	711.0
1107.182312	712.75
1107.742168	711.75
1108.301967	713.5
1108.861708	705.75
1109.421392	715.0
1109.981019	706.75
1110.540587	709.5
1111.100099	707.25
1111.659553	707.0
1112.218949	707.75
1112.778288	704.25
1113.33757	707.25
1113.896794	707.0
1114.45596	710.75
1115.015069	708.0
1115.574121	706.0
1116.133115	703.25
1116.692052	705.5
1117.250931	704.5
1117.809753	704.75
1118.368517	707.75
1118.927224	708.75
1119.485873	706.5
1120.044465	710.5
1120.603	707.0
1121.161477	706.5
1121.719897	707.0
1122.278259	704.0
1122.836564	704.5
1123.394812	711.75
1123.953002	705.75
1124.511135	704.5
1125.06921	699.75
1125.627228	700.75
1126.185189	703.25
1126.743092	700.75
1127.300938	693.5
1127.858726	707.0
1128.416457	704.0
1128.974131	703.5
1129.531748	695.5
1130.089307	707.0
1130.646808	701.25
1131.204252	706.25
1131.761639	700.0
1132.318969	701.75
1132.876241	701.75
1133.433456	705.25
1133.990614	701.75
1134.547714	702.25
1135.104757	703.75
1135.661743	701.75
1136.218671	701.25
1136.775542	699.75
1137.332356	700.5
1137.889112	704.0
1138.445811	695.75
1139.002453	700.75
1139.559037	701.0
1140.115565	705.75
1140.672035	700.75
1141.228447	702.25
1141.784803	702.25
1142.341101	700.0
1142.897342	707.25
1143.453525	699.5
1144.009651	701.5
1144.565721	704.5
1145.121732	697.5
1145.677687	701.0
1146.233584	700.5
1146.789424	698.5
1147.345207	702.75
1147.900933	704.0
1148.456601	699.5
1149.012212	700.0
1149.567766	698.75
1150.123263	698.5
1150.678702	696.75
1151.234085	696.5
1151.78941	697.0
1152.344678	704.0
1152.899888	699.0
1153.455042	698.75
1154.010138	702.75
1154.565177	701.75
1155.120159	701.75
1155.675084	694.25
1156.229951	700.0
1156.784762	700.5
1157.339515	699.0
1157.894211	697.0
1158.44885	699.0
1159.003432	699.5
1159.557956	700.0
1160.112424	702.25
1160.666834	699.25
1161.221187	700.75
1161.775483	697.0
1162.329722	699.5
1162.883904	700.0
1163.438029	700.75
1163.992096	700.75
1164.546107	697.25
1165.10006	701.25
1165.653956	697.0
1166.207795	697.5
1166.761577	700.75
1167.315302	702.75
1167.86897	705.0
1168.422581	700.5
1168.976134	700.5
1169.529631	698.75
1170.08307	699.0
1170.636453	697.75
1171.189778	696.5
1171.743046	697.75
1172.296257	698.0
1172.849412	699.25
1173.402509	696.75
1173.955549	693.75
1174.508532	697.0
1175.061458	696.0
1175.614327	693.0
1176.167138	700.25
1176.719893	695.75
1177.272591	699.25
1177.825232	699.75
1178.377816	697.75
1178.930342	698.0
1179.482812	696.0
1180.035225	701.25
1180.587581	697.5
1181.139879	697.25
1181.692121	693.0
1182.244306	694.75
1182.796434	696.0
1183.348504	699.0
1183.900518	697.25
1184.452475	697.0
1185.004375	701.75
1185.556218	700.0
1186.108004	695.25
1186.659733	694.5
1187.211405	696.0
1187.76302	695.0
1188.314578	691.75
1188.866079	696.25
1189.417523	692.5
1189.96891	696.75
1190.520241	695.0
1191.071514	693.75
1191.622731	696.0
1192.17389	696.0
1192.724993	698.25
1193.276039	714.5
1193.827027	694.75
1194.377959	696.0
1194.928834	699.0
1195.479653	694.0
1196.030414	697.0
1196.581118	696.0
1197.131766	696.25
1197.682356	695.25
1198.23289	693.5
1198.783367	697.75
1199.333786	694.75
1199.88415	695.25
1200.434456	698.5
1200.984705	691.0
1201.534898	696.25
1202.085033	691.75
1202.635112	696.5
1203.185134	694.25
1203.735099	694.5
1204.285007	698.5
1204.834859	696.75
1205.384653	694.75
1205.934391	696.0
1206.484072	692.5
1207.033696	695.5
1207.583263	694.75
1208.132774	693.0
1208.682228	695.5
1209.231624	699.25
1209.780965	697.75
1210.330248	694.25
1210.879474	696.75
1211.428644	699.5
1211.977757	694.5
1212.526813	697.75
1213.075813	700.75
1213.624755	690.5
1214.173641	694.0
1214.72247	695.0
1215.271242	695.0
1215.819958	692.25
1216.368617	697.0
1216.917219	696.25
1217.465764	693.0
1218.014253	696.5
1218.562685	693.25
1219.11106	695.25
1219.659378	693.75
1220.20764	692.0
1220.755845	693.75
1221.303993	698.5
1221.852085	697.5
1222.400119	694.5
1222.948097	699.5
1223.496019	695.75
1224.043883	696.5
1224.591691	692.25
1225.139443	692.75
1225.687137	698.25
1226.234775	693.25
1226.782357	695.75
1227.329881	697.75
1227.877349	697.25
1228.42476	695.75
1228.972115	692.25
1229.519413	694.0
1230.066654	696.0
1230.613839	691.75
1231.160967	697.25
1231.708038	698.5
1232.255053	696.0
1232.802011	698.5
1233.348912	696.5
1233.895757	695.75
1234.442545	694.25
1234.989277	693.75
1235.535951	694.75
1236.08257	694.75
1236.629131	695.25
1237.175636	694.25
1237.722085	696.25
1238.268477	693.25
1238.814812	696.25
1239.361091	691.5
1239.907313	692.75
1240.453478	695.75
1240.999587	696.75
1241.54564	696.75
1242.091636	694.25
1242.637575	698.25
1243.183457	695.5
1243.729284	696.0
1244.275053	695.75
1244.820766	692.75
1245.366423	693.0
1245.912022	697.25
1246.457566	698.75
1247.003053	695.0
1247.548483	692.0
1248.093857	697.0
1248.639174	695.75
1249.184435	696.0
1249.729639	693.25
1250.274787	697.5
1250.819878	693.0
1251.364912	693.5
1251.909891	694.0
1252.454812	693.5
1252.999677	694.0
1253.544486	694.25
1254.089238	692.25
1254.633934	693.0
1255.178573	691.0
1255.723156	698.0
1256.267682	697.75
1256.812152	699.0
1257.356565	696.5
1257.900922	699.25
1258.445223	698.5
1258.989467	698.75
1259.533654	697.0
1260.077785	711.5
1260.62186	696.5
1261.165878	695.5
1261.70984	699.75
1262.253745	695.75
1262.797594	698.75
1263.341386	699.25
1263.885123	697.25
1264.428802	698.25
1264.972425	703.25
1265.515992	712.0
1266.059503	709.5
1266.602957	702.5
1267.146354	698.25
1267.689696	698.5
1268.23298	698.75
1268.776209	695.5
1269.319381	697.25
1269.862497	694.75
1270.405556	695.25
1270.948559	692.75
1271.491506	693.75
1272.034396	699.0
1272.57723	698.5
1273.120007	692.5
1273.662728	696.75
1274.205393	693.0
1274.748002	697.0
1275.290554	705.25
1275.83305	698.25
1276.375489	699.75
1276.917872	696.25
1277.460199	695.0
1278.00247	693.5
1278.544684	696.0
1279.086842	699.5
1279.628943	696.75
1280.170989	698.25
1280.712978	696.0
1281.25491	698.5
1281.796787	698.5
1282.338607	697.0
1282.880371	701.25
1283.422078	702.5
1283.963729	699.5
1284.505324	709.5
1285.046863	724.0
1285.588345	813.25
1286.129772	951.75
1286.671142	823.25
1287.212455	724.5
1287.753713	703.75
1288.294914	701.25
1288.836059	699.5
1289.377147	697.75
1289.91818	699.0
1290.459156	696.0
1291.000076	697.0
1291.54094	695.5
1292.081747	699.5
1292.622499	692.25
1293.163194	698.0
1293.703833	695.25
1294.244415	698.5
1294.784942	695.25
1295.325412	700.5
1295.865826	694.0
1296.406184	696.0
1296.946486	698.25
1297.486731	692.0
1298.026921	698.75
1298.567054	696.5
1299.107131	698.75
1299.647152	700.75
1300.187116	699.75
1300.727025	699.75
1301.266877	695.0
1301.806673	694.25
1302.346413	697.0
1302.886097	695.0
1303.425725	695.5
1303.965297	694.5
1304.504812	692.25
1305.044272	698.25
1305.583675	693.25
1306.123022	694.75
1306.662313	696.0
1307.201548	701.0
1307.740727	697.75
1308.279849	697.75
1308.818916	696.25
1309.357926	692.75
1309.896881	700.0
1310.435779	697.25
1310.974621	698.25
1311.513407	691.5
1312.052137	694.5
1312.590811	695.5
1313.129429	699.75
1313.667991	690.0
1314.206497	695.75
1314.744946	697.75
1315.28334	697.5
1315.821678	699.25
1316.359959	691.75
1316.898184	697.75
1317.436354	696.25
1317.974467	697.75
1318.512525	690.5
1319.050526	695.5
1319.588471	691.25
1320.12636	696.75
1320.664194	698.75
1321.201971	697.5
1321.739692	693.25
1322.277357	692.75
1322.814967	690.25
1323.35252	698.75
1323.890017	702.25
1324.427458	697.0
1324.964843	693.0
1325.502173	696.75
1326.039446	689.0
1326.576663	693.0
1327.113824	696.5
1327.65093	694.0
1328.187979	696.5
1328.724972	694.5
1329.26191	695.5
1329.798791	699.0
1330.335617	694.25
1330.872386	691.75
1331.4091	698.25
1331.945758	695.0
1332.48236	698.0
1333.018905	694.5
1333.555395	694.5
1334.091829	689.0
1334.628207	694.0
1335.164529	692.75
1335.700796	693.0
1336.237006	690.25
1336.77316	696.25
1337.309259	695.25
1337.845301	694.0
1338.381288	697.75
1338.917219	696.75
1339.453094	695.0
1339.988913	694.75
1340.524676	693.5
1341.060383	696.75
1341.596034	693.5
1342.13163	697.25
1342.66717	697.0
1343.202653	693.5
1343.738081	692.75
1344.273453	694.75
1344.80877	694.0
1345.34403	699.5
1345.879235	696.0
1346.414383	690.5
1346.949476	696.75
1347.484513	700.25
1348.019494	694.25
1348.55442	692.0
1349.089289	695.75
1349.624103	692.5
1350.158861	690.75
1350.693563	695.75
1351.228209	696.25
1351.7628	693.25
1352.297334	695.25
1352.831813	690.25
1353.366236	696.0
1353.900604	694.5
1354.434915	692.5
1354.969171	693.25
1355.503371	695.0
1356.037515	698.0
1356.571604	691.25
1357.105636	693.0
1357.639613	692.25
1358.173535	690.5
1358.7074	695.5
1359.24121	694.0
1359.774964	691.75
1360.308662	694.0
1360.842304	694.75
1361.375891	698.5
1361.909422	693.5
1362.442897	696.25
1362.976317	697.25
1363.50968	697.75
1364.042989	696.0
1364.576241	694.75
1365.109438	696.75
1365.642579	692.75
1366.175664	695.25
1366.708693	696.25
1367.241667	694.75
1367.774585	693.0
1368.307448	693.5
1368.840255	696.0
1369.373006	697.25
1369.905701	694.5
1370.438341	700.25
1370.970925	698.0
1371.503454	697.0
1372.035926	690.25
1372.568344	697.25
1373.100705	696.5
1373.633011	690.0
1374.165261	693.5
1374.697456	695.5
1375.229595	690.75
1375.761678	694.0
1376.293705	697.25
1376.825677	696.0
1377.357594	696.25
1377.889455	695.0
1378.42126	693.5
1378.953009	698.25
1379.484703	699.25
1380.016342	696.25
1380.547924	697.0
1381.079452	697.5
1381.610923	697.75
1382.142339	697.25
1382.673699	691.75
1383.205004	694.75
1383.736253	690.0
1384.267447	700.75
1384.798585	698.5
1385.329668	696.5
1385.860695	700.0
1386.391666	698.0
1386.922582	701.0
1387.453442	699.75
1387.984247	711.75
1388.514996	773.25
1389.04569	1041.25
1389.576328	1029.75
1390.10691	756.25
1390.637437	710.25
1391.167909	698.5
1391.698325	702.25
1392.228685	694.0
1392.75899	699.5
1393.28924	698.25
1393.819434	700.5
1394.349572	692.5
1394.879655	693.5
1395.409683	695.5
1395.939655	695.25
1396.469571	692.0
1396.999432	695.75
1397.529237	694.5
1398.058987	692.0
1398.588682	695.0
1399.118321	698.0
1399.647905	695.0
1400.177433	695.25
1400.706906	700.25
1401.236323	693.5
1401.765685	698.0
1402.294991	694.0
1402.824242	695.25
1403.353437	693.75
1403.882577	694.5
1404.411662	694.0
1404.940691	694.0
1405.469665	696.0
1405.998583	693.75
1406.527446	699.25
1407.056253	694.25
1407.585005	695.0
1408.113702	697.5
1408.642343	696.5
1409.170929	696.0
1409.69946	700.25
1410.227935	720.5
1410.756354	737.25
1411.284719	702.25
1411.813028	697.25
1412.341281	697.5
1412.869479	693.75
1413.397622	695.25
1413.92571	695.25
1414.453742	693.0
1414.981718	692.5
1415.50964	706.25
1416.037506	693.5
1416.565316	697.75
1417.093072	693.5
1417.620772	698.0
1418.148416	693.75
1418.676005	695.75
1419.203539	691.0
1419.731018	698.0
1420.258441	695.75
1420.785809	691.75
1421.313122	692.25
1421.840379	693.0
1422.367582	697.25
1422.894728	699.25
1423.42182	694.25
1423.948856	698.0
1424.475837	695.0
1425.002762	699.0
1425.529633	691.75
1426.056448	690.0
1426.583207	697.25
1427.109912	693.75
1427.636561	697.75
1428.163155	695.5
1428.689694	692.5
1429.216177	693.0
1429.742605	697.25
1430.268978	695.0
1430.795296	699.25
1431.321558	698.25
1431.847765	693.0
1432.373917	691.5
1432.900014	695.0
1433.426056	697.0
1433.952042	691.25
1434.477973	698.5
1435.003849	699.25
1435.529669	695.5
1436.055435	694.25
1436.581145	693.75
1437.1068	701.25
1437.632399	692.75
1438.157944	692.25
1438.683433	692.5
1439.208868	693.75
1439.734247	694.0
1440.25957	693.25
1440.784839	693.0
1441.310053	693.5
1441.835211	692.25
1442.360314	697.0
1442.885362	691.25
1443.410355	695.5
1443.935292	699.0
1444.460175	693.0
1444.985002	692.75
1445.509774	695.75
1446.034491	696.25
1446.559153	693.0
1447.08376	695.25
1447.608312	696.0
1448.132808	695.0
1448.65725	691.5
1449.181636	690.0
1449.705967	693.25
1450.230243	695.0
1450.754464	692.75
1451.27863	691.0
1451.802741	697.25
1452.326797	691.0
1452.850797	695.75
1453.374743	691.25
1453.898633	694.25
1454.422468	694.5
1454.946249	694.25
1455.469974	693.0
1455.993644	696.25
1456.517259	692.75
1457.040819	693.75
1457.564324	693.5
1458.087773	695.75
1458.611168	694.5
1459.134508	697.25
1459.657793	696.25
1460.181022	694.0
1460.704197	692.75
1461.227316	691.25
1461.750381	696.5
1462.27339	695.5
1462.796345	695.25
1463.319244	692.0
1463.842089	695.5
1464.364878	693.25
1464.887613	691.75
1465.410292	690.75
1465.932916	691.25
1466.455486	690.75
1466.978	698.5
1467.50046	697.75
1468.022864	692.5
1468.545214	691.75
1469.067508	694.75
1469.589748	695.25
1470.111932	694.5
1470.634062	694.5
1471.156136	697.0
1471.678156	692.75
1472.20012	692.5
1472.72203	692.0
1473.243885	690.5
1473.765685	692.5
1474.28743	691.5
1474.80912	694.75
1475.330755	689.75
1475.852335	693.75
1476.37386	693.0
1476.89533	696.25
1477.416745	690.5
1477.938106	694.25
1478.459411	693.5
1478.980662	695.0
1479.501857	695.5
1480.022998	692.5
1480.544084	697.75
1481.065115	695.25
1481.586091	692.25
1482.107012	692.25
1482.627878	695.75
1483.14869	694.75
1483.669446	690.25
1484.190148	696.5
1484.710794	695.5
1485.231386	691.25
1485.751923	694.0
1486.272406	699.25
1486.792833	694.75
1487.313205	691.25
1487.833523	695.0
1488.353786	691.25
1488.873994	692.25
1489.394147	695.5
1489.914245	689.0
1490.434288	692.5
1490.954277	696.25
1491.474211	695.25
1491.99409	693.0
1492.513914	692.25
1493.033683	694.0
1493.553398	691.5
1494.073057	693.75
1494.592662	693.25
1495.112212	690.5
1495.631708	694.75
1496.151148	690.0
1496.670534	687.5
1497.189865	691.5
1497.709141	691.0
1498.228362	690.5
1498.747529	689.5
1499.266641	688.0
1499.785698	701.5
1500.3047	693.5
1500.823648	689.5
1501.34254	693.25
1501.861379	687.0
1502.380162	689.0
1502.89889	694.0
1503.417564	689.5
1503.936183	693.5
1504.454748	688.75
1504.973257	692.0
1505.491712	691.0
1506.010112	689.75
1506.528458	693.75
1507.046748	691.25
1507.564984	694.0
1508.083166	691.75
1508.601292	694.0
1509.119364	691.5
1509.637381	688.0
1510.155344	695.75
1510.673252	704.75
1511.191105	690.25
1511.708903	693.0
1512.226647	694.25
1512.744336	691.0
1513.261971	692.0
1513.77955	693.25
1514.297076	691.5
1514.814546	691.25
1515.331962	693.5
1515.849323	688.0
1516.366629	691.0
1516.883881	690.25
1517.401078	692.5
1517.918221	689.0
1518.435309	694.0
1518.952342	693.0
1519.469321	692.25
1519.986245	693.5
1520.503114	692.75
1521.019929	694.5
1521.536689	692.0
1522.053395	690.5
1522.570046	689.5
1523.086642	697.0
1523.603184	692.5
1524.119671	693.75
1524.636103	690.5
1525.152481	693.75
1525.668805	695.0
1526.185073	688.0
1526.701288	694.25
1527.217447	691.25
1527.733552	694.0
1528.249603	692.25
1528.765599	690.0
1529.28154	693.5
1529.797427	693.75
1530.313259	696.0
1530.829037	691.5
1531.34476	694.0
1531.860429	693.0
1532.376043	692.25
1532.891602	693.5
1533.407107	692.5
1533.922558	696.25
1534.437954	694.0
1534.953295	693.75
1535.468582	693.25
1535.983815	690.75
1536.498993	692.25
1537.014116	692.25
1537.529185	691.75
1538.044199	690.0
1538.559159	691.75
1539.074064	693.0
1539.588915	695.75
1540.103712	691.75
1540.618454	687.5
1541.133141	695.25
1541.647774	691.5
1542.162353	693.0
1542.676877	690.0
1543.191346	687.25
1543.705761	690.75
1544.220122	689.25
1544.734428	689.75
1545.24868	693.25
1545.762877	695.25
1546.27702	695.25
1546.791109	692.75
1547.305143	692.75
1547.819122	692.5
1548.333047	692.75
1548.846918	691.0
1549.360734	689.75
1549.874496	695.0
1550.388204	689.5
1550.901857	694.75
1551.415455	687.25
1551.929	693.75
1552.442489	695.25
1552.955925	694.25
1553.469306	690.75
1553.982632	693.75
1554.495905	691.75
1555.009123	694.75
1555.522286	691.0
1556.035395	693.5
1556.54845	695.75
1557.06145	695.75
1557.574396	692.0
1558.087288	693.25
1558.600125	693.0
1559.112908	691.25
1559.625637	690.25
1560.138311	694.75
1560.650931	693.5
1561.163497	695.25
1561.676008	691.0
1562.188465	691.25
1562.700867	691.75
1563.213216	693.0
1563.725509	692.75
1564.237749	694.25
1564.749934	690.0
1565.262065	691.5
1565.774142	687.5
1566.286164	694.5
1566.798132	693.25
1567.310046	692.25
1567.821906	694.0
1568.333711	694.75
1568.845462	694.25
1569.357158	693.0
1569.868801	691.0
1570.380389	693.5
1570.891922	691.25
1571.403402	694.25
1571.914827	692.25
1572.426198	694.0
1572.937515	689.0
1573.448777	691.5
1573.959985	689.5
1574.471139	695.5
1574.982239	694.5
1575.493285	689.5
1576.004276	693.5
1576.515213	693.75
1577.026096	697.0
1577.536924	696.5
1578.047698	696.5
1578.558419	698.25
1579.069084	693.5
1579.579696	694.25
1580.090254	694.5
1580.600757	696.0
1581.111206	691.0
1581.621601	691.25
1582.131941	691.25
1582.642228	694.25
1583.15246	692.0
1583.662638	693.75
1584.172762	691.75
1584.682832	691.25
1585.192847	695.25
1585.702809	692.75
1586.212716	694.75
1586.722569	694.0
1587.232368	691.5
1587.742113	687.75
1588.251803	694.75
1588.76144	687.25
1589.271022	694.25
1589.78055	690.75
1590.290024	689.0
1590.799444	690.25
1591.30881	692.75
1591.818121	693.5
1592.327379	691.75
