1042.414189	774.75
1042.980685	776.5
1043.547124	778.5
1044.113505	772.5
1044.679828	770.25
1045.246093	769.75
1045.8123	772.0
1046.378449	760.25
1046.94454	765.75
1047.510573	758.0
1048.076548	759.5
1048.642465	755.75
1049.208325	751.25
1049.774126	751.5
1050.339869	749.0
1050.905555	748.0
1051.471183	749.0
1052.036752	740.5
1052.602264	744.5
1053.167718	741.0
1053.733114	739.0
1054.298452	732.5
1054.863733	732.75
1055.428955	736.0
1055.994119	732.0
1056.559226	732.75
1057.124275	731.75
1057.689266	732.5
1058.254199	728.0
1058.819074	727.0
1059.383891	730.25
1059.94865	725.75
1060.513352	724.75
1061.077996	725.5
1061.642582	723.25
1062.20711	724.5
1062.77158	727.25
1063.335992	725.5
1063.900347	724.75
1064.464643	723.75
1065.028882	724.75
1065.593063	728.25
1066.157187	727.75
1066.721252	724.25
1067.28526	726.25
1067.84921	722.0
1068.413102	724.75
1068.976936	725.75
1069.540713	728.0
1070.104431	730.25
1070.668092	721.25
1071.231696	721.25
1071.795241	726.75
1072.358729	726.75
1072.922159	720.75
1073.485531	723.0
1074.048845	723.25
1074.612102	723.25
1075.175301	726.0
1075.738442	721.75
1076.301525	723.0
1076.864551	725.5
1077.427519	725.0
1077.990429	724.25
1078.553281	728.0
1079.116076	728.25
1079.678813	725.5
1080.241492	729.25
1080.804114	724.25
1081.366678	729.5
1081.929184	726.75
1082.491633	726.75
1083.054024	736.0
1083.616357	732.0
1084.178632	735.75
1084.74085	728.5
1085.30301	740.75
1085.865113	734.75
1086.427158	737.25
1086.989145	741.25
1087.551074	739.5
1088.112946	745.5
1088.67476	743.5
1089.236517	745.5
1089.798216	748.75
1090.359857	744.5
1090.92144	750.75
1091.482966	745.5
1092.044435	751.25
1092.605845	749.75
1093.167199	752.75
1093.728494	751.75
1094.289732	746.25
1094.850912	749.75
1095.412035	758.5
1095.9731	743.5
1096.534107	744.25
1097.095057	749.75
1097.65595	741.0
1098.216784	735.75
1098.777561	734.25
1099.338281	734.0
1099.898943	735.75
1100.459547	728.25
1101.020094	725.75
1101.580584	729.25
1102.141015	724.5
1102.701389	717.75
1103.261706	717.0
1103.821965	721.25
1104.382167	719.25
1104.942311	718.0
1105.502397	715.0
1106.062426	713.5
1106.622398	721.0
1107.182312	718.0
1107.742168	711.5
1108.301967	715.0
1108.861708	713.5
1109.421392	713.0
1109.981019	716.75
1110.540587	710.75
1111.100099	716.75
1111.659553	715.0
1112.218949	713.0
1112.778288	708.0
1113.33757	707.5
1113.896794	706.0
1114.45596	711.0
1115.015069	711.0
1115.574121	712.75
1116.133115	713.5
1116.692052	709.25
1117.250931	712.5
1117.809753	711.25
1118.368517	709.25
1118.927224	706.0
1119.485873	711.25
1120.044465	706.5
1120.603	708.75
1121.161477	707.5
1121.719897	707.25
1122.278259	709.0
1122.836564	707.5
1123.394812	705.25
1123.953002	706.25
1124.511135	705.75
1125.06921	709.25
1125.627228	708.25
1126.185189	705.75
1126.743092	706.75
1127.300938	705.0
1127.858726	706.25
1128.416457	704.75
1128.974131	701.5
1129.531748	704.5
1130.089307	707.25
1130.646808	709.75
1131.204252	703.25
1131.761639	702.25
1132.318969	704.0
1132.876241	711.5
1133.433456	705.75
1133.990614	706.75
1134.547714	707.5
1135.104757	707.25
1135.661743	704.75
1136.218671	701.5
1136.775542	707.25
1137.332356	703.0
1137.889112	708.25
1138.445811	702.25
1139.002453	705.75
1139.559037	705.0
1140.115565	702.0
1140.672035	701.25
1141.228447	703.5
1141.784803	703.75
1142.341101	701.25
1142.897342	705.75
1143.453525	701.0
1144.009651	705.5
1144.565721	700.25
1145.121732	708.0
1145.677687	702.0
1146.233584	705.0
1146.789424	700.25
1147.345207	702.0
1147.900933	705.5
1148.456601	699.25
1149.012212	702.75
1149.567766	702.75
1150.123263	699.25
1150.678702	705.25
1151.234085	699.0
1151.78941	705.75
1152.344678	699.25
1152.899888	703.25
1153.455042	698.25
1154.010138	697.5
1154.565177	700.75
1155.120159	701.75
1155.675084	701.5
1156.229951	698.75
1156.784762	704.0
1157.339515	698.5
1157.894211	699.25
1158.44885	700.75
1159.003432	700.0
1159.557956	702.0
1160.112424	700.75
1160.666834	705.5
1161.221187	701.0
1161.775483	703.75
1162.329722	704.5
1162.883904	701.75
1163.438029	704.25
1163.992096	701.25
1164.546107	706.0
1165.10006	707.5
1165.653956	699.75
1166.207795	707.75
1166.761577	700.75
1167.315302	706.75
1167.86897	709.5
1168.422581	709.0
1168.976134	704.0
1169.529631	701.5
1170.08307	702.25
1170.636453	702.25
1171.189778	700.5
1171.743046	702.75
1172.296257	701.75
1172.849412	702.75
1173.402509	698.5
1173.955549	697.25
1174.508532	702.0
1175.061458	695.5
1175.614327	699.5
1176.167138	699.0
1176.719893	701.5
1177.272591	697.5
1177.825232	699.0
1178.377816	699.5
1178.930342	698.75
1179.482812	696.25
1180.035225	695.0
1180.587581	700.0
1181.139879	696.5
1181.692121	699.25
1182.244306	695.25
1182.796434	695.25
1183.348504	698.25
1183.900518	696.25
1184.452475	694.5
1185.004375	698.75
1185.556218	696.5
1186.108004	692.0
1186.659733	694.5
1187.211405	696.0
1187.76302	694.75
1188.314578	695.75
1188.866079	698.0
1189.417523	696.0
1189.96891	693.75
1190.520241	696.25
1191.071514	695.25
1191.622731	695.25
1192.17389	696.5
1192.724993	696.0
1193.276039	714.25
1193.827027	693.0
1194.377959	694.75
1194.928834	692.25
1195.479653	696.5
1196.030414	696.0
1196.581118	697.0
1197.131766	695.25
1197.682356	695.0
1198.23289	691.75
1198.783367	695.75
1199.333786	695.0
1199.88415	700.25
1200.434456	691.75
1200.984705	692.75
1201.534898	690.5
1202.085033	694.75
1202.635112	697.25
1203.185134	696.0
1203.735099	692.5
1204.285007	692.75
1204.834859	692.0
1205.384653	696.0
1205.934391	692.25
1206.484072	695.0
1207.033696	692.0
1207.583263	694.5
1208.132774	693.5
1208.682228	689.75
1209.231624	690.0
1209.780965	693.25
1210.330248	696.5
1210.879474	694.0
1211.428644	697.25
1211.977757	695.5
1212.526813	693.0
1213.075813	694.5
1213.624755	696.25
1214.173641	689.5
1214.72247	694.0
1215.271242	695.5
1215.819958	694.0
1216.368617	694.25
1216.917219	694.25
1217.465764	693.25
1218.014253	689.75
1218.562685	693.5
1219.11106	694.75
1219.659378	693.0
1220.20764	690.5
1220.755845	692.5
1221.303993	693.75
1221.852085	690.0
1222.400119	695.25
1222.948097	690.75
1223.496019	697.0
1224.043883	699.0
1224.591691	692.75
1225.139443	696.75
1225.687137	695.25
1226.234775	691.5
1226.782357	694.5
1227.329881	694.25
1227.877349	691.25
1228.42476	689.5
1228.972115	694.5
1229.519413	691.75
1230.066654	689.5
1230.613839	696.5
1231.160967	696.0
1231.708038	692.25
1232.255053	690.75
1232.802011	695.0
1233.348912	698.0
1233.895757	698.0
1234.442545	695.75
1234.989277	693.25
1235.535951	694.5
1236.08257	690.75
1236.629131	697.25
1237.175636	697.75
1237.722085	693.5
1238.268477	696.0
1238.814812	697.25
1239.361091	691.75
1239.907313	694.25
1240.453478	693.75
1240.999587	696.5
1241.54564	694.5
1242.091636	691.75
1242.637575	702.75
1243.183457	693.0
1243.729284	696.5
1244.275053	696.0
1244.820766	699.0
1245.366423	699.0
1245.912022	697.0
1246.457566	695.5
1247.003053	692.25
1247.548483	700.75
1248.093857	696.75
1248.639174	697.0
1249.184435	695.5
1249.729639	696.75
1250.274787	694.75
1250.819878	697.0
1251.364912	696.5
1251.909891	698.5
1252.454812	697.0
1252.999677	695.75
1253.544486	693.25
1254.089238	697.5
1254.633934	698.25
1255.178573	695.0
1255.723156	697.0
1256.267682	698.75
1256.812152	698.25
1257.356565	699.0
1257.900922	697.75
1258.445223	702.5
1258.989467	696.25
1259.533654	703.75
1260.077785	710.75
1260.62186	696.25
1261.165878	698.5
1261.70984	701.0
1262.253745	700.5
1262.797594	702.25
1263.341386	700.25
1263.885123	698.0
1264.428802	700.25
1264.972425	707.5
1265.515992	718.0
1266.059503	714.75
1266.602957	710.0
1267.146354	705.75
1267.689696	693.5
1268.23298	700.0
1268.776209	698.75
1269.862497	716.25
1270.405556	701.5
1270.948559	702.25
1271.491506	700.75
1272.034396	700.0
1272.57723	705.5
1273.120007	703.25
1273.662728	698.0
1274.205393	700.0
1274.748002	705.0
1275.290554	698.75
1275.83305	702.25
1276.375489	704.5
1276.917872	704.25
1277.460199	701.75
1278.00247	699.5
1278.544684	704.5
1279.086842	699.75
1279.628943	700.0
1280.170989	700.5
1280.712978	703.25
1281.25491	700.75
1281.796787	707.5
1282.338607	706.75
1282.880371	703.0
1283.422078	702.75
1283.963729	709.0
1284.505324	709.5
1285.046863	728.75
1285.588345	825.75
1286.129772	949.5
1286.671142	826.5
1287.212455	728.0
1287.753713	707.5
1288.294914	706.0
1288.836059	703.75
1289.377147	703.25
1289.91818	703.5
1290.459156	699.5
1291.000076	703.5
1291.54094	703.0
1292.081747	706.25
1292.622499	702.5
1293.163194	704.0
1293.703833	702.75
1294.244415	700.25
1294.784942	699.0
1295.325412	705.25
1295.865826	702.75
1296.406184	704.25
1296.946486	703.75
1297.486731	700.5
1298.026921	701.25
1298.567054	702.5
1299.107131	704.25
1299.647152	702.0
1300.187116	703.75
1300.727025	702.25
1301.266877	704.5
1301.806673	706.0
1302.346413	703.75
1302.886097	705.25
1303.425725	701.25
1303.965297	704.25
1304.504812	700.75
1305.044272	701.0
1305.583675	699.25
1306.123022	701.0
1306.662313	696.75
1307.201548	701.5
1307.740727	703.5
1308.279849	704.5
1308.818916	699.75
1309.357926	697.0
1309.896881	699.75
1310.435779	699.75
1310.974621	697.25
1311.513407	697.0
1312.052137	704.25
1312.590811	693.75
1313.129429	696.0
1313.667991	696.25
1314.206497	692.75
1314.744946	698.0
1315.28334	697.25
1315.821678	695.75
1316.359959	696.0
1316.898184	694.25
1317.436354	694.0
1317.974467	694.75
1318.512525	696.25
1319.050526	694.75
1319.588471	694.25
1320.12636	691.5
1320.664194	691.75
1321.201971	694.5
1321.739692	691.0
1322.277357	695.0
1322.814967	694.25
1323.35252	694.25
1323.890017	696.5
1324.427458	694.5
1324.964843	692.25
1325.502173	695.25
1326.039446	690.75
1326.576663	692.0
1327.113824	690.5
1327.65093	691.5
1328.187979	691.0
1328.724972	692.0
1329.26191	690.75
1329.798791	690.0
1330.335617	692.25
1330.872386	698.25
1331.4091	688.5
1331.945758	690.5
1332.48236	692.75
1333.018905	693.75
1333.555395	694.25
1334.091829	692.75
1334.628207	690.75
1335.164529	692.75
1335.700796	695.0
1336.237006	692.5
1336.77316	692.75
1337.309259	691.75
1337.845301	691.0
1338.381288	692.0
1338.917219	690.25
1339.453094	690.75
1339.988913	691.75
1340.524676	692.75
1341.060383	692.25
1341.596034	690.75
1342.13163	689.5
1342.66717	692.25
1343.202653	689.5
1343.738081	690.75
1344.273453	690.75
1344.80877	689.5
1345.34403	694.25
1345.879235	692.25
1346.414383	690.25
1346.949476	694.0
1347.484513	695.0
1348.019494	689.5
1348.55442	690.0
1349.089289	688.0
1349.624103	688.25
1350.158861	690.75
1350.693563	692.75
1351.228209	691.75
1351.7628	689.75
1352.297334	695.25
1352.831813	689.25
1353.366236	691.0
1353.900604	694.5
1354.434915	689.75
1354.969171	688.75
1355.503371	688.75
1356.037515	689.75
1356.571604	687.75
1357.105636	691.75
1357.639613	693.25
1358.173535	691.5
1358.7074	689.25
1359.24121	690.25
1359.774964	691.25
1360.308662	689.0
1360.842304	689.25
1361.375891	693.0
1361.909422	690.75
1362.442897	694.0
1362.976317	692.5
1363.50968	691.5
1364.042989	692.0
1364.576241	694.25
1365.109438	692.0
1365.642579	692.5
1366.175664	692.0
1366.708693	691.25
1367.241667	693.0
1367.774585	692.5
1368.307448	694.75
1368.840255	692.75
1369.373006	693.0
1369.905701	694.25
1370.438341	697.25
1370.970925	699.75
1371.503454	698.5
1372.035926	695.0
1372.568344	694.75
1373.100705	688.25
1373.633011	690.75
1374.165261	691.0
1374.697456	695.75
1375.229595	690.75
1375.761678	691.25
1376.293705	695.0
1376.825677	695.0
1377.357594	694.0
1377.889455	690.5
1378.42126	692.5
1378.953009	697.0
1379.484703	693.25
1380.016342	694.75
1380.547924	694.0
1381.079452	695.25
1381.610923	690.25
1382.142339	694.0
1382.673699	689.75
1383.205004	691.5
1383.736253	693.75
1384.267447	691.75
1384.798585	690.75
1385.329668	693.0
1385.860695	692.25
1386.391666	691.5
1386.922582	696.5
1387.453442	704.75
1387.984247	709.75
1388.514996	768.75
1389.04569	1039.5
1389.576328	1005.75
1390.10691	753.25
1390.637437	703.0
1391.167909	699.5
1391.698325	697.25
1392.228685	694.75
1392.75899	692.25
1393.28924	695.25
1393.819434	695.0
1394.349572	693.0
1394.879655	691.75
1395.409683	691.0
1395.939655	691.0
1396.469571	690.25
1396.999432	691.5
1397.529237	693.5
1398.058987	692.5
1398.588682	694.5
1399.118321	691.5
1399.647905	689.5
1400.177433	690.5
1400.706906	689.75
1401.236323	691.0
1401.765685	693.0
1402.294991	698.75
1402.824242	694.0
1403.353437	691.5
1403.882577	690.0
1404.411662	691.5
1404.940691	691.0
1405.469665	690.5
1405.998583	692.5
1406.527446	696.5
1407.056253	695.75
1407.585005	690.25
1408.113702	695.0
1408.642343	693.5
1409.170929	696.25
1409.69946	698.75
1410.227935	712.5
1410.756354	724.75
1411.284719	705.5
1411.813028	694.0
1412.341281	690.75
1412.869479	689.0
1413.397622	696.25
1413.92571	688.75
1414.453742	690.25
1414.981718	689.0
1415.50964	700.25
1416.037506	693.25
1416.565316	692.5
1417.093072	688.75
1417.620772	690.75
1418.148416	692.75
1418.676005	692.75
1419.203539	692.0
1419.731018	695.25
1420.258441	688.0
1420.785809	695.5
1421.313122	689.5
1421.840379	688.75
1422.367582	692.75
1422.894728	688.75
1423.42182	686.5
1423.948856	688.5
1424.475837	691.25
1425.002762	692.75
1425.529633	692.0
1426.056448	689.5
1426.583207	692.0
1427.109912	688.0
1427.636561	693.0
1428.163155	687.75
1428.689694	691.75
1429.216177	691.25
1429.742605	688.0
1430.268978	690.25
1430.795296	693.0
1431.321558	689.0
1431.847765	688.5
1432.373917	687.75
1432.900014	688.75
1433.426056	691.5
1433.952042	690.75
1434.477973	690.25
1435.003849	693.0
1435.529669	691.5
1436.055435	693.0
1436.581145	689.0
1437.1068	693.0
1437.632399	690.5
1438.157944	693.5
1438.683433	697.0
1439.208868	692.0
1439.734247	698.0
1440.25957	691.0
1440.784839	689.75
1441.310053	696.5
1441.835211	687.0
1442.360314	693.25
1442.885362	693.25
1443.410355	692.25
1443.935292	694.5
1444.460175	693.75
1444.985002	693.0
1445.509774	687.5
1446.034491	691.75
1446.559153	693.0
1447.08376	691.25
1447.608312	690.25
1448.132808	692.25
1448.65725	696.5
1449.181636	693.75
1449.705967	693.5
1450.230243	697.75
1450.754464	689.25
1451.27863	696.0
1451.802741	693.0
1452.326797	693.25
1452.850797	693.75
1453.374743	690.75
1453.898633	693.0
1454.422468	691.75
1454.946249	692.25
1455.469974	693.0
1455.993644	693.25
1456.517259	694.25
1457.040819	694.25
1457.564324	691.75
1458.087773	695.0
1458.611168	693.5
1459.134508	691.5
1459.657793	694.5
1460.181022	688.25
1460.704197	691.5
1461.227316	692.5
1461.750381	692.5
1462.27339	689.25
1462.796345	687.75
1463.319244	693.0
1463.842089	686.5
1464.364878	691.0
1464.887613	690.75
1465.410292	687.5
1465.932916	688.25
1466.455486	688.25
1466.978	691.0
1467.50046	687.75
1468.022864	691.75
1468.545214	688.25
1469.067508	690.0
1469.589748	691.0
1470.111932	690.0
1470.634062	689.75
1471.156136	687.75
1471.678156	687.75
1472.20012	689.75
1472.72203	690.5
1473.243885	686.75
1473.765685	685.25
1474.28743	693.25
1474.80912	687.75
1475.330755	689.75
1475.852335	692.75
1476.37386	688.5
1476.89533	687.25
1477.416745	686.5
1477.938106	688.25
1478.459411	688.75
1478.980662	691.5
1479.501857	692.5
1480.022998	688.0
1480.544084	687.25
1481.065115	692.0
1481.586091	688.5
1482.107012	688.75
1482.627878	694.5
1483.14869	690.25
1483.669446	690.5
1484.190148	684.75
1484.710794	689.0
1485.231386	690.5
1485.751923	691.75
1486.272406	691.75
1486.792833	689.25
1487.313205	691.5
1487.833523	690.0
1488.353786	691.25
1488.873994	688.5
1489.394147	691.25
1489.914245	696.0
1490.434288	690.0
1490.954277	687.75
1491.474211	692.0
1491.99409	691.75
1492.513914	696.25
1493.033683	694.25
1493.553398	690.75
1494.073057	694.25
1494.592662	693.0
1495.112212	692.0
1495.631708	689.0
1496.151148	687.75
1496.670534	688.75
1497.189865	689.75
1497.709141	686.5
1498.228362	690.5
1498.747529	690.5
1499.266641	688.5
1499.785698	698.75
1500.3047	691.5
1500.823648	687.25
1501.34254	687.75
1501.861379	685.75
1502.380162	691.25
1502.89889	689.25
1503.417564	689.5
1503.936183	690.5
1504.454748	688.0
1504.973257	688.25
1505.491712	686.75
1506.010112	686.75
1506.528458	691.0
1507.046748	688.75
1507.564984	692.0
1508.083166	687.25
1508.601292	688.25
1509.119364	686.5
1509.637381	690.25
1510.155344	691.25
1510.673252	694.75
1511.191105	690.75
1511.708903	689.0
1512.226647	693.25
1512.744336	686.5
1513.261971	687.75
1513.77955	687.0
1514.297076	690.0
1514.814546	689.75
1515.331962	688.25
1515.849323	689.5
1516.366629	686.0
1516.883881	692.25
1517.401078	683.25
1517.918221	686.75
1518.435309	691.5
1518.952342	689.75
1519.469321	689.75
1519.986245	686.5
1520.503114	687.75
1521.019929	686.25
1521.536689	687.0
1522.053395	687.25
1522.570046	689.25
1523.086642	689.75
1523.603184	689.5
1524.119671	690.25
1524.636103	692.25
1525.152481	687.75
1525.668805	689.0
1526.185073	689.5
1526.701288	688.25
1527.217447	689.75
1527.733552	687.75
1528.249603	691.0
1528.765599	690.75
1529.28154	690.0
1529.797427	685.5
1530.313259	690.5
1530.829037	687.75
1531.34476	687.0
1531.860429	688.0
1532.376043	686.5
1532.891602	684.5
1533.407107	688.75
1533.922558	687.75
1534.437954	687.75
1534.953295	687.5
1535.468582	689.5
1535.983815	688.0
1536.498993	688.75
1537.014116	691.25
1537.529185	687.75
1538.044199	692.75
1538.559159	691.0
1539.074064	690.25
1539.588915	691.0
1540.103712	694.75
1540.618454	689.0
1541.133141	688.0
1541.647774	687.25
1542.162353	690.75
1542.676877	688.5
1543.191346	689.0
1543.705761	687.75
1544.220122	688.0
1544.734428	688.5
1545.24868	686.5
1545.762877	688.75
1546.27702	688.5
1546.791109	687.75
1547.305143	688.75
1547.819122	687.0
1548.333047	688.5
1548.846918	689.5
1549.360734	684.75
1549.874496	687.75
1550.388204	688.75
1550.901857	684.5
1551.415455	688.0
1551.929	684.75
1552.442489	689.25
1552.955925	685.75
1553.469306	687.75
1553.982632	689.25
1554.495905	688.5
1555.009123	688.25
1555.522286	688.25
1556.035395	688.25
1556.54845	689.25
1557.06145	689.0
1557.574396	688.25
1558.087288	687.5
1558.600125	689.0
1559.112908	688.25
1559.625637	690.0
1560.138311	691.0
1560.650931	689.75
1561.163497	690.25
1561.676008	688.75
1562.188465	690.5
1562.700867	686.0
1563.213216	685.5
1563.725509	684.25
1564.237749	690.0
1564.749934	694.5
1565.262065	689.25
1565.774142	688.25
1566.286164	685.0
1566.798132	687.0
1567.310046	690.5
1567.821906	692.25
1568.333711	691.75
1568.845462	693.75
1569.357158	692.0
1569.868801	691.25
1570.380389	688.25
1570.891922	689.75
1571.403402	692.25
1571.914827	688.5
1572.426198	690.75
1572.937515	691.25
1573.448777	695.0
1573.959985	692.5
1574.471139	686.25
1574.982239	693.25
1575.493285	691.0
1576.004276	691.5
1576.515213	692.25
1577.026096	694.0
1577.536924	694.25
1578.047698	696.5
1578.558419	692.75
1579.069084	699.0
1579.579696	698.0
1580.090254	696.0
1580.600757	694.25
1581.111206	699.5
1581.621601	699.25
1582.131941	702.75
1582.642228	699.0
1583.15246	694.75
1583.662638	701.0
1584.172762	694.5
1584.682832	693.75
1585.192847	697.75
1585.702809	690.25
1586.212716	693.75
1586.722569	690.0
1587.232368	695.25
1587.742113	692.5
1588.251803	689.75
1588.76144	687.25
1589.271022	692.25
1589.78055	694.75
1590.290024	689.5
1590.799444	692.0
1591.30881	689.75
1591.818121	689.25
1592.327379	694.0
