1042.980685	777.75
1043.547124	778.25
1044.113505	780.0
1044.679828	786.5
1045.246093	774.25
1045.8123	778.25
1046.378449	781.5
1046.94454	767.5
1047.510573	766.75
1048.076548	768.25
1048.642465	759.25
1049.208325	761.25
1049.774126	762.75
1050.339869	757.0
1050.905555	754.25
1051.471183	750.75
1052.036752	744.75
1052.602264	745.0
1053.167718	747.25
1053.733114	743.5
1054.298452	745.75
1054.863733	741.75
1055.428955	738.0
1055.994119	742.5
1056.559226	736.25
1057.124275	731.5
1057.689266	732.25
1058.254199	730.25
1058.819074	736.5
1059.383891	730.75
1059.94865	729.0
1060.513352	726.25
1061.077996	732.25
1061.642582	728.5
1062.20711	737.0
1062.77158	727.25
1063.335992	725.75
1063.900347	729.25
1064.464643	727.0
1065.028882	727.5
1065.593063	728.25
1066.157187	729.5
1066.721252	725.5
1067.28526	728.75
1067.84921	727.75
1068.413102	727.75
1068.976936	727.5
1069.540713	723.75
1070.104431	733.25
1070.668092	727.0
1071.231696	726.0
1071.795241	726.25
1072.358729	721.5
1072.922159	722.25
1073.485531	728.0
1074.048845	728.75
1074.612102	725.5
1075.175301	727.75
1075.738442	727.0
1076.301525	728.75
1076.864551	725.5
1077.427519	721.5
1077.990429	724.75
1078.553281	724.5
1079.116076	723.0
1079.678813	724.5
1080.241492	730.25
1080.804114	728.25
1081.366678	731.0
1081.929184	726.5
1082.491633	730.25
1083.054024	729.25
1083.616357	731.0
1084.178632	729.0
1084.74085	732.5
1085.30301	727.25
1085.865113	727.5
1086.427158	731.0
1086.989145	735.75
1087.551074	734.5
1088.112946	734.75
1088.67476	742.75
1089.236517	737.25
1089.798216	734.5
1090.359857	735.25
1090.92144	737.5
1091.482966	741.75
1092.044435	737.25
1092.605845	740.5
1093.167199	733.5
1093.728494	742.0
1094.289732	742.5
1094.850912	739.25
1095.412035	747.0
1095.9731	735.5
1096.534107	731.5
1097.095057	737.75
1097.65595	729.0
1098.216784	734.0
1098.777561	729.5
1099.338281	727.0
1099.898943	723.0
1100.459547	722.75
1101.020094	724.75
1101.580584	721.25
1102.141015	718.5
1102.701389	719.75
1103.261706	715.5
1103.821965	722.75
1104.382167	714.25
1104.942311	717.25
1105.502397	717.5
1106.062426	715.75
1106.622398	717.5
1107.182312	721.0
1107.742168	717.5
1108.301967	714.0
1108.861708	713.25
1109.421392	712.25
1109.981019	714.25
1110.540587	708.25
1111.100099	716.25
1111.659553	711.5
1112.218949	715.5
1112.778288	715.75
1113.33757	715.75
1113.896794	713.5
1114.45596	713.0
1115.015069	711.25
1115.574121	711.25
1116.133115	712.0
1116.692052	709.0
1117.250931	715.0
1117.809753	709.75
1118.368517	710.0
1118.927224	709.75
1119.485873	716.75
1120.044465	708.75
1120.603	707.75
1121.161477	709.25
1121.719897	714.0
1122.278259	713.25
1122.836564	710.25
1123.394812	706.0
1123.953002	710.25
1124.511135	705.0
1125.06921	703.25
1125.627228	704.25
1126.185189	713.25
1126.743092	709.75
1127.300938	707.25
1127.858726	706.5
1128.416457	708.75
1128.974131	710.0
1129.531748	707.0
1130.089307	712.5
1130.646808	711.0
1131.204252	704.75
1131.761639	710.25
1132.318969	712.5
1132.876241	707.75
1133.433456	709.0
1133.990614	709.0
1134.547714	708.75
1135.104757	708.25
1135.661743	707.75
1136.218671	704.25
1136.775542	705.75
1137.332356	705.25
1137.889112	703.0
1138.445811	706.75
1139.002453	707.5
1139.559037	710.25
1140.115565	705.25
1140.672035	707.5
1141.228447	709.0
1141.784803	705.75
1142.341101	709.75
1142.897342	704.75
1143.453525	708.0
1144.009651	705.75
1144.565721	704.75
1145.121732	707.0
1145.677687	707.25
1146.233584	705.5
1146.789424	706.75
1147.345207	706.25
1147.900933	707.5
1148.456601	707.25
1149.012212	706.5
1149.567766	708.75
1150.123263	706.25
1150.678702	706.25
1151.234085	704.25
1151.78941	706.0
1152.344678	703.75
1152.899888	703.75
1153.455042	700.5
1154.010138	705.0
1154.565177	705.0
1155.120159	708.25
1155.675084	701.75
1156.229951	707.0
1156.784762	708.0
1157.339515	706.75
1157.894211	701.5
1158.44885	700.0
1159.003432	703.75
1159.557956	701.75
1160.112424	703.75
1160.666834	703.0
1161.221187	704.25
1161.775483	705.75
1162.329722	706.75
1162.883904	708.0
1163.438029	705.25
1163.992096	710.0
1164.546107	709.25
1165.10006	711.25
1165.653956	704.75
1166.207795	711.0
1166.761577	709.0
1167.315302	711.0
1167.86897	715.5
1168.422581	708.25
1168.976134	709.75
1169.529631	703.75
1170.08307	705.5
1170.636453	705.25
1171.189778	702.0
1171.743046	705.5
1172.296257	704.0
1172.849412	702.25
1173.402509	698.5
1173.955549	704.5
1174.508532	701.75
1175.061458	703.5
1175.614327	698.25
1176.167138	702.25
1176.719893	699.0
1177.272591	703.25
1177.825232	698.25
1178.377816	697.25
1178.930342	698.5
1179.482812	699.5
1180.035225	697.75
1180.587581	696.75
1181.139879	694.5
1181.692121	699.5
1182.244306	698.0
1182.796434	696.0
1183.348504	696.5
1183.900518	697.0
1184.452475	705.0
1185.004375	701.75
1185.556218	696.75
1186.108004	697.0
1186.659733	695.75
1187.211405	699.75
1187.76302	695.0
1188.314578	695.0
1188.866079	696.0
1189.417523	696.5
1189.96891	696.25
1190.520241	698.0
1191.071514	696.25
1191.622731	696.0
1192.17389	699.25
1192.724993	700.5
1193.276039	718.5
1193.827027	698.0
1194.377959	692.75
1194.928834	699.0
1195.479653	696.0
1196.030414	694.5
1196.581118	695.5
1197.131766	697.75
1197.682356	693.75
1198.23289	694.75
1198.783367	696.5
1199.333786	699.25
1199.88415	694.75
1200.434456	696.75
1200.984705	694.25
1201.534898	696.0
1202.085033	694.75
1202.635112	695.75
1203.185134	697.5
1203.735099	700.0
1204.285007	696.25
1204.834859	692.75
1205.384653	694.5
1205.934391	694.0
1206.484072	693.25
1207.033696	698.25
1207.583263	698.0
1208.132774	693.5
1208.682228	695.5
1209.231624	693.0
1209.780965	693.5
1210.330248	696.5
1210.879474	696.0
1211.428644	694.25
1211.977757	692.75
1212.526813	697.75
1213.075813	695.5
1213.624755	694.75
1214.173641	695.75
1214.72247	706.25
1215.819958	705.25
1216.368617	698.25
1216.917219	692.75
1217.465764	692.5
1218.014253	692.25
1218.562685	695.25
1219.11106	694.5
1219.659378	701.0
1220.20764	694.25
1220.755845	696.75
1221.303993	695.5
1221.852085	694.25
1222.400119	693.75
1222.948097	699.0
1223.496019	689.0
1224.043883	692.0
1224.591691	695.25
1225.139443	692.5
1225.687137	701.0
1226.234775	694.75
1226.782357	692.5
1227.329881	699.0
1227.877349	698.75
1228.42476	695.5
1228.972115	694.75
1229.519413	693.25
1230.066654	697.25
1230.613839	696.25
1231.160967	696.0
1231.708038	696.75
1232.255053	693.0
1232.802011	698.0
1233.348912	695.75
1233.895757	695.25
1234.442545	702.75
1234.989277	694.0
1235.535951	698.5
1236.08257	696.25
1236.629131	700.25
1237.175636	693.0
1237.722085	696.75
1238.268477	699.5
1238.814812	697.5
1239.361091	695.0
1239.907313	696.5
1240.453478	695.0
1240.999587	699.0
1241.54564	697.25
1242.091636	697.5
1242.637575	693.25
1243.183457	693.75
1243.729284	695.5
1244.275053	696.0
1244.820766	701.0
1245.366423	697.5
1245.912022	696.25
1246.457566	695.0
1247.003053	696.0
1247.548483	701.75
1248.093857	695.75
1248.639174	696.5
1249.184435	696.25
1249.729639	702.25
1250.274787	700.75
1250.819878	702.0
1251.364912	705.5
1251.909891	704.0
1252.454812	702.25
1252.999677	699.0
1253.544486	701.25
1254.089238	700.5
1254.633934	697.0
1255.178573	694.75
1255.723156	704.75
1256.267682	700.75
1256.812152	695.25
1257.356565	699.75
1257.900922	702.5
1258.445223	703.0
1258.989467	698.25
1259.533654	701.75
1260.077785	716.5
1260.62186	702.25
1261.165878	699.25
1261.70984	702.0
1262.253745	703.0
1262.797594	701.5
1263.341386	697.75
1263.885123	705.25
1264.428802	706.0
1264.972425	711.75
1265.515992	720.5
1266.059503	725.0
1266.602957	714.25
1267.146354	706.0
1267.689696	704.0
1268.23298	705.75
1268.776209	704.25
1269.319381	704.5
1269.862497	703.75
1270.405556	705.0
1270.948559	702.0
1271.491506	703.25
1272.034396	709.25
1272.57723	704.75
1273.120007	705.75
1273.662728	700.75
1274.205393	710.0
1274.748002	707.5
1275.290554	705.25
1275.83305	708.5
1276.375489	707.25
1276.917872	705.0
1277.460199	704.25
1278.00247	702.0
1278.544684	705.0
1279.086842	706.75
1279.628943	708.25
1280.170989	707.25
1280.712978	706.0
1281.25491	705.5
1281.796787	702.75
1282.338607	709.75
1282.880371	713.5
1283.422078	711.25
1283.963729	714.75
1284.505324	716.5
1285.046863	737.5
1285.588345	856.75
1286.129772	1011.25
1286.671142	846.25
1287.212455	734.0
1287.753713	711.0
1288.294914	710.5
1288.836059	707.25
1289.377147	708.0
1289.91818	704.25
1290.459156	705.0
1291.000076	706.75
1291.54094	709.0
1292.081747	704.75
1292.622499	701.75
1293.163194	706.5
1293.703833	707.5
1294.244415	713.75
1294.784942	707.0
1295.325412	713.0
1295.865826	708.75
1296.406184	707.25
1296.946486	710.75
1297.486731	709.0
1298.026921	709.75
1298.567054	709.25
1299.107131	708.25
1299.647152	712.0
1300.187116	705.75
1300.727025	709.5
1301.266877	708.25
1301.806673	702.25
1302.346413	712.0
1302.886097	708.25
1303.425725	703.75
1303.965297	709.0
1304.504812	707.25
1305.044272	709.25
1305.583675	705.0
1306.123022	705.0
1306.662313	705.75
1307.201548	705.75
1307.740727	703.5
1308.279849	705.5
1308.818916	701.25
1309.357926	703.25
1309.896881	703.5
1310.435779	695.5
1310.974621	696.0
1311.513407	702.5
1312.052137	700.25
1312.590811	701.75
1313.129429	699.75
1313.667991	700.25
1314.206497	699.5
1314.744946	699.25
1315.28334	696.25
1315.821678	697.0
1316.359959	695.75
1316.898184	696.0
1317.436354	697.5
1317.974467	693.0
1318.512525	698.0
1319.050526	698.25
1319.588471	690.75
1320.12636	692.25
1320.664194	697.75
1321.201971	693.25
1321.739692	696.5
1322.277357	697.5
1322.814967	694.25
1323.35252	697.5
1323.890017	695.0
1324.427458	693.25
1324.964843	690.0
1325.502173	696.25
1326.039446	695.0
1326.576663	694.25
1327.113824	696.5
1327.65093	694.5
1328.187979	692.5
1328.724972	692.0
1329.26191	695.75
1329.798791	691.75
1330.335617	695.5
1330.872386	696.75
1331.4091	691.75
1331.945758	688.75
1332.48236	695.25
1333.018905	691.5
1333.555395	693.5
1334.091829	692.0
1334.628207	692.75
1335.164529	693.25
1335.700796	689.75
1336.237006	695.5
1336.77316	692.5
1337.309259	697.0
1337.845301	689.25
1338.381288	692.5
1338.917219	690.75
1339.453094	690.0
1339.988913	693.0
1340.524676	696.5
1341.060383	691.0
1341.596034	691.5
1342.13163	695.0
1342.66717	695.5
1343.202653	693.75
1343.738081	689.25
1344.273453	696.5
1344.80877	693.25
1345.34403	693.5
1345.879235	691.75
1346.414383	687.25
1346.949476	691.75
1347.484513	695.75
1348.019494	692.75
1348.55442	694.25
1349.089289	694.75
1349.624103	691.75
1350.158861	691.75
1350.693563	689.0
1351.228209	695.75
1351.7628	691.25
1352.297334	692.5
1352.831813	693.25
1353.366236	690.75
1353.900604	691.5
1354.434915	698.0
1354.969171	691.25
1355.503371	688.25
1356.037515	693.5
1356.571604	698.0
1357.105636	691.0
1357.639613	691.25
1358.173535	690.75
1358.7074	696.25
1359.24121	690.25
1359.774964	691.5
1360.308662	692.75
1360.842304	695.5
1361.375891	688.75
1361.909422	695.0
1362.442897	691.5
1362.976317	693.0
1363.50968	689.5
1364.042989	691.75
1364.576241	693.75
1365.109438	692.0
1365.642579	694.75
1366.175664	692.25
1366.708693	699.0
1367.241667	691.5
1367.774585	693.5
1368.307448	693.75
1368.840255	690.75
1369.373006	698.0
1369.905701	695.0
1370.438341	698.5
1370.970925	703.5
1371.503454	694.0
1372.035926	694.0
1372.568344	693.75
1373.100705	693.5
1373.633011	692.25
1374.165261	692.75
1374.697456	693.25
1375.229595	700.0
1375.761678	693.25
1376.293705	695.75
1376.825677	692.75
1377.357594	693.5
1377.889455	694.25
1378.42126	694.75
1378.953009	693.75
1379.484703	693.75
1380.016342	693.25
1380.547924	692.25
1381.079452	693.75
1381.610923	691.5
1382.142339	690.0
1382.673699	693.5
1383.205004	694.0
1383.736253	695.75
1384.267447	694.25
1384.798585	689.75
1385.329668	693.0
1385.860695	698.75
1386.391666	699.75
1386.922582	699.25
1387.453442	701.5
1387.984247	712.0
1388.514996	794.5
1389.04569	1110.25
1389.576328	1059.75
1390.10691	763.0
1390.637437	710.25
1391.167909	700.75
1391.698325	698.0
1392.228685	697.75
1392.75899	694.0
1393.28924	693.0
1393.819434	698.0
1394.349572	694.75
1394.879655	698.5
1395.409683	692.0
1395.939655	691.25
1396.469571	693.0
1396.999432	695.0
1397.529237	693.25
1398.058987	691.5
1398.588682	695.5
1399.118321	694.0
1399.647905	694.25
1400.177433	694.5
1400.706906	691.25
1401.236323	693.75
1401.765685	696.25
1402.294991	694.75
1402.824242	692.5
1403.353437	690.0
1403.882577	691.0
1404.411662	690.75
1404.940691	693.5
1405.469665	687.5
1405.998583	692.75
1406.527446	692.0
1407.056253	690.0
1407.585005	695.0
1408.113702	693.25
1408.642343	694.25
1409.170929	695.75
1409.69946	700.5
1410.227935	723.0
1410.756354	733.5
1411.284719	706.0
1411.813028	697.25
1412.341281	693.5
1412.869479	690.75
1413.397622	694.5
1413.92571	695.5
1414.453742	693.5
1414.981718	691.25
1415.50964	702.0
1416.037506	694.25
1416.565316	691.75
1417.093072	692.0
1417.620772	692.25
1418.148416	695.75
1418.676005	694.5
1419.203539	695.25
1419.731018	691.75
1420.258441	688.5
1420.785809	692.5
1421.313122	693.0
1421.840379	689.75
1422.367582	689.25
1422.894728	694.0
1423.42182	689.5
1423.948856	695.25
1424.475837	691.5
1425.002762	692.25
1425.529633	692.25
1426.056448	693.75
1426.583207	688.5
1427.109912	692.75
1427.636561	693.0
1428.163155	694.25
1428.689694	690.0
1429.216177	695.25
1429.742605	691.25
1430.268978	692.25
1430.795296	690.75
1431.321558	692.25
1431.847765	691.25
1432.373917	691.0
1432.900014	695.0
1433.426056	695.0
1433.952042	694.25
1434.477973	692.75
1435.003849	691.0
1435.529669	696.25
1436.055435	694.0
1436.581145	691.75
1437.1068	692.75
1437.632399	693.0
1438.157944	694.75
1438.683433	694.75
1439.208868	693.75
1439.734247	690.0
1440.25957	695.5
1440.784839	697.25
1441.310053	693.5
1441.835211	692.75
1442.360314	695.5
1442.885362	694.5
1443.410355	691.0
1443.935292	693.75
1444.460175	697.0
1444.985002	692.75
1445.509774	696.75
1446.034491	697.25
1446.559153	698.5
1447.08376	699.75
1447.608312	693.25
1448.132808	695.5
1448.65725	695.0
1449.181636	695.0
1449.705967	697.0
1450.230243	699.5
1450.754464	695.75
1451.27863	697.25
1451.802741	694.5
1452.326797	694.5
1452.850797	694.75
1453.374743	697.5
1453.898633	701.5
1454.422468	692.75
1454.946249	697.25
1455.469974	690.75
1455.993644	696.75
1456.517259	697.5
1457.040819	692.25
1457.564324	697.75
1458.087773	694.75
1458.611168	692.25
1459.134508	695.5
1459.657793	695.5
1460.181022	698.0
1460.704197	691.75
1461.227316	698.25
1461.750381	691.75
1462.27339	694.25
1462.796345	692.25
1463.319244	692.75
1463.842089	691.75
1464.364878	694.5
1464.887613	693.0
1465.410292	685.5
1465.932916	691.0
1466.455486	694.0
1466.978	694.5
1467.50046	688.75
1468.022864	691.75
1468.545214	688.25
1469.067508	688.5
1469.589748	693.75
1470.111932	691.75
1470.634062	690.25
1471.156136	692.5
1471.678156	692.75
1472.20012	692.0
1472.72203	688.25
1473.243885	694.0
1473.765685	688.5
1474.28743	689.75
1474.80912	691.0
1475.330755	684.25
1475.852335	690.75
1476.37386	690.25
1476.89533	687.5
1477.416745	691.75
1477.938106	687.75
1478.459411	690.25
1478.980662	692.0
1479.501857	691.5
1480.022998	691.25
1480.544084	693.0
1481.065115	689.25
1481.586091	690.5
1482.107012	693.0
1482.627878	689.0
1483.14869	690.75
1483.669446	692.25
1484.190148	689.0
1484.710794	694.75
1485.231386	692.75
1485.751923	691.0
1486.272406	691.25
1486.792833	694.25
1487.313205	693.25
1487.833523	692.0
1488.353786	691.5
1488.873994	691.0
1489.394147	693.5
1489.914245	696.0
1490.434288	695.5
1490.954277	692.25
1491.474211	691.25
1491.99409	694.0
1492.513914	695.25
1493.033683	696.25
1493.553398	692.75
1494.073057	697.75
1494.592662	689.75
1495.112212	690.0
1495.631708	696.5
1496.151148	690.75
1496.670534	690.75
1497.189865	689.25
1497.709141	694.25
1498.228362	689.0
1498.747529	688.25
1499.266641	690.25
1499.785698	698.0
1500.3047	693.25
1500.823648	687.75
1501.34254	690.0
1501.861379	687.5
1502.380162	688.75
1502.89889	690.25
1503.417564	689.75
1503.936183	685.0
1504.454748	690.0
1504.973257	693.0
1505.491712	694.5
1506.010112	689.0
1506.528458	689.25
1507.046748	690.0
1507.564984	688.25
1508.083166	686.75
1508.601292	688.5
1509.119364	686.0
1509.637381	689.75
1510.155344	688.75
1510.673252	701.0
1511.191105	687.5
1511.708903	688.0
1512.226647	688.5
1512.744336	688.5
1513.261971	690.5
1513.77955	687.25
1514.297076	687.75
1514.814546	686.5
1515.331962	688.0
1515.849323	689.25
1516.366629	688.0
1516.883881	690.5
1517.401078	691.25
1517.918221	690.75
1518.435309	691.25
1518.952342	688.5
1519.469321	690.0
1519.986245	689.75
1520.503114	689.25
1521.019929	690.5
1521.536689	688.75
1522.053395	689.25
1522.570046	692.0
1523.086642	690.5
1523.603184	690.75
1524.119671	688.5
1524.636103	688.25
1525.152481	695.25
1525.668805	693.75
1526.185073	693.5
1526.701288	690.25
1527.217447	687.0
1527.733552	688.25
1528.249603	689.5
1528.765599	688.5
1529.28154	689.75
1529.797427	686.75
1530.313259	689.0
1530.829037	690.5
1531.34476	687.75
1531.860429	693.25
1532.376043	693.0
1532.891602	688.0
1533.407107	686.25
1533.922558	687.25
1534.437954	690.0
1534.953295	687.0
1535.468582	692.0
1535.983815	690.0
1536.498993	688.25
1537.014116	687.0
1537.529185	683.75
1538.044199	688.25
1538.559159	689.5
1539.074064	687.25
1539.588915	690.5
1540.103712	687.25
1540.618454	689.0
1541.133141	692.0
1541.647774	688.0
1542.162353	688.25
1542.676877	687.25
1543.191346	689.75
1543.705761	687.75
1544.220122	685.5
1544.734428	688.0
1545.24868	690.0
1545.762877	682.75
1546.27702	690.25
1546.791109	688.5
1547.305143	688.75
1547.819122	691.0
1548.333047	694.0
1548.846918	686.75
1549.360734	692.5
1549.874496	692.75
1550.388204	687.5
1550.901857	686.25
1551.415455	695.5
1551.929	688.0
1552.442489	691.5
1552.955925	686.75
1553.469306	691.5
1553.982632	690.0
1554.495905	689.25
1555.009123	689.75
1555.522286	685.75
1556.035395	689.75
1556.54845	692.0
1557.06145	684.5
1557.574396	695.5
1558.087288	691.25
1558.600125	687.0
1559.112908	691.5
1559.625637	690.75
1560.138311	687.75
1560.650931	691.25
1561.163497	691.25
1561.676008	687.5
1562.188465	688.75
1562.700867	688.0
1563.213216	693.0
1563.725509	687.5
1564.237749	690.5
1564.749934	691.25
1565.262065	688.0
1565.774142	690.5
1566.286164	689.5
1566.798132	689.0
1567.310046	687.75
1567.821906	691.25
1568.333711	689.25
1568.845462	692.5
1569.357158	689.5
1569.868801	694.5
1570.380389	694.0
1570.891922	690.0
1571.403402	688.5
1571.914827	688.0
1572.426198	692.0
1572.937515	689.5
1573.448777	693.25
1573.959985	689.25
1574.471139	692.75
1574.982239	692.75
1575.493285	695.0
1576.004276	692.5
1576.515213	694.75
1577.026096	699.25
1577.536924	696.25
1578.047698	698.5
1578.558419	696.5
1579.069084	698.25
1579.579696	706.5
1580.090254	701.5
1580.600757	702.25
1581.111206	699.25
1581.621601	706.75
1582.131941	703.75
1582.642228	701.5
1583.15246	702.5
1583.662638	704.25
1584.172762	698.75
1584.682832	699.25
1585.192847	698.5
1585.702809	694.75
1586.212716	694.0
1586.722569	695.25
1587.232368	693.75
1587.742113	697.5
1588.251803	695.75
1588.76144	695.25
1589.271022	695.75
1589.78055	694.25
1590.290024	691.75
1590.799444	695.0
1591.30881	694.25
1591.818121	694.5
1592.327379	691.5
