1042.414189	764.0
1042.980685	769.0
1043.547124	758.75
1044.113505	765.5
1044.679828	757.75
1045.246093	759.25
1045.8123	759.5
1046.378449	759.5
1046.94454	760.0
1047.510573	753.75
1048.076548	753.25
1048.642465	753.75
1049.208325	754.75
1049.774126	744.75
1050.339869	749.0
1050.905555	750.0
1051.471183	747.25
1052.036752	747.0
1052.602264	742.75
1053.167718	746.0
1053.733114	741.5
1054.298452	734.0
1054.863733	737.75
1055.428955	732.0
1055.994119	735.25
1056.559226	740.5
1057.124275	740.0
1057.689266	734.25
1058.254199	737.75
1058.819074	730.75
1059.383891	733.75
1059.94865	735.0
1060.513352	728.5
1061.077996	731.25
1061.642582	734.25
1062.20711	733.75
1062.77158	733.25
1063.335992	734.0
1063.900347	734.0
1064.464643	726.25
1065.028882	728.0
1065.593063	733.0
1066.157187	728.5
1066.721252	723.5
1067.28526	733.25
1067.84921	730.5
1068.413102	722.5
1068.976936	730.0
1069.540713	729.0
1070.104431	740.0
1070.668092	732.25
1071.231696	726.0
1071.795241	722.25
1072.358729	728.0
1072.922159	722.5
1073.485531	728.75
1074.048845	725.75
1074.612102	721.75
1075.175301	724.75
1075.738442	727.5
1076.301525	734.0
1076.864551	721.5
1077.427519	726.0
1077.990429	721.5
1078.553281	731.0
1079.116076	725.5
1079.678813	724.5
1080.241492	726.75
1080.804114	721.0
1081.366678	723.5
1081.929184	726.75
1082.491633	724.75
1083.054024	727.0
1083.616357	724.5
1084.178632	726.0
1084.74085	717.75
1085.30301	722.5
1085.865113	722.5
1086.427158	724.25
1086.989145	720.0
1087.551074	727.0
1088.112946	724.0
1088.67476	723.5
1089.236517	718.75
1089.798216	722.0
1090.359857	718.25
1090.92144	719.25
1091.482966	727.25
1092.044435	715.25
1092.605845	722.0
1093.167199	715.75
1093.728494	716.5
1094.289732	717.25
1094.850912	714.75
1095.412035	730.5
1095.9731	716.75
1096.534107	715.5
1097.095057	723.0
1097.65595	717.5
1098.216784	712.25
1098.777561	715.25
1099.338281	721.75
1099.898943	715.0
1100.459547	716.25
1101.020094	712.75
1101.580584	714.5
1102.141015	713.75
1102.701389	717.75
1103.261706	714.75
1103.821965	712.25
1104.382167	715.75
1104.942311	716.5
1105.502397	711.0
1106.062426	718.75
1106.622398	713.75
1107.182312	711.0
1107.742168	713.5
1108.301967	709.25
1108.861708	712.75
1109.421392	714.5
1109.981019	714.25
1110.540587	709.5
1111.100099	712.0
1111.659553	709.75
1112.218949	714.25
1112.778288	714.25
1113.33757	717.0
1113.896794	709.0
1114.45596	714.75
1115.015069	708.5
1115.574121	710.5
1116.133115	717.0
1116.692052	711.0
1117.250931	707.0
1117.809753	707.5
1118.368517	709.25
1118.927224	706.5
1119.485873	710.5
1120.044465	709.25
1120.603	708.25
1121.161477	714.25
1121.719897	708.0
1122.278259	707.0
1122.836564	702.75
1123.394812	707.75
1123.953002	705.5
1124.511135	705.5
1125.06921	708.0
1125.627228	709.5
1126.185189	710.25
1126.743092	708.75
1127.300938	706.75
1127.858726	709.25
1128.416457	706.0
1128.974131	705.5
1129.531748	708.25
1130.089307	705.5
1130.646808	707.25
1131.204252	710.75
1131.761639	708.0
1132.318969	705.25
1132.876241	713.5
1133.433456	708.25
1133.990614	707.0
1134.547714	704.5
1135.104757	709.5
1135.661743	705.5
1136.218671	708.75
1136.775542	706.5
1137.332356	705.25
1137.889112	708.75
1138.445811	708.0
1139.002453	705.75
1139.559037	704.5
1140.115565	705.5
1140.672035	706.25
1141.228447	706.25
1141.784803	701.75
1142.341101	706.25
1142.897342	705.0
1143.453525	705.0
1144.009651	708.5
1144.565721	704.25
1145.121732	703.5
1145.677687	706.25
1146.233584	708.0
1146.789424	706.25
1147.345207	707.0
1147.900933	709.0
1148.456601	703.25
1149.012212	702.5
1149.567766	704.25
1150.123263	703.25
1150.678702	708.0
1151.234085	701.75
1151.78941	700.75
1152.344678	700.0
1152.899888	699.75
1153.455042	703.25
1154.010138	705.25
1154.565177	702.25
1155.120159	702.25
1155.675084	704.5
1156.229951	703.5
1156.784762	701.5
1157.339515	702.25
1157.894211	702.5
1158.44885	699.5
1159.003432	701.0
1159.557956	700.0
1160.112424	703.5
1160.666834	707.25
1161.221187	705.5
1161.775483	701.5
1162.329722	705.75
1162.883904	704.75
1163.438029	706.5
1163.992096	706.0
1164.546107	702.75
1165.10006	703.5
1165.653956	702.75
1166.207795	701.75
1166.761577	702.25
1167.315302	702.75
1167.86897	699.5
1168.422581	700.0
1168.976134	701.25
1169.529631	700.0
1170.08307	706.75
1170.636453	696.75
1171.189778	702.0
1171.743046	701.0
1172.296257	703.0
1172.849412	702.75
1173.402509	705.0
1173.955549	697.75
1174.508532	699.75
1175.061458	699.0
1175.614327	699.75
1176.167138	699.75
1176.719893	701.25
1177.272591	701.5
1177.825232	697.25
1178.377816	699.5
1178.930342	697.25
1179.482812	698.75
1180.035225	700.0
1180.587581	698.5
1181.139879	701.0
1181.692121	694.25
1182.244306	698.25
1182.796434	698.75
1183.348504	700.0
1183.900518	699.5
1184.452475	700.5
1185.004375	702.5
1185.556218	694.75
1186.108004	701.0
1186.659733	693.5
1187.211405	693.25
1187.76302	695.25
1188.314578	697.75
1188.866079	700.75
1189.417523	697.25
1189.96891	696.5
1190.520241	698.25
1191.071514	698.0
1191.622731	699.0
1192.17389	700.5
1192.724993	698.75
1193.276039	716.75
1193.827027	696.5
1194.377959	697.25
1194.928834	698.0
1195.479653	699.5
1196.030414	697.5
1196.581118	697.0
1197.131766	693.0
1197.682356	695.25
1198.23289	699.25
1198.783367	699.75
1199.333786	699.5
1199.88415	699.0
1200.434456	697.0
1200.984705	693.5
1201.534898	700.25
1202.085033	697.25
1202.635112	697.75
1203.185134	701.25
1203.735099	696.75
1204.285007	694.5
1204.834859	697.25
1205.384653	697.0
1205.934391	699.75
1206.484072	695.25
1207.033696	700.5
1207.583263	696.75
1208.132774	700.25
1208.682228	691.0
1209.231624	696.75
1209.780965	699.0
1210.330248	699.5
1210.879474	694.25
1211.428644	699.5
1211.977757	697.75
1212.526813	693.25
1213.075813	702.25
1213.624755	693.75
1214.173641	698.5
1214.72247	695.25
1215.271242	694.5
1215.819958	701.0
1216.368617	695.5
1216.917219	698.0
1217.465764	697.0
1218.014253	699.5
1218.562685	696.25
1219.11106	694.0
1219.659378	696.25
1220.20764	696.0
1220.755845	694.25
1221.303993	695.25
1221.852085	696.25
1222.400119	693.0
1222.948097	697.25
1223.496019	693.5
1224.043883	696.25
1224.591691	697.5
1225.139443	696.75
1225.687137	698.5
1226.234775	696.75
1226.782357	697.5
1227.329881	697.25
1227.877349	696.0
1228.42476	697.0
1228.972115	693.0
1229.519413	694.75
1230.066654	693.0
1230.613839	696.5
1231.160967	699.25
1231.708038	695.5
1232.255053	697.0
1232.802011	693.5
1233.348912	694.5
1233.895757	690.5
1234.442545	700.25
1234.989277	697.75
1235.535951	696.25
1236.08257	697.0
1236.629131	692.5
1237.175636	692.25
1237.722085	689.5
1238.268477	696.5
1238.814812	697.5
1239.361091	695.75
1239.907313	692.25
1240.453478	697.25
1240.999587	695.5
1241.54564	698.75
1242.091636	696.75
1242.637575	694.0
1243.183457	697.25
1243.729284	695.25
1244.275053	699.25
1244.820766	698.25
1245.366423	696.75
1245.912022	698.0
1246.457566	697.25
1247.003053	694.75
1247.548483	693.25
1248.093857	696.75
1248.639174	692.0
1249.184435	698.25
1249.729639	698.0
1250.274787	695.5
1250.819878	696.5
1251.364912	697.25
1251.909891	695.5
1252.454812	693.5
1252.999677	698.25
1253.544486	696.5
1254.089238	693.0
1254.633934	692.5
1255.178573	694.75
1255.723156	691.25
1256.267682	697.5
1256.812152	693.0
1257.356565	695.75
1257.900922	692.0
1258.445223	694.5
1258.989467	693.0
1259.533654	695.5
1260.077785	708.5
1260.62186	695.25
1261.165878	692.5
1261.70984	698.75
1262.253745	690.75
1262.797594	697.75
1263.341386	699.0
1263.885123	697.25
1264.428802	698.75
1264.972425	695.0
1265.515992	709.0
1266.059503	725.75
1266.602957	702.25
1267.146354	699.5
1267.689696	696.0
1268.23298	692.0
1268.776209	696.0
1269.319381	694.25
1269.862497	694.5
1270.405556	697.0
1270.948559	699.5
1271.491506	695.25
1272.034396	697.25
1272.57723	695.0
1273.120007	698.5
1273.662728	698.25
1274.205393	694.5
1274.748002	694.5
1275.290554	698.5
1275.83305	697.25
1276.375489	693.25
1276.917872	697.0
1277.460199	699.75
1278.00247	696.25
1278.544684	695.75
1279.086842	695.25
1279.628943	696.75
1280.170989	693.75
1280.712978	698.5
1281.25491	698.25
1281.796787	694.0
1282.338607	696.25
1282.880371	699.5
1283.422078	694.25
1283.963729	696.5
1284.505324	699.25
1285.046863	706.25
1285.588345	748.5
1286.129772	964.5
1286.671142	1005.75
1287.212455	758.75
1287.753713	702.75
1288.294914	699.0
1288.836059	697.0
1289.377147	697.25
1289.91818	695.5
1290.459156	692.75
1291.000076	694.75
1291.54094	694.75
1292.081747	692.25
1292.622499	694.25
1293.163194	697.5
1293.703833	692.25
1294.244415	697.5
1294.784942	697.0
1295.325412	700.5
1295.865826	692.0
1296.406184	692.0
1296.946486	694.5
1297.486731	698.5
1298.026921	691.0
1298.567054	690.25
1299.107131	697.5
1299.647152	699.5
1300.187116	694.0
1300.727025	694.0
1301.266877	699.25
1301.806673	696.25
1302.346413	696.0
1302.886097	693.25
1303.425725	696.0
1303.965297	697.5
1304.504812	693.0
1305.044272	694.5
1305.583675	699.5
1306.123022	690.75
1306.662313	697.5
1307.201548	693.25
1307.740727	697.5
1308.279849	697.5
1308.818916	696.0
1309.357926	692.5
1309.896881	697.75
1310.435779	696.0
1310.974621	694.0
1311.513407	691.25
1312.052137	695.25
1312.590811	694.75
1313.129429	695.0
1313.667991	697.25
1314.206497	694.0
1314.744946	697.25
1315.28334	696.5
1315.821678	690.0
1316.359959	695.25
1316.898184	693.25
1317.436354	698.25
1317.974467	693.25
1318.512525	694.25
1319.050526	690.75
1319.588471	690.75
1320.12636	694.0
1320.664194	689.0
1321.201971	690.5
1321.739692	694.0
1322.277357	692.0
1322.814967	691.75
1323.35252	690.25
1323.890017	700.25
1324.427458	695.75
1324.964843	694.25
1325.502173	689.5
1326.039446	694.5
1326.576663	693.0
1327.113824	692.25
1327.65093	693.25
1328.187979	693.25
1328.724972	689.25
1329.26191	697.0
1329.798791	694.5
1330.335617	693.0
1330.872386	695.0
1331.4091	698.25
1331.945758	696.0
1332.48236	691.25
1333.018905	698.75
1333.555395	695.75
1334.091829	694.5
1334.628207	693.0
1335.164529	695.5
1335.700796	694.75
1336.237006	698.0
1336.77316	694.0
1337.309259	695.25
1337.845301	691.25
1338.381288	692.0
1338.917219	693.5
1339.453094	697.75
1339.988913	688.5
1340.524676	691.25
1341.060383	692.25
1341.596034	697.5
1342.13163	687.75
1342.66717	690.75
1343.202653	696.25
1343.738081	694.75
1344.273453	693.5
1344.80877	692.75
1345.34403	692.75
1345.879235	696.25
1346.414383	689.5
1346.949476	691.75
1347.484513	696.25
1348.019494	695.0
1348.55442	693.0
1349.089289	693.75
1349.624103	692.0
1350.158861	695.25
1350.693563	692.25
1351.228209	690.25
1351.7628	695.0
1352.297334	695.75
1352.831813	695.25
1353.366236	697.25
1353.900604	691.5
1354.434915	694.0
1354.969171	692.5
1355.503371	694.0
1356.037515	692.25
1356.571604	692.5
1357.105636	692.5
1357.639613	695.75
1358.173535	690.25
1358.7074	694.25
1359.24121	692.0
1359.774964	697.25
1360.308662	693.75
1360.842304	690.25
1361.375891	694.0
1361.909422	693.25
1362.442897	697.75
1362.976317	696.5
1363.50968	693.0
1364.042989	694.0
1364.576241	696.5
1365.109438	693.5
1365.642579	693.25
1366.175664	699.0
1366.708693	690.0
1367.241667	692.5
1367.774585	692.75
1368.307448	696.0
1368.840255	689.5
1369.373006	695.75
1369.905701	693.75
1370.438341	694.75
1370.970925	705.25
1371.503454	695.25
1372.035926	692.5
1372.568344	694.0
1373.100705	691.75
1373.633011	696.75
1374.165261	697.25
1374.697456	694.25
1375.229595	689.25
1375.761678	688.25
1376.293705	696.25
1376.825677	696.0
1377.357594	695.0
1377.889455	689.0
1378.42126	695.0
1378.953009	688.75
1379.484703	695.5
1380.016342	690.75
1380.547924	690.5
1381.079452	694.25
1381.610923	695.75
1382.142339	692.0
1382.673699	695.5
1383.205004	697.0
1383.736253	692.75
1384.267447	695.5
1384.798585	697.0
1385.329668	694.5
1385.860695	696.75
1386.391666	698.0
1386.922582	697.25
1387.453442	694.75
1387.984247	703.5
1388.514996	736.75
1389.04569	984.0
1389.576328	1264.75
1390.10691	825.5
1390.637437	711.75
1391.167909	697.0
1391.698325	696.75
1392.228685	697.0
1392.75899	699.75
1393.28924	692.5
1393.819434	696.75
1394.349572	687.5
1394.879655	692.5
1395.409683	694.0
1395.939655	693.75
1396.469571	690.5
1396.999432	692.0
1397.529237	693.25
1398.058987	693.0
1398.588682	687.5
1399.118321	689.75
1399.647905	691.5
1400.177433	690.0
1400.706906	693.5
1401.236323	692.25
1401.765685	694.25
1402.294991	691.75
1402.824242	689.75
1403.353437	692.0
1403.882577	693.0
1404.411662	691.0
1404.940691	695.25
1405.469665	693.0
1405.998583	694.0
1406.527446	692.0
1407.056253	692.25
1407.585005	693.75
1408.113702	697.5
1408.642343	694.0
1409.170929	696.0
1409.69946	699.0
1410.227935	714.0
1410.756354	749.5
1411.284719	717.75
1411.813028	700.5
1412.341281	696.75
1412.869479	692.75
1413.397622	697.75
1413.92571	689.5
1414.453742	696.0
1414.981718	693.75
1415.50964	707.25
1416.037506	691.25
1416.565316	693.25
1417.093072	691.75
1417.620772	693.25
1418.148416	695.75
1418.676005	694.0
1419.203539	697.5
1419.731018	690.25
1420.258441	699.75
1420.785809	697.25
1421.313122	694.5
1421.840379	694.0
1422.367582	693.0
1422.894728	693.0
1423.42182	694.25
1423.948856	696.75
1424.475837	690.75
1425.002762	691.25
1425.529633	693.25
1426.056448	690.75
1426.583207	698.5
1427.109912	692.5
1427.636561	696.75
1428.163155	694.25
1428.689694	692.5
1429.216177	695.75
1429.742605	692.75
1430.268978	692.75
1430.795296	695.75
1431.321558	691.5
1431.847765	694.5
1432.373917	692.0
1432.900014	691.5
1433.426056	694.25
1433.952042	691.5
1434.477973	695.75
1435.003849	695.5
1435.529669	691.5
1436.055435	694.75
1436.581145	691.25
1437.1068	693.0
1437.632399	696.75
1438.157944	697.5
1438.683433	690.5
1439.208868	695.5
1439.734247	689.75
1440.25957	692.75
1440.784839	692.25
1441.310053	690.25
1441.835211	693.0
1442.360314	694.25
1442.885362	691.0
1443.410355	695.75
1443.935292	688.75
1444.460175	692.25
1444.985002	692.5
1445.509774	696.5
1446.034491	693.5
1446.559153	692.0
1447.08376	691.75
1447.608312	693.5
1448.132808	692.5
1448.65725	694.5
1449.181636	693.0
1449.705967	693.0
1450.230243	692.25
1450.754464	693.0
1451.27863	694.75
1451.802741	695.25
1452.326797	694.25
1452.850797	690.5
1453.374743	691.25
1453.898633	696.5
1454.422468	693.75
1454.946249	691.5
1455.469974	692.5
1455.993644	695.5
1456.517259	693.5
1457.040819	693.0
1457.564324	696.25
1458.087773	694.5
1458.611168	692.5
1459.134508	693.25
1459.657793	690.0
1460.181022	698.25
1460.704197	689.75
1461.227316	690.75
1461.750381	694.0
1462.27339	692.25
1462.796345	696.0
1463.319244	695.75
1463.842089	690.5
1464.364878	694.25
1464.887613	692.5
1465.410292	694.75
1465.932916	693.0
1466.455486	692.25
1466.978	694.5
1467.50046	688.5
1468.022864	690.25
1468.545214	691.0
1469.067508	691.25
1469.589748	690.0
1470.111932	696.0
1470.634062	689.25
1471.156136	697.75
1471.678156	692.75
1472.20012	693.25
1472.72203	691.25
1473.243885	695.25
1473.765685	690.5
1474.28743	691.0
1474.80912	696.0
1475.330755	687.5
1475.852335	688.0
1476.37386	696.5
1476.89533	690.5
1477.416745	693.0
1477.938106	690.25
1478.459411	690.25
1478.980662	691.5
1479.501857	693.0
1480.022998	694.0
1480.544084	690.75
1481.065115	690.5
1481.586091	688.75
1482.107012	687.75
1482.627878	695.5
1483.14869	694.5
1483.669446	694.0
1484.190148	690.25
1484.710794	688.0
1485.231386	691.25
1485.751923	691.25
1486.272406	689.75
1486.792833	690.0
1487.313205	691.0
1487.833523	688.75
1488.353786	693.25
1488.873994	695.5
1489.394147	688.75
1489.914245	688.25
1490.434288	696.25
1490.954277	693.25
1491.474211	692.0
1491.99409	688.75
1492.513914	688.75
1493.033683	691.5
1493.553398	695.5
1494.073057	692.25
1494.592662	693.75
1495.112212	691.25
1495.631708	691.5
1496.151148	690.75
1496.670534	692.5
1497.189865	690.75
1497.709141	691.5
1498.228362	690.75
1498.747529	692.0
1499.266641	694.25
1499.785698	701.25
1500.3047	690.25
1500.823648	693.25
1501.34254	691.25
1501.861379	690.75
1502.380162	692.0
1502.89889	688.0
1503.417564	686.25
1503.936183	692.5
1504.454748	688.0
1504.973257	690.25
1505.491712	692.25
1506.010112	689.75
1506.528458	689.5
1507.046748	695.25
1507.564984	692.0
1508.083166	690.5
1508.601292	686.5
1509.119364	691.0
1509.637381	691.0
1510.155344	694.0
1510.673252	702.0
1511.191105	693.25
1511.708903	688.75
1512.226647	691.25
1512.744336	694.0
1513.261971	689.25
1513.77955	692.25
1514.297076	691.25
1514.814546	687.25
1515.331962	693.25
1515.849323	687.0
1516.366629	693.5
1516.883881	691.75
1517.401078	689.5
1517.918221	688.75
1518.435309	691.25
1518.952342	692.25
1519.469321	692.5
1519.986245	687.25
1520.503114	693.0
1521.019929	691.5
1521.536689	690.0
1522.053395	691.0
1522.570046	691.0
1523.086642	690.5
1523.603184	693.75
1524.119671	691.5
1524.636103	690.75
1525.152481	692.5
1525.668805	690.0
1526.185073	691.25
1526.701288	691.0
1527.217447	693.75
1527.733552	688.25
1528.249603	688.5
1528.765599	689.25
1529.28154	695.25
1529.797427	693.0
1530.313259	691.25
1530.829037	686.25
1531.34476	690.0
1531.860429	690.0
1532.376043	689.25
1532.891602	691.75
1533.407107	688.0
1533.922558	691.75
1534.437954	690.25
1534.953295	690.5
1535.468582	690.75
1535.983815	693.75
1536.498993	691.75
1537.014116	689.0
1537.529185	691.0
1538.044199	689.75
1538.559159	692.5
1539.074064	690.0
1539.588915	690.75
1540.103712	685.5
1540.618454	691.25
1541.133141	688.5
1541.647774	683.25
1542.162353	688.0
1542.676877	691.5
1543.191346	693.0
1543.705761	692.25
1544.220122	688.5
1544.734428	686.5
1545.24868	693.0
1545.762877	691.25
1546.27702	690.5
1546.791109	692.5
1547.305143	695.0
1547.819122	694.75
1548.333047	690.25
1548.846918	690.25
1549.360734	691.25
1549.874496	690.75
1550.388204	690.0
1550.901857	693.0
1551.415455	688.75
1551.929	689.0
1552.442489	692.75
1552.955925	688.0
1553.469306	693.75
1553.982632	687.25
1554.495905	695.75
1555.009123	693.0
1555.522286	694.75
1556.035395	692.5
1556.54845	694.75
1557.06145	690.5
1557.574396	692.75
1558.087288	690.5
1558.600125	693.25
1559.112908	693.0
1559.625637	691.25
1560.138311	688.75
1560.650931	690.0
1561.163497	692.25
1561.676008	687.25
1562.188465	694.5
1562.700867	690.75
1563.213216	691.25
1563.725509	687.0
1564.237749	687.0
1564.749934	691.0
1565.262065	688.25
1565.774142	691.0
1566.286164	691.25
1566.798132	692.25
1567.310046	693.0
1567.821906	693.0
1568.333711	688.0
1568.845462	690.5
1569.357158	694.75
1569.868801	690.25
1570.380389	691.0
1570.891922	692.25
1571.403402	690.75
1571.914827	695.25
1572.426198	691.25
1572.937515	690.5
1573.448777	693.5
1573.959985	690.0
1574.471139	688.75
1574.982239	693.25
1575.493285	692.0
1576.004276	695.0
1576.515213	690.25
1577.026096	694.25
1577.536924	692.0
1578.047698	692.25
1578.558419	694.0
1579.069084	691.5
1579.579696	694.0
1580.090254	689.25
1580.600757	691.0
1581.111206	695.25
1581.621601	689.5
1582.131941	691.5
1582.642228	689.75
1583.15246	686.75
1583.662638	691.0
1584.172762	689.25
1584.682832	692.25
1585.192847	691.75
1585.702809	696.0
1586.212716	693.75
1586.722569	695.25
1587.232368	691.0
1587.742113	692.0
1588.251803	695.0
1588.76144	690.75
1589.271022	690.25
1589.78055	693.0
1590.290024	690.5
1590.799444	692.5
1591.30881	688.25
1591.818121	693.25
