1042.414189	794.25
1042.980685	792.5
1043.547124	791.75
1044.113505	804.75
1045.246093	783.5
1045.8123	779.0
1046.378449	775.75
1046.94454	784.25
1047.510573	779.75
1048.076548	779.75
1048.642465	771.25
1049.208325	772.0
1049.774126	772.25
1050.339869	774.25
1050.905555	764.75
1051.471183	765.5
1052.036752	756.5
1052.602264	760.0
1053.167718	758.0
1053.733114	757.0
1054.298452	754.5
1054.863733	758.5
1055.428955	751.75
1055.994119	752.5
1056.559226	749.5
1057.124275	753.0
1057.689266	750.25
1058.254199	746.25
1058.819074	749.25
1059.383891	744.75
1059.94865	750.25
1060.513352	750.25
1061.077996	751.0
1061.642582	744.25
1062.20711	747.25
1062.77158	745.75
1063.335992	739.75
1063.900347	744.25
1064.464643	744.5
1065.028882	748.25
1065.593063	740.75
1066.157187	743.0
1066.721252	741.25
1067.28526	741.0
1067.84921	752.75
1068.413102	742.0
1068.976936	745.5
1069.540713	741.5
1070.104431	751.75
1070.668092	736.75
1071.231696	739.5
1071.795241	738.5
1072.358729	735.5
1072.922159	741.5
1073.485531	738.75
1074.048845	735.5
1074.612102	739.75
1075.175301	738.5
1075.738442	739.25
1076.301525	740.0
1076.864551	738.25
1077.427519	733.75
1077.990429	732.5
1078.553281	738.5
1079.116076	730.25
1079.678813	739.25
1080.241492	736.5
1080.804114	742.75
1081.366678	736.0
1081.929184	728.25
1082.491633	733.75
1083.054024	735.5
1083.616357	737.25
1084.178632	734.5
1084.74085	727.75
1085.30301	732.5
1085.865113	728.25
1086.427158	733.0
1086.989145	735.5
1087.551074	738.5
1088.112946	735.0
1088.67476	734.5
1089.236517	734.0
1089.798216	729.0
1090.359857	733.25
1090.92144	732.75
1091.482966	728.5
1092.044435	734.5
1092.605845	731.5
1093.167199	725.75
1093.728494	723.5
1094.289732	731.75
1094.850912	732.75
1095.412035	741.75
1095.9731	729.0
1096.534107	727.0
1097.095057	735.25
1097.65595	728.5
1098.216784	724.5
1098.777561	729.5
1099.338281	732.0
1099.898943	726.5
1100.459547	728.5
1101.020094	729.0
1101.580584	724.75
1102.141015	726.5
1102.701389	727.5
1103.261706	720.0
1103.821965	726.0
1104.382167	721.5
1104.942311	723.75
1105.502397	729.75
1106.062426	722.5
1106.622398	729.25
1107.182312	728.5
1107.742168	719.75
1108.301967	724.5
1108.861708	722.75
1109.421392	723.25
1109.981019	726.5
1110.540587	727.0
1111.100099	723.75
1111.659553	721.75
1112.218949	731.0
1112.778288	727.0
1113.33757	723.25
1113.896794	722.0
1114.45596	724.25
1115.015069	720.75
1115.574121	723.75
1116.133115	722.5
1116.692052	727.25
1117.250931	716.25
1117.809753	723.25
1118.368517	724.75
1118.927224	720.75
1119.485873	720.75
1120.044465	720.0
1120.603	719.25
1121.161477	720.5
1121.719897	718.75
1122.278259	721.0
1122.836564	719.25
1123.394812	723.75
1123.953002	715.5
1124.511135	722.5
1125.06921	717.75
1125.627228	718.25
1126.185189	720.25
1126.743092	716.0
1127.300938	719.25
1127.858726	721.75
1128.416457	714.75
1128.974131	721.0
1129.531748	722.25
1130.089307	715.25
1130.646808	720.25
1131.204252	722.5
1131.761639	719.75
1132.318969	723.0
1132.876241	715.75
1133.433456	720.75
1133.990614	715.5
1134.547714	714.25
1135.104757	718.75
1135.661743	714.75
1136.218671	716.75
1136.775542	717.75
1137.332356	722.0
1137.889112	718.25
1138.445811	718.25
1139.002453	718.0
1139.559037	715.75
1140.115565	715.0
1140.672035	711.75
1141.228447	713.25
1141.784803	717.25
1142.341101	720.5
1142.897342	720.0
1143.453525	717.25
1144.009651	717.75
1144.565721	716.25
1145.121732	714.0
1145.677687	720.0
1146.233584	723.5
1146.789424	714.75
1147.345207	716.25
1147.900933	717.25
1148.456601	711.75
1149.012212	715.25
1149.567766	719.0
1150.123263	717.25
1150.678702	714.5
1151.234085	720.0
1151.78941	720.5
1152.344678	714.75
1152.899888	716.75
1153.455042	712.0
1154.010138	721.75
1154.565177	717.25
1155.120159	720.5
1155.675084	715.5
1156.229951	715.5
1156.784762	710.75
1157.339515	717.25
1157.894211	715.0
1158.44885	718.5
1159.003432	714.25
1159.557956	714.5
1160.112424	715.25
1160.666834	714.25
1161.221187	720.25
1161.775483	715.25
1162.329722	717.25
1162.883904	713.5
1163.438029	717.5
1163.992096	717.0
1164.546107	716.25
1165.10006	720.0
1165.653956	715.0
1166.207795	715.75
1166.761577	715.75
1167.315302	717.0
1167.86897	715.25
1168.422581	713.0
1168.976134	714.5
1169.529631	716.5
1170.08307	718.75
1170.636453	710.5
1171.189778	718.5
1171.743046	718.0
1172.296257	713.0
1172.849412	711.75
1173.402509	717.5
1173.955549	714.25
1174.508532	712.25
1175.061458	711.5
1175.614327	709.5
1176.167138	705.0
1176.719893	712.25
1177.272591	714.75
1177.825232	709.5
1178.377816	710.75
1178.930342	710.25
1179.482812	712.75
1180.035225	711.75
1180.587581	709.0
1181.139879	714.0
1181.692121	711.5
1182.244306	716.75
1182.796434	710.0
1183.348504	710.0
1183.900518	706.75
1184.452475	707.75
1185.004375	710.25
1185.556218	712.75
1186.108004	706.0
1186.659733	708.25
1187.211405	713.25
1187.76302	707.75
1188.314578	710.0
1188.866079	711.25
1189.417523	710.5
1189.96891	710.0
1190.520241	709.0
1191.071514	703.5
1191.622731	709.0
1192.17389	710.0
1192.724993	705.25
1193.276039	729.0
1193.827027	707.75
1194.377959	704.5
1194.928834	708.5
1195.479653	714.25
1196.030414	710.0
1196.581118	713.5
1197.131766	708.75
1197.682356	704.5
1198.23289	710.25
1198.783367	709.0
1199.333786	708.0
1199.88415	706.5
1200.434456	708.25
1200.984705	705.0
1201.534898	708.0
1202.085033	707.5
1202.635112	701.0
1203.185134	706.5
1203.735099	708.0
1204.285007	711.75
1204.834859	703.5
1205.384653	706.25
1205.934391	705.0
1206.484072	706.5
1207.033696	705.25
1207.583263	706.25
1208.132774	705.75
1208.682228	707.75
1209.231624	703.25
1209.780965	703.75
1210.330248	706.0
1210.879474	709.75
1211.428644	709.0
1211.977757	704.25
1212.526813	707.25
1213.075813	707.5
1213.624755	706.75
1214.173641	708.25
1214.72247	710.75
1215.271242	705.0
1215.819958	706.25
1216.368617	704.5
1216.917219	704.25
1217.465764	713.5
1218.014253	703.0
1218.562685	707.5
1219.11106	708.25
1219.659378	706.0
1220.20764	705.5
1220.755845	704.0
1221.303993	707.5
1221.852085	713.5
1222.400119	706.0
1222.948097	713.0
1223.496019	707.75
1224.043883	704.25
1224.591691	710.0
1225.139443	699.5
1225.687137	704.0
1226.234775	710.0
1226.782357	706.75
1227.329881	702.75
1227.877349	706.25
1228.42476	704.5
1228.972115	711.25
1229.519413	702.25
1230.066654	704.25
1230.613839	706.0
1231.160967	702.25
1231.708038	706.75
1232.255053	706.25
1232.802011	700.0
1233.348912	704.75
1233.895757	710.5
1234.442545	702.75
1234.989277	703.5
1235.535951	701.5
1236.08257	710.5
1236.629131	704.25
1237.175636	699.0
1237.722085	709.25
1238.268477	705.25
1238.814812	705.25
1239.361091	705.0
1239.907313	706.75
1240.453478	706.25
1240.999587	706.0
1241.54564	705.0
1242.091636	702.75
1242.637575	705.5
1243.183457	705.25
1243.729284	700.75
1244.275053	702.75
1244.820766	710.75
1245.366423	708.0
1245.912022	708.25
1246.457566	703.0
1247.003053	705.0
1247.548483	705.0
1248.093857	710.0
1248.639174	701.25
1249.184435	710.0
1249.729639	704.5
1250.274787	708.5
1250.819878	707.0
1251.364912	706.5
1251.909891	704.5
1252.454812	706.5
1252.999677	706.75
1253.544486	705.5
1254.089238	701.0
1254.633934	704.0
1255.178573	702.5
1255.723156	701.0
1256.267682	710.25
1256.812152	708.0
1257.356565	706.0
1257.900922	706.25
1258.445223	709.25
1258.989467	709.0
1259.533654	712.5
1260.077785	724.25
1260.62186	708.5
1261.165878	708.0
1261.70984	704.0
1262.253745	712.25
1262.797594	711.75
1263.341386	710.25
1263.885123	707.5
1264.428802	706.25
1264.972425	708.75
1265.515992	721.75
1266.059503	740.0
1266.602957	723.5
1267.146354	714.75
1267.689696	709.5
1268.23298	707.5
1268.776209	706.5
1269.319381	707.75
1269.862497	711.75
1270.405556	710.0
1270.948559	707.25
1271.491506	709.25
1272.034396	709.5
1272.57723	711.0
1273.120007	710.5
1273.662728	707.5
1274.205393	706.75
1274.748002	714.25
1275.290554	707.25
1275.83305	709.0
1276.375489	705.75
1276.917872	709.75
1277.460199	711.5
1278.00247	711.5
1278.544684	713.25
1279.086842	708.0
1279.628943	706.75
1280.170989	713.25
1280.712978	707.0
1281.25491	707.0
1281.796787	711.0
1282.338607	709.0
1282.880371	709.5
1283.422078	706.75
1283.963729	708.5
1284.505324	714.0
1285.046863	719.25
1285.588345	761.75
1286.129772	968.25
1286.671142	1037.5
1287.212455	777.75
1287.753713	720.0
1288.294914	714.25
1288.836059	709.5
1289.377147	709.75
1289.91818	712.25
1290.459156	708.0
1291.000076	706.25
1291.54094	713.75
1292.081747	706.5
1292.622499	704.0
1293.163194	714.75
1293.703833	708.5
1294.244415	708.5
1294.784942	711.0
1295.325412	710.75
1295.865826	711.0
1296.406184	706.25
1296.946486	711.75
1297.486731	709.25
1298.026921	709.0
1298.567054	711.0
1299.107131	707.25
1299.647152	713.75
1300.187116	710.25
1300.727025	706.0
1301.266877	708.75
1301.806673	711.25
1302.346413	714.25
1302.886097	713.0
1303.425725	714.25
1303.965297	709.25
1304.504812	714.0
1305.044272	709.5
1305.583675	708.0
1306.123022	708.75
1306.662313	710.0
1307.201548	712.25
1307.740727	707.5
1308.279849	708.75
1308.818916	710.0
1309.357926	710.0
1309.896881	711.0
1310.435779	712.0
1310.974621	707.0
1311.513407	703.5
1312.052137	710.0
1312.590811	711.75
1313.129429	703.5
1313.667991	707.75
1314.206497	701.75
1314.744946	703.75
1315.28334	704.75
1315.821678	707.75
1316.359959	706.0
1316.898184	705.75
1317.436354	704.0
1317.974467	707.25
1318.512525	707.75
1319.050526	704.75
1319.588471	705.25
1320.12636	707.75
1320.664194	708.25
1321.201971	703.5
1321.739692	707.25
1322.277357	705.25
1322.814967	706.5
1323.35252	707.75
1323.890017	711.75
1324.427458	705.25
1324.964843	704.5
1325.502173	701.5
1326.039446	704.25
1326.576663	700.5
1327.113824	704.5
1327.65093	706.75
1328.187979	705.25
1328.724972	706.25
1329.26191	703.0
1329.798791	704.75
1330.335617	702.75
1330.872386	702.75
1331.4091	697.75
1331.945758	704.0
1332.48236	702.0
1333.018905	701.75
1333.555395	701.25
1334.091829	703.75
1334.628207	702.0
1335.164529	703.5
1335.700796	705.25
1336.237006	702.5
1336.77316	705.0
1337.309259	703.75
1337.845301	704.75
1338.381288	707.25
1338.917219	705.25
1339.453094	706.5
1339.988913	704.75
1340.524676	705.25
1341.060383	706.75
1341.596034	697.5
1342.13163	706.0
1342.66717	704.5
1343.202653	705.0
1343.738081	704.25
1344.273453	706.5
1344.80877	707.75
1345.34403	704.0
1345.879235	705.25
1346.414383	705.5
1346.949476	701.5
1347.484513	701.25
1348.019494	704.25
1348.55442	703.0
1349.089289	704.5
1349.624103	701.5
1350.158861	705.75
1350.693563	705.0
1351.228209	705.25
1351.7628	708.25
1352.297334	704.0
1352.831813	703.5
1353.366236	701.0
1353.900604	702.25
1354.434915	699.75
1354.969171	701.75
1355.503371	701.0
1356.037515	707.75
1356.571604	700.0
1357.105636	699.5
1357.639613	705.25
1358.173535	705.5
1358.7074	708.75
1359.24121	704.5
1359.774964	707.0
1360.308662	701.25
1360.842304	700.25
1361.375891	706.5
1361.909422	703.0
1362.442897	702.75
1362.976317	703.25
1363.50968	704.25
1364.042989	704.75
1364.576241	704.25
1365.109438	706.25
1365.642579	707.75
1366.175664	706.0
1366.708693	705.5
1367.241667	707.5
1367.774585	706.25
1368.307448	705.0
1368.840255	705.25
1369.373006	707.25
1369.905701	701.0
1370.438341	709.0
1370.970925	712.5
1371.503454	705.75
1372.035926	705.25
1372.568344	706.25
1373.100705	700.5
1373.633011	705.5
1374.165261	702.5
1374.697456	706.5
1375.229595	705.25
1375.761678	704.5
1376.293705	702.5
1376.825677	701.5
1377.357594	704.25
1377.889455	703.0
1378.42126	705.0
1378.953009	704.5
1379.484703	701.0
1380.016342	702.5
1380.547924	704.0
1381.079452	701.5
1381.610923	705.25
1382.142339	702.25
1382.673699	703.5
1383.205004	703.75
1383.736253	703.5
1384.267447	704.75
1384.798585	704.0
1385.329668	704.25
1385.860695	706.25
1386.391666	704.75
1386.922582	707.5
1387.453442	707.75
1387.984247	706.0
1388.514996	740.0
1389.04569	982.0
1389.576328	1278.0
1390.10691	836.75
1390.637437	719.5
1391.167909	709.0
1391.698325	711.0
1392.228685	702.25
1392.75899	701.25
1393.28924	698.75
1393.819434	711.0
1394.349572	703.5
1394.879655	706.25
1395.409683	704.25
1395.939655	706.5
1396.469571	703.75
1396.999432	701.25
1397.529237	707.75
1398.058987	706.25
1398.588682	700.0
1399.118321	699.5
1399.647905	702.75
1400.177433	700.75
1400.706906	705.0
1401.236323	703.75
1401.765685	703.25
1402.294991	706.75
1402.824242	708.25
1403.353437	705.25
1403.882577	703.75
1404.411662	706.0
1404.940691	701.25
1405.469665	705.75
1405.998583	704.25
1406.527446	703.75
1407.056253	705.0
1407.585005	707.25
1408.113702	701.25
1408.642343	706.0
1409.170929	709.5
1409.69946	709.25
1410.227935	724.75
1410.756354	761.5
1411.284719	727.5
1411.813028	708.5
1412.341281	713.0
1412.869479	705.5
1413.397622	703.0
1413.92571	706.75
1414.453742	698.5
1414.981718	710.0
1415.50964	716.75
1416.037506	703.75
1416.565316	702.0
1417.093072	704.75
1417.620772	704.5
1418.148416	701.0
1418.676005	700.75
1419.203539	702.5
1419.731018	705.5
1420.258441	703.25
1420.785809	704.5
1421.313122	703.25
1421.840379	705.0
1422.367582	703.5
1422.894728	705.25
1423.42182	702.25
1423.948856	709.25
1424.475837	709.25
1425.002762	705.0
1425.529633	699.75
1426.056448	707.5
1426.583207	701.5
1427.109912	705.0
1427.636561	703.5
1428.163155	701.25
1428.689694	704.25
1429.216177	704.0
1429.742605	703.0
1430.268978	705.0
1430.795296	706.0
1431.321558	700.5
1431.847765	705.0
1432.373917	702.0
1432.900014	699.5
1433.426056	707.0
1433.952042	707.0
1434.477973	706.25
1435.003849	705.25
1435.529669	707.75
1436.055435	704.25
1436.581145	706.5
1437.1068	701.75
1437.632399	701.75
1438.157944	701.75
1438.683433	704.5
1439.208868	702.5
1439.734247	703.25
1440.25957	705.0
1440.784839	703.0
1441.310053	704.75
1441.835211	701.5
1442.360314	699.0
1442.885362	707.75
1443.410355	705.0
1443.935292	702.5
1444.460175	702.0
1444.985002	701.25
1445.509774	705.75
1446.034491	702.0
1446.559153	701.25
1447.08376	705.0
1447.608312	702.5
1448.132808	708.25
1448.65725	704.75
1449.181636	704.0
1449.705967	701.25
1450.230243	703.25
1450.754464	700.25
1451.27863	702.5
1451.802741	709.0
1452.326797	704.0
1452.850797	704.5
1453.374743	707.5
1453.898633	705.25
1454.422468	704.75
1454.946249	704.5
1455.469974	704.5
1455.993644	707.0
1456.517259	704.75
1457.040819	707.5
1457.564324	705.0
1458.087773	705.0
1458.611168	702.75
1459.134508	702.5
1459.657793	707.75
1460.181022	711.25
1460.704197	703.25
1461.227316	703.5
1461.750381	705.5
1462.27339	698.5
1462.796345	700.75
1463.319244	703.5
1463.842089	697.75
1464.364878	703.0
1464.887613	703.5
1465.410292	701.5
1465.932916	703.5
1466.455486	702.0
1466.978	702.25
1467.50046	702.5
1468.022864	703.25
1468.545214	700.25
1469.067508	701.75
1469.589748	706.25
1470.111932	706.75
1470.634062	706.0
1471.156136	701.75
1471.678156	705.25
1472.20012	700.5
1472.72203	704.25
1473.243885	702.5
1473.765685	698.0
1474.28743	705.0
1474.80912	707.5
1475.330755	703.75
1475.852335	698.75
1476.37386	704.25
1476.89533	704.75
1477.416745	707.0
1477.938106	702.75
1478.459411	699.75
1478.980662	706.75
1479.501857	701.75
1480.022998	698.75
1480.544084	701.5
1481.065115	702.25
1481.586091	699.25
1482.107012	702.75
1482.627878	703.0
1483.14869	698.5
1483.669446	704.5
1484.190148	704.25
1484.710794	702.5
1485.231386	700.25
1485.751923	705.25
1486.272406	698.25
1486.792833	700.25
1487.313205	702.5
1487.833523	706.25
1488.353786	705.0
1488.873994	702.25
1489.394147	703.75
1489.914245	701.0
1490.434288	703.5
1490.954277	704.0
1491.474211	698.75
1491.99409	706.75
1492.513914	702.25
1493.033683	704.0
1493.553398	699.25
1494.073057	706.25
1494.592662	705.25
1495.112212	703.75
1495.631708	705.5
1496.151148	702.5
1496.670534	705.0
1497.189865	703.25
1497.709141	700.25
1498.228362	704.25
1498.747529	704.5
1499.266641	702.25
1499.785698	706.5
1500.3047	705.0
1500.823648	702.25
1501.34254	705.75
1501.861379	701.0
1502.380162	704.25
1502.89889	698.75
1503.417564	704.75
1503.936183	699.0
1504.454748	701.5
1504.973257	698.75
1505.491712	701.0
1506.010112	703.5
1506.528458	700.5
1507.046748	702.0
1507.564984	701.5
1508.083166	700.5
1508.601292	701.25
1509.119364	703.0
1509.637381	701.25
1510.155344	701.0
1510.673252	711.5
1511.191105	699.25
1511.708903	700.5
1512.226647	706.25
1512.744336	700.5
1513.261971	706.25
1513.77955	699.75
1514.297076	701.0
1514.814546	701.5
1515.331962	705.0
1515.849323	698.5
1516.366629	700.75
1516.883881	700.5
1517.401078	701.5
1517.918221	698.0
1518.435309	701.25
1518.952342	700.0
1519.469321	697.0
1519.986245	698.5
1520.503114	703.75
1521.019929	697.75
1521.536689	701.75
1522.053395	703.0
1522.570046	704.25
1523.086642	698.25
1523.603184	702.5
1524.119671	703.5
1524.636103	698.75
1525.152481	700.0
1525.668805	699.75
1526.185073	703.0
1526.701288	699.75
1527.217447	700.5
1527.733552	699.0
1528.249603	700.0
1528.765599	703.5
1529.28154	700.0
1529.797427	704.5
1530.313259	702.0
1530.829037	702.25
1531.34476	706.0
1531.860429	704.25
1532.376043	697.5
1532.891602	702.75
1533.407107	698.0
1533.922558	702.75
1534.437954	698.5
1534.953295	701.0
1535.468582	699.75
1535.983815	704.0
1536.498993	704.5
1537.014116	696.5
1537.529185	703.75
1538.044199	701.25
1538.559159	707.25
1539.074064	698.75
1539.588915	700.5
1540.103712	704.75
1540.618454	698.0
1541.133141	699.5
1541.647774	704.0
1542.162353	702.75
1542.676877	698.5
1543.191346	700.75
1543.705761	698.5
1544.220122	699.5
1544.734428	705.25
1545.24868	702.25
1545.762877	700.0
1546.27702	702.0
1546.791109	702.0
1547.305143	699.75
1547.819122	700.0
1548.333047	700.5
1548.846918	701.75
1549.360734	701.0
1549.874496	702.0
1550.388204	699.5
1550.901857	702.25
1551.415455	703.5
1551.929	699.25
1552.442489	703.75
1552.955925	699.0
1553.469306	701.25
1553.982632	700.75
1554.495905	705.5
1555.009123	704.0
1555.522286	700.5
1556.035395	703.25
1556.54845	704.5
1557.06145	699.5
1557.574396	702.25
1558.087288	701.75
1558.600125	694.5
1559.112908	702.0
1559.625637	700.75
1560.138311	699.0
1560.650931	700.25
1561.163497	702.25
1561.676008	701.5
1562.188465	697.0
1562.700867	702.25
1563.213216	703.25
1563.725509	703.0
1564.237749	700.75
1564.749934	699.0
1565.262065	702.5
1565.774142	704.75
1566.286164	700.75
1566.798132	703.25
1567.310046	697.0
1567.821906	704.75
1568.333711	702.5
1568.845462	703.25
1569.357158	701.25
1569.868801	698.0
1570.380389	704.75
1570.891922	701.0
1571.403402	702.25
1571.914827	702.75
1572.426198	704.75
1572.937515	700.75
1573.448777	703.0
1573.959985	697.0
1574.471139	704.25
1574.982239	708.0
1575.493285	705.25
1576.004276	701.25
1576.515213	699.75
1577.026096	705.75
1577.536924	708.0
1578.047698	708.25
1578.558419	708.25
1579.069084	709.5
1579.579696	706.5
1580.090254	706.75
1580.600757	704.75
1581.111206	710.25
1581.621601	707.5
1582.131941	705.25
1582.642228	706.5
1583.15246	706.0
1583.662638	707.75
1584.172762	705.5
1584.682832	708.75
1585.192847	704.5
1585.702809	704.0
1586.212716	708.0
1586.722569	700.5
1587.232368	710.0
1587.742113	704.75
1588.251803	703.75
1588.76144	700.0
1589.271022	705.5
1589.78055	701.25
1590.290024	702.25
1590.799444	702.5
1591.30881	702.5
1591.818121	704.5
1592.327379	707.0
