1042.414189	697.5
1042.980685	697.5
1043.547124	695.5
1044.113505	695.25
1044.679828	694.0
1045.246093	687.0
1045.8123	690.75
1046.378449	695.25
1046.94454	686.75
1047.510573	687.0
1048.076548	686.25
1048.642465	685.75
1049.208325	685.0
1049.774126	689.25
1050.339869	688.25
1050.905555	687.0
1051.471183	686.75
1052.036752	687.75
1052.602264	689.75
1053.167718	688.0
1053.733114	685.75
1054.298452	684.75
1054.863733	682.75
1055.428955	686.5
1055.994119	683.0
1056.559226	687.0
1057.124275	687.75
1057.689266	684.0
1058.254199	681.25
1058.819074	683.75
1059.383891	686.25
1059.94865	684.75
1060.513352	687.0
1061.077996	684.5
1061.642582	685.0
1062.20711	682.75
1062.77158	680.25
1063.335992	681.0
1063.900347	681.5
1064.464643	682.5
1065.028882	682.0
1065.593063	683.75
1066.157187	683.0
1066.721252	685.25
1067.28526	684.75
1067.84921	683.75
1068.413102	683.25
1068.976936	682.75
1069.540713	683.0
1070.104431	688.25
1070.668092	684.75
1071.231696	682.5
1071.795241	682.75
1072.358729	681.5
1072.922159	685.0
1073.485531	684.0
1074.048845	686.75
1074.612102	680.25
1075.175301	683.5
1075.738442	684.75
1076.301525	682.25
1076.864551	682.5
1077.427519	680.0
1077.990429	681.0
1078.553281	681.25
1079.116076	683.25
1079.678813	683.75
1080.241492	682.75
1080.804114	683.25
1081.366678	684.25
1081.929184	684.0
1082.491633	686.0
1083.054024	682.5
1083.616357	684.5
1084.178632	682.25
1084.74085	680.0
1085.30301	688.0
1085.865113	681.75
1086.427158	682.5
1086.989145	681.5
1087.551074	684.5
1088.112946	683.25
1088.67476	680.5
1089.236517	687.0
1089.798216	678.25
1090.359857	682.0
1090.92144	681.25
1091.482966	685.25
1092.044435	681.5
1092.605845	683.0
1093.167199	686.75
1093.728494	683.0
1094.289732	681.75
1094.850912	684.75
1095.412035	693.75
1095.9731	680.25
1096.534107	682.25
1097.095057	691.75
1097.65595	684.25
1098.216784	685.5
1098.777561	680.25
1099.338281	685.0
1099.898943	683.0
1100.459547	681.25
1101.020094	683.25
1101.580584	684.25
1102.141015	681.75
1102.701389	682.5
1103.261706	680.5
1103.821965	684.25
1104.382167	681.25
1104.942311	678.25
1105.502397	687.75
1106.062426	684.5
1106.622398	684.75
1107.182312	683.75
1107.742168	685.25
1108.301967	689.0
1108.861708	686.25
1109.421392	687.5
1109.981019	695.5
1110.540587	689.5
1111.100099	690.0
1111.659553	691.0
1112.218949	695.0
1112.778288	691.25
1113.33757	692.75
1113.896794	691.75
1114.45596	692.0
1115.015069	688.75
1115.574121	687.5
1116.133115	688.5
1116.692052	686.5
1117.250931	685.75
1117.809753	686.5
1118.368517	687.0
1118.927224	684.5
1119.485873	686.5
1120.044465	685.25
1120.603	681.0
1121.161477	681.25
1121.719897	680.5
1122.278259	681.25
1122.836564	684.25
1123.394812	679.75
1123.953002	679.0
1124.511135	681.25
1125.06921	677.0
1125.627228	684.5
1126.185189	680.75
1126.743092	684.75
1127.300938	684.25
1127.858726	684.5
1128.416457	680.5
1128.974131	681.75
1129.531748	684.25
1130.089307	685.25
1130.646808	681.75
1131.204252	681.5
1131.761639	681.75
1132.318969	678.0
1132.876241	683.25
1133.433456	679.75
1133.990614	680.0
1134.547714	679.0
1135.104757	681.5
1135.661743	680.75
1136.218671	678.5
1136.775542	682.0
1137.332356	683.75
1137.889112	679.5
1138.445811	679.5
1139.002453	681.0
1139.559037	677.75
1140.115565	681.5
1140.672035	680.75
1141.228447	681.25
1141.784803	681.75
1142.341101	675.25
1142.897342	682.0
1143.453525	678.5
1144.009651	681.0
1144.565721	681.25
1145.121732	678.75
1145.677687	680.75
1146.233584	680.0
1146.789424	679.25
1147.345207	681.25
1147.900933	681.75
1148.456601	680.0
1149.012212	680.0
1149.567766	680.75
1150.123263	682.5
1150.678702	680.25
1151.234085	680.75
1151.78941	684.25
1152.344678	680.5
1152.899888	680.25
1153.455042	680.75
1154.010138	683.0
1154.565177	679.75
1155.120159	680.0
1155.675084	680.25
1156.229951	678.5
1156.784762	681.5
1157.339515	681.0
1157.894211	682.25
1158.44885	682.25
1159.003432	678.25
1159.557956	679.75
1160.112424	681.0
1160.666834	680.5
1161.221187	677.75
1161.775483	678.75
1162.329722	682.0
1162.883904	676.5
1163.438029	678.5
1163.992096	682.0
1164.546107	683.0
1165.10006	676.25
1165.653956	678.5
1166.207795	680.75
1166.761577	677.0
1167.315302	680.5
1167.86897	681.0
1168.422581	678.0
1168.976134	679.25
1169.529631	682.75
1170.08307	677.25
1170.636453	679.25
1171.189778	681.0
1171.743046	676.5
1172.296257	677.75
1172.849412	678.25
1173.402509	680.5
1173.955549	682.75
1174.508532	685.25
1175.061458	681.5
1175.614327	678.25
1176.167138	679.75
1176.719893	681.25
1177.272591	682.5
1177.825232	680.75
1178.377816	680.25
1178.930342	682.75
1179.482812	683.0
1180.035225	682.75
1180.587581	683.25
1181.139879	685.0
1181.692121	686.0
1182.244306	684.5
1182.796434	685.25
1183.348504	683.0
1183.900518	683.25
1184.452475	685.5
1185.004375	683.0
1185.556218	684.5
1186.108004	682.5
1186.659733	683.0
1187.211405	686.0
1187.76302	688.25
1188.314578	682.25
1188.866079	685.25
1189.417523	684.5
1189.96891	688.0
1190.520241	682.75
1191.071514	681.0
1191.622731	682.0
1192.17389	678.5
1192.724993	680.25
1193.276039	704.0
1193.827027	680.25
1194.377959	681.75
1194.928834	682.75
1195.479653	680.0
1196.030414	678.75
1196.581118	681.25
1197.131766	678.5
1197.682356	680.25
1198.23289	677.5
1198.783367	682.0
1199.333786	678.25
1199.88415	680.0
1200.434456	681.5
1200.984705	679.5
1201.534898	679.25
1202.085033	677.5
1202.635112	677.25
1203.185134	679.25
1203.735099	677.25
1204.285007	679.75
1204.834859	680.0
1205.384653	675.75
1205.934391	679.0
1206.484072	677.75
1207.033696	679.5
1207.583263	681.0
1208.132774	677.5
1208.682228	677.0
1209.231624	682.75
1209.780965	682.25
1210.330248	676.75
1210.879474	681.0
1211.428644	679.0
1211.977757	683.5
1212.526813	683.25
1213.075813	682.75
1213.624755	678.75
1214.173641	682.5
1214.72247	683.25
1215.271242	680.75
1215.819958	679.5
1216.368617	683.25
1216.917219	683.0
1217.465764	685.25
1218.014253	680.25
1218.562685	684.25
1219.11106	683.5
1219.659378	684.5
1220.20764	682.75
1220.755845	682.75
1221.303993	681.25
1221.852085	681.5
1222.400119	683.25
1222.948097	680.75
1223.496019	681.5
1224.043883	681.75
1224.591691	684.0
1225.139443	683.25
1225.687137	686.75
1226.234775	684.25
1226.782357	683.75
1227.329881	682.75
1227.877349	683.0
1228.42476	686.25
1228.972115	681.25
1229.519413	679.5
1230.066654	682.75
1230.613839	685.25
1231.160967	687.0
1231.708038	687.75
1232.255053	682.75
1232.802011	679.75
1233.348912	682.5
1233.895757	683.75
1234.442545	685.75
1234.989277	683.5
1235.535951	680.75
1236.08257	682.25
1236.629131	682.75
1237.175636	685.5
1237.722085	680.5
1238.268477	685.25
1238.814812	679.0
1239.361091	681.25
1239.907313	679.0
1240.453478	680.5
1240.999587	682.0
1241.54564	682.25
1242.091636	678.75
1242.637575	681.75
1243.183457	681.5
1243.729284	681.25
1244.275053	682.75
1244.820766	681.25
1245.366423	678.5
1245.912022	681.75
1246.457566	682.75
1247.003053	682.5
1247.548483	682.0
1248.093857	686.5
1248.639174	685.75
1249.184435	680.25
1249.729639	683.0
1250.274787	684.0
1250.819878	683.25
1251.364912	682.0
1251.909891	682.25
1252.454812	681.0
1252.999677	681.75
1253.544486	684.0
1254.089238	683.0
1254.633934	678.75
1255.178573	682.5
1255.723156	682.5
1256.267682	680.75
1256.812152	679.5
1257.356565	679.75
1257.900922	680.5
1258.445223	681.5
1258.989467	679.75
1259.533654	680.5
1260.077785	686.75
1260.62186	681.25
1261.165878	680.5
1261.70984	685.75
1262.253745	685.5
1262.797594	682.25
1263.341386	680.75
1263.885123	684.75
1264.428802	684.5
1264.972425	685.5
1265.515992	690.5
1266.059503	686.0
1266.602957	681.25
1267.146354	682.0
1267.689696	680.5
1268.23298	685.0
1268.776209	680.5
1269.319381	680.0
1269.862497	678.5
1270.405556	683.5
1270.948559	679.5
1271.491506	681.75
1272.034396	677.5
1272.57723	674.25
1273.120007	679.0
1273.662728	680.25
1274.205393	681.75
1274.748002	679.25
1275.290554	676.75
1275.83305	678.25
1276.375489	680.5
1276.917872	678.25
1277.460199	680.75
1278.00247	683.25
1278.544684	680.5
1279.086842	680.75
1279.628943	678.5
1280.170989	676.25
1280.712978	679.25
1281.25491	679.5
1281.796787	679.75
1282.338607	681.0
1282.880371	681.0
1283.422078	682.0
1283.963729	686.5
1284.505324	691.5
1285.046863	734.25
1285.588345	776.5
1286.129772	742.75
1286.671142	695.75
1287.212455	687.75
1287.753713	682.25
1288.294914	685.0
1288.836059	686.25
1289.377147	683.0
1289.91818	681.25
1290.459156	683.25
1291.000076	681.75
1291.54094	683.0
1292.081747	680.5
1292.622499	679.75
1293.163194	683.0
1293.703833	680.25
1294.244415	681.5
1294.784942	682.5
1295.325412	684.25
1295.865826	680.75
1296.406184	680.25
1296.946486	682.0
1297.486731	678.5
1298.026921	681.0
1298.567054	684.75
1299.107131	683.0
1299.647152	680.75
1300.187116	684.0
1300.727025	679.0
1301.266877	679.75
1301.806673	681.25
1302.346413	681.5
1302.886097	678.75
1303.425725	683.0
1303.965297	682.75
1304.504812	678.75
1305.044272	682.5
1305.583675	683.5
1306.123022	685.0
1306.662313	681.5
1307.201548	678.75
1307.740727	683.5
1308.279849	678.75
1308.818916	679.75
1309.357926	677.75
1309.896881	684.5
1310.435779	681.25
1310.974621	679.25
1311.513407	678.5
1312.052137	682.0
1312.590811	681.75
1313.129429	681.5
1313.667991	680.0
1314.206497	681.75
1314.744946	677.0
1315.28334	678.25
1315.821678	679.75
1316.359959	678.75
1316.898184	677.0
1317.436354	681.0
1317.974467	676.5
1318.512525	677.0
1319.050526	676.5
1319.588471	678.75
1320.12636	675.0
1320.664194	677.75
1321.201971	677.75
1321.739692	678.0
1322.277357	680.0
1322.814967	676.5
1323.35252	677.0
1323.890017	682.5
1324.427458	678.5
1324.964843	680.0
1325.502173	676.75
1326.039446	678.5
1326.576663	675.75
1327.113824	677.75
1327.65093	674.25
1328.187979	679.75
1328.724972	675.25
1329.26191	674.25
1329.798791	676.75
1330.335617	678.0
1330.872386	681.0
1331.4091	678.75
1331.945758	676.25
1332.48236	677.5
1333.018905	678.25
1333.555395	678.5
1334.091829	676.5
1334.628207	677.75
1335.164529	673.5
1335.700796	679.0
1336.237006	673.75
1336.77316	677.0
1337.309259	679.25
1337.845301	681.75
1338.381288	673.25
1338.917219	678.25
1339.453094	678.75
1339.988913	675.75
1340.524676	676.25
1341.060383	677.25
1341.596034	676.25
1342.13163	674.75
1342.66717	682.5
1343.202653	675.25
1343.738081	680.25
1344.273453	676.0
1344.80877	678.0
1345.34403	675.0
1345.879235	676.0
1346.414383	673.75
1346.949476	674.75
1347.484513	678.75
1348.019494	678.5
1348.55442	676.5
1349.089289	675.25
1349.624103	675.5
1350.158861	674.75
1350.693563	680.0
1351.228209	674.75
1351.7628	679.0
1352.297334	678.5
1352.831813	675.75
1353.366236	675.0
1353.900604	674.5
1354.434915	676.5
1354.969171	677.75
1355.503371	677.5
1356.037515	677.0
1356.571604	676.0
1357.105636	675.0
1357.639613	677.25
1358.173535	675.0
1358.7074	676.75
1359.24121	678.25
1359.774964	676.75
1360.308662	676.75
1360.842304	677.5
1361.375891	680.75
1361.909422	675.5
1362.442897	672.5
1362.976317	675.0
1363.50968	676.75
1364.042989	674.0
1364.576241	677.5
1365.109438	681.25
1365.642579	677.0
1366.175664	678.0
1366.708693	676.0
1367.241667	679.75
1367.774585	679.25
1368.307448	679.5
1368.840255	677.25
1369.373006	677.25
1369.905701	678.75
1370.438341	681.5
1370.970925	679.0
1371.503454	676.5
1372.035926	678.75
1372.568344	679.5
1373.100705	679.25
1373.633011	680.75
1374.165261	677.0
1374.697456	677.25
1375.229595	677.25
1375.761678	673.5
1376.293705	680.0
1376.825677	674.75
1377.357594	675.75
1377.889455	677.5
1378.42126	680.25
1378.953009	674.75
1379.484703	675.5
1380.016342	675.0
1380.547924	677.25
1381.079452	679.75
1381.610923	678.0
1382.142339	678.5
1382.673699	679.5
1383.205004	672.75
1383.736253	680.0
1384.267447	680.0
1384.798585	675.25
1385.329668	678.25
1385.860695	680.25
1386.391666	683.75
1386.922582	682.5
1387.453442	683.0
1387.984247	704.75
1388.514996	780.25
1389.04569	856.0
1389.576328	746.75
1390.10691	693.0
1390.637437	685.0
1391.167909	680.0
1391.698325	680.0
1392.228685	678.75
1392.75899	678.5
1393.28924	679.0
1393.819434	683.5
1394.349572	675.5
1394.879655	676.75
1395.409683	679.25
1395.939655	680.0
1396.469571	678.25
1396.999432	678.5
1397.529237	679.25
1398.058987	677.5
1398.588682	675.25
1399.118321	673.25
1399.647905	678.5
1400.177433	677.75
1400.706906	678.0
1401.236323	678.75
1401.765685	678.75
1402.294991	676.5
1402.824242	675.5
1403.353437	679.25
1403.882577	676.75
1404.411662	677.5
1404.940691	678.0
1405.469665	679.0
1405.998583	677.75
1406.527446	674.5
1407.056253	675.0
1407.585005	677.0
1408.113702	679.0
1408.642343	679.5
1409.170929	681.0
1409.69946	682.0
1410.227935	685.75
1410.756354	686.0
1411.284719	681.0
1411.813028	677.25
1412.341281	680.25
1412.869479	679.5
1413.397622	678.0
1413.92571	678.0
1414.453742	675.5
1414.981718	679.5
1415.50964	691.25
1416.037506	680.5
1416.565316	674.0
1417.093072	678.0
1417.620772	674.5
1418.148416	677.75
1418.676005	676.25
1419.203539	676.0
1419.731018	675.5
1420.258441	676.75
1420.785809	677.5
1421.313122	670.5
1421.840379	677.75
1422.367582	676.25
1422.894728	677.25
1423.42182	679.5
1423.948856	676.75
1424.475837	679.5
1425.002762	680.25
1425.529633	679.5
1426.056448	678.5
1426.583207	682.0
1427.109912	675.75
1427.636561	676.75
1428.163155	674.25
1428.689694	678.5
1429.216177	676.5
1429.742605	680.75
1430.268978	676.5
1430.795296	681.5
1431.321558	675.0
1431.847765	680.5
1432.373917	674.0
1432.900014	678.25
1433.426056	673.25
1433.952042	679.0
1434.477973	679.0
1435.003849	679.5
1435.529669	677.75
1436.055435	678.25
1436.581145	677.0
1437.1068	681.5
1437.632399	679.25
1438.157944	679.75
1438.683433	678.5
1439.208868	678.25
1439.734247	676.75
1440.25957	682.25
1440.784839	680.25
1441.310053	680.5
1441.835211	682.5
1442.360314	679.75
1442.885362	680.25
1443.410355	680.25
1443.935292	676.25
1444.460175	680.5
1444.985002	678.25
1445.509774	681.75
1446.034491	678.75
1446.559153	678.0
1447.08376	682.25
1447.608312	679.5
1448.132808	683.25
1448.65725	681.5
1449.181636	679.0
1449.705967	680.25
1450.230243	680.0
1450.754464	682.25
1451.27863	678.25
1451.802741	682.25
1452.326797	681.5
1452.850797	683.25
1453.374743	678.0
1453.898633	685.75
1454.422468	678.0
1454.946249	680.75
1455.469974	679.0
1455.993644	680.75
1456.517259	681.0
1457.040819	680.75
1457.564324	680.0
1458.087773	682.0
1458.611168	681.75
1459.134508	680.5
1459.657793	681.25
1460.181022	681.75
1460.704197	680.0
1461.227316	681.75
1461.750381	682.0
1462.27339	689.75
1463.319244	705.75
1463.842089	683.75
1464.364878	683.25
1464.887613	678.25
1465.410292	678.5
1465.932916	682.25
1466.455486	678.75
1466.978	680.5
1467.50046	674.75
1468.022864	680.75
1468.545214	675.25
1469.067508	681.75
1469.589748	675.75
1470.111932	679.25
1470.634062	679.0
1471.156136	681.0
1471.678156	676.0
1472.20012	680.0
1472.72203	679.5
1473.243885	680.0
1473.765685	677.75
1474.28743	679.25
1474.80912	675.5
1475.330755	679.5
1475.852335	676.0
1476.37386	678.5
1476.89533	677.75
1477.416745	675.25
1477.938106	678.25
1478.459411	677.0
1478.980662	677.5
1479.501857	679.75
1480.022998	675.5
1480.544084	674.75
1481.065115	676.5
1481.586091	677.25
1482.107012	677.0
1482.627878	680.5
1483.14869	678.0
1483.669446	677.5
1484.190148	677.5
1484.710794	676.25
1485.231386	676.25
1485.751923	674.5
1486.272406	675.5
1486.792833	677.0
1487.313205	676.5
1487.833523	674.0
1488.353786	673.25
1488.873994	677.25
1489.394147	677.0
1489.914245	676.5
1490.434288	677.25
1490.954277	676.5
1491.474211	676.0
1491.99409	678.0
1492.513914	673.0
1493.033683	673.5
1493.553398	675.25
1494.073057	674.0
1494.592662	672.0
1495.112212	676.25
1495.631708	673.25
1496.151148	674.5
1496.670534	674.5
1497.189865	673.25
1497.709141	674.25
1498.228362	673.75
1498.747529	678.0
1499.266641	679.0
1499.785698	685.0
1500.3047	675.25
1500.823648	675.25
1501.34254	674.75
1501.861379	677.75
1502.380162	673.25
1502.89889	674.0
1503.417564	672.75
1503.936183	674.0
1504.454748	676.75
1504.973257	674.75
1505.491712	677.25
1506.010112	678.0
1506.528458	677.0
1507.046748	674.75
1507.564984	672.25
1508.083166	678.75
1508.601292	673.0
1509.119364	677.0
1509.637381	671.5
1510.155344	673.25
1510.673252	685.75
1511.191105	675.75
1511.708903	674.25
1512.226647	676.5
1512.744336	673.75
1513.261971	675.75
1513.77955	676.25
1514.297076	677.0
1514.814546	675.25
1515.331962	675.0
1515.849323	678.5
1516.366629	675.5
1516.883881	672.0
1517.401078	673.5
1517.918221	677.0
1518.435309	672.0
1518.952342	673.75
1519.469321	674.25
1519.986245	674.5
1520.503114	675.75
1521.019929	674.75
1521.536689	676.75
1522.053395	672.5
1522.570046	672.0
1523.086642	676.25
1523.603184	674.25
1524.119671	673.0
1524.636103	676.5
1525.152481	676.0
1525.668805	693.75
1526.185073	700.0
1526.701288	685.0
1527.217447	676.5
1527.733552	675.5
1528.249603	678.25
1528.765599	675.0
1529.28154	677.25
1529.797427	678.5
1530.313259	677.25
1530.829037	669.75
1531.34476	674.25
1531.860429	672.75
1532.376043	675.5
1532.891602	676.75
1533.407107	674.25
1533.922558	676.5
1534.437954	674.5
1534.953295	674.75
1535.468582	673.25
1535.983815	676.25
1536.498993	674.75
1537.014116	674.5
1537.529185	675.5
1538.044199	676.0
1538.559159	678.0
1539.074064	675.75
1539.588915	676.75
1540.103712	679.0
1540.618454	676.5
1541.133141	676.25
1541.647774	673.75
1542.162353	675.25
1542.676877	670.75
1543.191346	675.0
1543.705761	678.0
1544.220122	675.25
1544.734428	676.0
1545.24868	677.0
1545.762877	675.75
1546.27702	678.5
1546.791109	676.75
1547.305143	673.75
1547.819122	674.75
1548.333047	676.75
1548.846918	676.75
1549.360734	677.5
1549.874496	674.75
1550.388204	674.75
1550.901857	679.5
1551.415455	678.75
1551.929	679.5
1552.442489	675.25
1552.955925	675.75
1553.469306	673.5
1553.982632	678.5
1554.495905	677.75
1555.009123	679.0
1555.522286	677.0
1556.035395	678.5
1556.54845	675.25
1557.06145	677.0
1557.574396	676.75
1558.087288	675.25
1558.600125	677.5
1559.112908	675.5
1559.625637	674.5
1560.138311	679.25
1560.650931	675.0
1561.163497	674.75
1561.676008	677.5
1562.188465	678.25
1562.700867	680.5
1563.213216	678.25
1563.725509	676.25
1564.237749	679.0
1564.749934	676.25
1565.262065	679.25
1565.774142	682.5
1566.286164	679.75
1566.798132	677.25
1567.310046	684.0
1567.821906	680.0
1568.333711	680.0
1568.845462	677.75
1569.357158	674.75
1569.868801	676.5
1570.380389	675.75
1570.891922	677.0
1571.403402	676.0
1571.914827	674.75
1572.426198	678.5
1572.937515	677.0
1573.448777	674.5
1573.959985	673.0
1574.471139	675.25
1574.982239	678.0
1575.493285	676.25
1576.004276	675.25
1576.515213	676.75
1577.026096	681.75
1577.536924	676.75
1578.047698	677.5
1578.558419	673.5
1579.069084	677.5
1579.579696	678.5
1580.090254	679.5
1580.600757	678.5
1581.111206	678.0
1581.621601	675.5
1582.131941	679.0
1582.642228	676.75
1583.15246	675.75
1583.662638	680.75
1584.172762	675.25
1584.682832	678.75
1585.192847	677.75
1585.702809	674.25
1586.212716	674.5
1586.722569	678.25
1587.232368	677.25
1587.742113	679.0
1588.251803	678.25
1588.76144	677.75
1589.271022	677.75
1589.78055	678.25
1590.290024	674.75
1590.799444	675.0
1591.30881	675.25
1591.818121	680.0
1592.327379	673.5
