1042.414189	693.75
1042.980685	690.75
1043.547124	691.75
1044.113505	694.25
1044.679828	688.0
1045.246093	690.0
1045.8123	693.25
1046.378449	689.0
1046.94454	687.0
1047.510573	688.25
1048.076548	686.5
1048.642465	683.75
1049.208325	688.75
1049.774126	687.0
1050.339869	686.0
1050.905555	685.25
1051.471183	685.5
1052.036752	686.0
1052.602264	685.0
1053.167718	684.0
1053.733114	682.75
1054.298452	685.5
1054.863733	683.0
1055.428955	682.5
1055.994119	683.25
1056.559226	681.0
1057.124275	679.0
1057.689266	681.75
1058.254199	679.5
1058.819074	685.0
1059.383891	684.75
1059.94865	682.0
1060.513352	682.0
1061.077996	679.25
1061.642582	678.0
1062.20711	680.5
1062.77158	678.5
1063.335992	681.5
1063.900347	679.5
1064.464643	682.5
1065.028882	680.75
1065.593063	681.5
1066.157187	682.75
1066.721252	679.0
1067.28526	680.25
1067.84921	680.75
1068.413102	680.5
1068.976936	678.25
1069.540713	678.5
1070.104431	689.25
1070.668092	678.75
1071.231696	678.5
1071.795241	678.75
1072.358729	680.75
1072.922159	679.0
1073.485531	680.25
1074.048845	674.5
1074.612102	681.25
1075.175301	679.25
1075.738442	679.5
1076.301525	678.75
1076.864551	678.25
1077.427519	679.25
1077.990429	680.0
1078.553281	679.75
1079.116076	675.75
1079.678813	676.75
1080.241492	677.75
1080.804114	680.5
1081.366678	678.5
1081.929184	679.25
1082.491633	683.0
1083.054024	677.75
1083.616357	676.5
1084.178632	678.5
1084.74085	676.0
1085.30301	676.75
1085.865113	677.5
1086.427158	680.5
1086.989145	679.5
1087.551074	682.75
1088.112946	679.0
1088.67476	679.5
1089.236517	679.0
1089.798216	676.75
1090.359857	679.5
1090.92144	678.75
1091.482966	676.75
1092.044435	681.0
1092.605845	676.75
1093.167199	679.0
1093.728494	679.5
1094.289732	676.5
1094.850912	675.0
1095.412035	687.5
1095.9731	678.5
1096.534107	674.0
1097.095057	687.25
1097.65595	677.75
1098.216784	678.25
1098.777561	681.5
1099.338281	675.5
1099.898943	676.0
1100.459547	679.5
1101.020094	681.75
1101.580584	676.5
1102.141015	677.5
1102.701389	676.75
1103.261706	679.5
1103.821965	678.25
1104.382167	676.75
1104.942311	674.5
1105.502397	680.75
1106.062426	679.25
1106.622398	680.0
1107.182312	680.75
1107.742168	677.25
1108.301967	682.25
1108.861708	679.5
1109.421392	681.0
1109.981019	683.25
1110.540587	677.25
1111.100099	677.75
1111.659553	679.5
1112.218949	677.25
1112.778288	675.75
1113.33757	675.75
1113.896794	678.25
1114.45596	679.5
1115.015069	678.5
1115.574121	676.5
1116.133115	680.25
1116.692052	676.75
1117.250931	682.5
1117.809753	680.5
1118.368517	679.0
1118.927224	679.25
1119.485873	679.75
1120.044465	675.5
1120.603	678.0
1121.161477	677.0
1121.719897	677.5
1122.278259	677.25
1122.836564	678.5
1123.394812	676.25
1123.953002	678.75
1124.511135	676.5
1125.06921	678.75
1125.627228	678.25
1126.185189	677.0
1126.743092	677.5
1127.300938	675.75
1127.858726	680.75
1128.416457	676.0
1128.974131	676.25
1129.531748	676.25
1130.089307	681.0
1130.646808	676.0
1131.204252	679.0
1131.761639	676.5
1132.318969	676.5
1132.876241	677.5
1133.433456	676.75
1133.990614	677.75
1134.547714	673.25
1135.104757	678.25
1135.661743	674.75
1136.218671	681.5
1136.775542	678.75
1137.332356	682.0
1137.889112	676.5
1138.445811	678.25
1139.002453	677.5
1139.559037	679.25
1140.115565	675.25
1140.672035	678.5
1141.228447	676.25
1141.784803	681.75
1142.341101	675.5
1142.897342	679.75
1143.453525	676.75
1144.009651	679.25
1144.565721	678.25
1145.121732	680.25
1145.677687	675.75
1146.233584	677.0
1146.789424	679.5
1147.345207	680.75
1147.900933	675.25
1148.456601	678.0
1149.012212	680.0
1149.567766	677.25
1150.123263	678.0
1150.678702	677.0
1151.234085	679.75
1151.78941	676.25
1152.344678	679.5
1152.899888	677.75
1153.455042	678.5
1154.010138	676.25
1154.565177	678.5
1155.120159	677.5
1155.675084	680.5
1156.229951	678.25
1156.784762	675.75
1157.339515	680.25
1157.894211	681.0
1158.44885	678.0
1159.003432	678.75
1159.557956	675.75
1160.112424	679.0
1160.666834	675.75
1161.221187	677.75
1161.775483	680.75
1162.329722	678.75
1162.883904	680.75
1163.438029	675.5
1163.992096	676.25
1164.546107	676.5
1165.10006	676.5
1165.653956	679.5
1166.207795	678.5
1166.761577	678.0
1167.315302	676.5
1167.86897	679.25
1168.422581	677.75
1168.976134	677.25
1169.529631	677.25
1170.08307	678.25
1170.636453	678.25
1171.189778	681.0
1171.743046	683.0
1172.296257	678.75
1172.849412	677.75
1173.402509	680.75
1173.955549	675.5
1174.508532	675.0
1175.061458	678.75
1175.614327	678.25
1176.167138	676.5
1176.719893	677.5
1177.272591	677.5
1177.825232	678.75
1178.377816	680.75
1178.930342	681.25
1179.482812	678.25
1180.035225	674.25
1180.587581	677.0
1181.139879	676.0
1181.692121	680.0
1182.244306	678.25
1182.796434	674.5
1183.348504	679.25
1183.900518	676.25
1184.452475	678.75
1185.004375	679.25
1185.556218	675.75
1186.108004	677.5
1186.659733	683.0
1187.211405	676.5
1187.76302	679.0
1188.314578	677.0
1188.866079	679.25
1189.417523	675.25
1189.96891	680.0
1190.520241	678.0
1191.071514	678.75
1191.622731	678.0
1192.17389	680.0
1192.724993	678.25
1193.276039	699.0
1193.827027	677.5
1194.377959	677.0
1194.928834	675.25
1195.479653	677.0
1196.030414	677.75
1196.581118	678.25
1197.131766	679.75
1197.682356	675.25
1198.23289	679.25
1198.783367	674.75
1199.333786	678.0
1199.88415	680.25
1200.434456	681.0
1200.984705	677.25
1201.534898	676.25
1202.085033	675.0
1202.635112	676.25
1203.185134	678.5
1203.735099	679.0
1204.285007	681.5
1204.834859	675.0
1205.384653	677.5
1205.934391	678.0
1206.484072	675.25
1207.033696	679.5
1207.583263	676.0
1208.132774	678.0
1208.682228	676.0
1209.231624	682.0
1209.780965	679.0
1210.330248	676.5
1210.879474	680.25
1211.428644	681.75
1211.977757	684.0
1212.526813	681.5
1213.075813	678.0
1213.624755	674.5
1214.173641	679.5
1214.72247	678.75
1215.271242	680.25
1215.819958	680.0
1216.368617	682.0
1216.917219	680.75
1217.465764	680.25
1218.014253	676.25
1218.562685	679.25
1219.11106	679.75
1219.659378	678.75
1220.20764	680.25
1220.755845	681.5
1221.303993	684.0
1221.852085	679.75
1222.400119	681.75
1222.948097	679.5
1223.496019	678.75
1224.043883	679.0
1224.591691	684.0
1225.139443	680.0
1225.687137	685.0
1226.234775	681.5
1226.782357	678.5
1227.329881	685.0
1227.877349	681.0
1228.42476	683.25
1228.972115	680.75
1229.519413	680.0
1230.066654	679.75
1230.613839	679.5
1231.160967	681.0
1231.708038	682.75
1232.255053	682.75
1232.802011	681.5
1233.348912	684.75
1233.895757	685.5
1234.442545	683.25
1234.989277	682.75
1235.535951	684.0
1236.08257	681.5
1236.629131	686.0
1237.175636	682.75
1237.722085	687.5
1238.268477	688.5
1238.814812	683.5
1239.361091	682.75
1239.907313	687.25
1240.453478	688.5
1240.999587	685.25
1241.54564	686.25
1242.091636	685.75
1242.637575	690.0
1243.183457	685.0
1243.729284	685.75
1244.820766	704.25
1245.366423	684.5
1245.912022	685.25
1246.457566	686.0
1247.003053	686.0
1247.548483	688.5
1248.093857	689.0
1248.639174	688.75
1249.184435	689.25
1249.729639	689.75
1250.274787	688.5
1250.819878	687.75
1251.364912	686.25
1251.909891	690.25
1252.454812	689.5
1252.999677	688.0
1253.544486	686.0
1254.089238	689.75
1254.633934	691.0
1255.178573	690.5
1255.723156	690.5
1256.267682	685.5
1256.812152	695.75
1257.356565	686.75
1257.900922	696.25
1258.445223	702.0
1258.989467	702.25
1259.533654	700.5
1260.077785	703.25
1260.62186	703.5
1261.165878	703.25
1261.70984	709.5
1262.253745	721.75
1262.797594	725.5
1263.341386	746.75
1263.885123	756.25
1264.428802	762.0
1264.972425	749.5
1265.515992	732.25
1266.059503	716.0
1266.602957	711.0
1267.146354	702.5
1267.689696	702.25
1268.23298	698.0
1268.776209	701.0
1269.319381	698.5
1269.862497	699.75
1270.405556	700.5
1270.948559	698.5
1271.491506	696.0
1272.034396	695.0
1272.57723	694.5
1273.120007	698.75
1273.662728	701.75
1274.205393	700.5
1274.748002	704.5
1275.290554	702.0
1275.83305	701.5
1276.375489	703.75
1276.917872	705.5
1277.460199	700.25
1278.00247	704.5
1278.544684	710.0
1279.086842	706.25
1279.628943	722.0
1280.170989	721.5
1280.712978	733.25
1281.25491	751.75
1281.796787	797.75
1282.338607	878.25
1282.880371	1062.0
1283.422078	1375.5
1283.963729	1787.75
1284.505324	1839.25
1285.046863	1466.75
1285.588345	1050.75
1286.129772	856.0
1286.671142	782.75
1287.212455	747.0
1287.753713	735.0
1288.294914	726.5
1288.836059	720.5
1289.377147	712.75
1289.91818	710.5
1290.459156	706.75
1291.000076	704.75
1291.54094	703.25
1292.081747	705.25
1292.622499	701.75
1293.163194	699.75
1293.703833	699.75
1294.244415	697.75
1294.784942	699.0
1295.325412	696.75
1295.865826	699.75
1296.406184	692.75
1296.946486	698.25
1297.486731	696.25
1298.026921	696.0
1298.567054	695.0
1299.107131	695.5
1299.647152	698.5
1300.187116	698.0
1300.727025	696.5
1301.266877	694.5
1301.806673	697.25
1302.346413	695.0
1302.886097	694.0
1303.425725	696.25
1303.965297	694.5
1304.504812	687.75
1305.044272	690.0
1305.583675	692.5
1306.123022	690.75
1306.662313	693.0
1307.201548	687.75
1307.740727	690.25
1308.279849	692.25
1308.818916	693.25
1309.357926	691.0
1309.896881	694.0
1310.435779	692.5
1310.974621	690.5
1311.513407	692.5
1312.052137	691.75
1312.590811	693.0
1313.129429	692.5
1313.667991	689.25
1314.206497	694.0
1314.744946	689.75
1315.28334	691.5
1315.821678	688.0
1316.359959	686.25
1316.898184	685.5
1317.436354	690.5
1317.974467	688.75
1318.512525	694.75
1319.050526	689.0
1319.588471	689.5
1320.12636	687.25
1320.664194	688.25
1321.201971	688.5
1321.739692	692.25
1322.277357	692.25
1322.814967	688.75
1323.35252	688.75
1323.890017	690.0
1324.427458	688.25
1324.964843	687.0
1325.502173	691.0
1326.039446	692.0
1326.576663	688.75
1327.113824	686.5
1327.65093	689.5
1328.187979	689.0
1328.724972	687.0
1329.26191	688.5
1329.798791	693.0
1330.335617	687.25
1330.872386	688.25
1331.4091	691.5
1331.945758	690.25
1332.48236	686.75
1333.018905	685.5
1333.555395	687.5
1334.091829	689.5
1334.628207	690.25
1335.164529	688.0
1335.700796	682.25
1336.237006	691.0
1336.77316	686.5
1337.309259	688.0
1337.845301	687.75
1338.381288	689.0
1338.917219	688.0
1339.453094	687.25
1339.988913	687.25
1340.524676	689.0
1341.060383	687.25
1341.596034	687.25
1342.13163	688.5
1342.66717	687.0
1343.202653	686.25
1343.738081	694.5
1344.273453	691.25
1344.80877	691.0
1345.34403	690.25
1345.879235	686.25
1346.414383	687.5
1346.949476	688.0
1347.484513	687.75
1348.019494	688.0
1348.55442	686.0
1349.089289	689.25
1349.624103	691.75
1350.158861	690.5
1350.693563	688.25
1351.228209	690.0
1351.7628	691.75
1352.297334	690.5
1352.831813	691.5
1353.366236	693.75
1353.900604	689.5
1354.434915	690.5
1354.969171	694.25
1355.503371	693.25
1356.037515	689.75
1356.571604	689.0
1357.105636	690.25
1357.639613	690.25
1358.173535	690.75
1358.7074	691.75
1359.24121	696.75
1359.774964	690.5
1360.308662	693.75
1360.842304	693.5
1361.375891	695.5
1361.909422	692.25
1362.442897	690.75
1362.976317	691.5
1363.50968	689.5
1364.042989	691.25
1364.576241	697.0
1365.109438	694.25
1365.642579	697.0
1366.175664	698.25
1366.708693	697.5
1367.241667	695.5
1367.774585	692.75
1368.307448	696.0
1368.840255	700.0
1369.373006	708.25
1369.905701	739.25
1370.438341	732.75
1370.970925	713.0
1371.503454	699.0
1372.035926	700.5
1372.568344	696.0
1373.100705	701.75
1373.633011	702.0
1374.165261	698.75
1374.697456	702.25
1375.229595	699.25
1375.761678	698.75
1376.293705	700.25
1376.825677	704.75
1377.357594	702.5
1377.889455	706.25
1378.42126	708.0
1378.953009	704.5
1379.484703	703.5
1380.016342	707.25
1380.547924	709.75
1381.079452	708.75
1381.610923	715.5
1382.142339	716.5
1382.673699	722.5
1383.205004	727.75
1383.736253	730.0
1384.267447	751.25
1384.798585	763.75
1385.329668	793.75
1385.860695	847.25
1386.391666	958.75
1386.922582	1236.0
1387.453442	1993.75
1387.984247	3079.5
1388.514996	2770.0
1389.04569	1552.75
1389.576328	1016.0
1390.10691	855.5
1390.637437	793.5
1391.167909	767.25
1391.698325	745.5
1392.228685	729.0
1392.75899	721.75
1393.28924	718.75
1393.819434	715.5
1394.349572	714.5
1394.879655	711.5
1395.409683	707.75
1395.939655	704.5
1396.469571	707.5
1396.999432	703.75
1397.529237	701.5
1398.058987	701.75
1398.588682	705.25
1399.118321	704.25
1399.647905	700.5
1400.177433	699.5
1400.706906	697.25
1401.236323	703.25
1401.765685	700.5
1402.294991	701.75
1402.824242	703.0
1403.353437	706.5
1403.882577	699.0
1404.411662	703.0
1404.940691	706.0
1405.469665	709.5
1405.998583	712.25
1406.527446	716.75
1407.056253	722.0
1407.585005	730.5
1408.113702	750.0
1408.642343	772.5
1409.170929	819.75
1409.69946	823.25
1410.227935	792.0
1410.756354	760.75
1411.284719	730.5
1411.813028	718.0
1412.341281	706.0
1412.869479	705.0
1413.397622	696.75
1413.92571	694.75
1414.453742	691.75
1414.981718	693.0
1415.50964	708.75
1416.037506	694.75
1416.565316	693.0
1417.093072	688.0
1417.620772	691.5
1418.148416	693.25
1418.676005	692.75
1419.203539	691.25
1419.731018	692.25
1420.258441	688.75
1420.785809	691.0
1421.313122	686.75
1421.840379	688.75
1422.367582	688.25
1422.894728	690.0
1423.42182	686.0
1423.948856	692.75
1424.475837	688.75
1425.002762	689.25
1425.529633	692.75
1426.056448	685.5
1426.583207	686.5
1427.109912	689.0
1427.636561	685.75
1428.163155	686.75
1428.689694	684.75
1429.216177	684.0
1429.742605	680.25
1430.268978	686.25
1430.795296	684.75
1431.321558	685.25
1431.847765	683.0
1432.373917	685.5
1432.900014	683.5
1433.426056	682.75
1433.952042	680.75
1434.477973	681.5
1435.003849	682.5
1435.529669	683.5
1436.055435	682.0
1436.581145	686.75
1437.1068	684.25
1437.632399	687.25
1438.157944	678.5
1438.683433	682.25
1439.208868	681.5
1439.734247	682.0
1440.25957	686.0
1440.784839	680.0
1441.310053	681.75
1441.835211	684.25
1442.360314	678.0
1442.885362	679.5
1443.410355	679.5
1443.935292	677.5
1444.460175	681.75
1444.985002	678.5
1445.509774	678.0
1446.034491	682.0
1446.559153	681.0
1447.08376	678.0
1447.608312	678.5
1448.132808	681.75
1448.65725	679.25
1449.181636	681.5
1449.705967	680.0
1450.230243	681.0
1450.754464	678.0
1451.27863	678.5
1451.802741	681.75
1452.326797	679.75
1452.850797	674.5
1453.374743	678.5
1453.898633	678.25
1454.422468	678.5
1454.946249	680.25
1455.469974	676.0
1455.993644	678.75
1456.517259	675.5
1457.040819	681.5
1457.564324	676.0
1458.087773	681.0
1458.611168	676.5
1459.134508	678.0
1459.657793	677.75
1460.181022	677.75
1460.704197	678.75
1461.227316	680.0
1461.750381	677.75
1462.27339	678.0
1462.796345	683.0
1463.319244	680.0
1463.842089	680.0
1464.364878	681.5
1464.887613	674.75
1465.410292	677.25
1465.932916	681.25
1466.455486	678.25
1466.978	677.5
1467.50046	675.25
1468.022864	679.0
1468.545214	676.75
1469.067508	676.0
1469.589748	676.0
1470.111932	681.25
1470.634062	675.5
1471.156136	677.25
1471.678156	677.75
1472.20012	678.25
1472.72203	676.25
1473.243885	677.5
1473.765685	679.0
1474.28743	674.75
1474.80912	675.5
1475.330755	680.25
1475.852335	677.25
1476.37386	678.0
1476.89533	676.75
1477.416745	676.5
1477.938106	674.5
1478.459411	680.0
1478.980662	677.0
1479.501857	681.25
1480.022998	678.5
1480.544084	679.25
1481.065115	675.75
1481.586091	678.0
1482.107012	677.5
1482.627878	673.75
1483.14869	679.25
1483.669446	675.75
1484.190148	677.0
1484.710794	677.75
1485.231386	674.0
1485.751923	676.0
1486.272406	679.25
1486.792833	677.0
1487.313205	674.75
1487.833523	682.5
1488.353786	677.0
1488.873994	676.5
1489.394147	675.5
1489.914245	677.0
1490.434288	679.25
1490.954277	676.5
1491.474211	671.5
1491.99409	675.25
1492.513914	674.0
1493.033683	676.75
1493.553398	673.75
1494.073057	674.75
1494.592662	678.5
1495.112212	674.75
1495.631708	677.25
1496.151148	674.5
1496.670534	678.25
1497.189865	674.0
1497.709141	676.5
1498.228362	677.75
1498.747529	675.75
1499.266641	678.25
1499.785698	681.25
1500.3047	679.75
1500.823648	675.5
1501.34254	676.0
1501.861379	679.75
1502.380162	676.25
1502.89889	676.25
1503.417564	678.0
1503.936183	672.75
1504.454748	678.0
1504.973257	672.0
1505.491712	677.25
1506.010112	677.5
1506.528458	676.5
1507.046748	679.0
1507.564984	673.25
1508.083166	677.75
1508.601292	676.0
1509.119364	677.0
1509.637381	676.75
1510.155344	672.5
1510.673252	687.5
1511.191105	674.5
1511.708903	674.25
1512.226647	677.75
1512.744336	676.25
1513.261971	677.5
1513.77955	675.0
1514.297076	675.5
1514.814546	674.25
1515.331962	675.0
1515.849323	675.25
1516.366629	673.25
1516.883881	675.25
1517.401078	674.75
1517.918221	677.5
1518.435309	677.0
1518.952342	674.5
1519.469321	674.25
1519.986245	672.75
1520.503114	672.75
1521.019929	678.0
1521.536689	675.25
1522.053395	675.5
1522.570046	679.25
1523.086642	675.75
1523.603184	675.5
1524.119671	673.75
1524.636103	674.75
1525.152481	677.5
1525.668805	676.25
1526.185073	681.5
1526.701288	679.0
1527.217447	674.75
1527.733552	672.5
1528.249603	675.75
1528.765599	673.5
1529.28154	675.75
1529.797427	674.0
1530.313259	677.75
1530.829037	675.75
1531.34476	677.25
1531.860429	673.0
1532.376043	672.25
1532.891602	678.75
1533.407107	676.0
1533.922558	675.25
1534.437954	677.5
1534.953295	676.0
1535.468582	676.25
1535.983815	674.5
1536.498993	674.0
1537.014116	678.75
1537.529185	675.0
1538.044199	672.75
1538.559159	674.75
1539.074064	675.75
1539.588915	674.0
1540.103712	678.25
1540.618454	673.75
1541.133141	674.5
1541.647774	675.0
1542.162353	676.5
1542.676877	674.5
1543.191346	674.5
1543.705761	676.75
1544.220122	672.25
1544.734428	677.25
1545.24868	676.75
1545.762877	677.25
1546.27702	679.5
1546.791109	675.75
1547.305143	678.75
1547.819122	680.0
1548.333047	677.25
1548.846918	675.25
1549.360734	678.75
1549.874496	677.75
1550.388204	675.0
1550.901857	682.0
1551.415455	678.5
1551.929	680.25
1552.442489	683.75
1552.955925	691.5
1553.469306	695.5
1553.982632	714.5
1554.495905	719.25
1555.009123	705.5
1555.522286	689.25
1556.035395	684.75
1556.54845	681.0
1557.06145	676.75
1557.574396	681.25
1558.087288	677.25
1558.600125	673.25
1559.112908	675.25
1559.625637	678.25
1560.138311	677.0
1560.650931	676.0
1561.163497	679.5
1561.676008	673.5
1562.188465	677.5
1562.700867	681.0
1563.213216	678.5
1563.725509	679.25
1564.237749	677.75
1564.749934	674.5
1565.262065	677.25
1565.774142	672.5
1566.286164	672.0
1566.798132	674.25
1567.310046	674.0
1567.821906	679.25
1568.333711	676.5
1568.845462	672.75
1569.357158	676.25
1569.868801	677.0
1570.380389	680.0
1570.891922	675.25
1571.403402	672.5
1571.914827	672.25
1572.426198	677.5
1572.937515	675.0
1573.448777	675.5
1573.959985	675.5
1574.471139	677.0
1574.982239	676.75
1575.493285	677.25
1576.004276	675.5
1576.515213	674.75
1577.026096	674.0
1577.536924	672.25
1578.047698	677.5
1578.558419	673.5
1579.069084	678.5
1579.579696	674.25
1580.090254	674.0
1580.600757	675.75
1581.111206	674.25
1581.621601	676.0
1582.131941	677.75
1582.642228	676.0
1583.15246	674.25
1583.662638	677.75
1584.172762	676.5
1584.682832	676.75
1585.192847	676.0
1585.702809	676.25
1586.212716	677.5
1586.722569	677.75
1587.232368	675.75
1587.742113	673.75
1588.251803	676.25
1588.76144	678.25
1589.271022	677.5
1589.78055	674.0
1590.290024	677.25
1590.799444	676.75
1591.30881	674.75
1591.818121	674.0
1592.327379	674.25
