1042.414189	1316.0
1042.980685	1317.0
1043.547124	1327.0
1044.113505	1334.0
1044.679828	1302.0
1045.246093	1335.0
1045.8123	1291.0
1046.378449	1303.0
1046.94454	1293.0
1047.510573	1327.0
1048.076548	1290.0
1048.642465	1331.0
1049.208325	1324.0
1049.774126	1314.0
1050.339869	1340.0
1050.905555	1298.0
1051.471183	1286.0
1052.036752	1307.0
1052.602264	1305.0
1053.167718	1301.0
1053.733114	1291.0
1054.298452	1299.0
1054.863733	1317.0
1055.428955	1291.0
1055.994119	1311.0
1057.124275	1308.0
1057.689266	1320.0
1058.254199	1311.0
1058.819074	1285.0
1059.383891	1289.0
1059.94865	1281.0
1060.513352	1293.0
1061.077996	1275.0
1061.642582	1290.0
1062.20711	1281.0
1062.77158	1289.0
1063.335992	1299.0
1063.900347	1271.0
1064.464643	1290.0
1065.028882	1294.0
1065.593063	1318.0
1066.157187	1291.0
1066.721252	1295.0
1067.28526	1280.0
1067.84921	1269.0
1068.413102	1281.0
1068.976936	1284.0
1069.540713	1278.0
1070.104431	1302.0
1070.668092	1316.0
1071.231696	1267.0
1071.795241	1265.0
1072.358729	1267.0
1072.922159	1285.0
1073.485531	1270.0
1074.048845	1284.0
1074.612102	1289.0
1075.175301	1277.0
1075.738442	1282.0
1076.301525	1287.0
1076.864551	1288.0
1077.427519	1284.0
1077.990429	1255.0
1078.553281	1245.0
1079.116076	1292.0
1079.678813	1282.0
1080.241492	1302.0
1080.804114	1303.0
1081.366678	1267.0
1081.929184	1295.0
1082.491633	1284.0
1083.054024	1281.0
1083.616357	1285.0
1084.178632	1286.0
1084.74085	1277.0
1085.30301	1286.0
1085.865113	1285.0
1086.427158	1308.0
1086.989145	1282.0
1087.551074	1275.0
1088.112946	1285.0
1088.67476	1305.0
1089.236517	1297.0
1089.798216	1304.0
1090.359857	1305.0
1090.92144	1284.0
1091.482966	1287.0
1092.044435	1277.0
1092.605845	1302.0
1093.167199	1312.0
1093.728494	1315.0
1094.289732	1302.0
1094.850912	1312.0
1095.412035	1288.0
1095.9731	1324.0
1096.534107	1295.0
1097.65595	1287.0
1098.216784	1301.0
1098.777561	1279.0
1099.338281	1280.0
1100.459547	1258.0
1101.020094	1276.0
1101.580584	1247.0
1102.141015	1259.0
1102.701389	1228.0
1103.261706	1266.0
1103.821965	1238.0
1104.382167	1220.0
1104.942311	1233.0
1105.502397	1250.0
1106.062426	1252.0
1106.622398	1225.0
1107.182312	1239.0
1107.742168	1229.0
1108.301967	1230.0
1108.861708	1224.0
1109.421392	1236.0
1109.981019	1245.0
1110.540587	1212.0
1111.100099	1236.0
1111.659553	1211.0
1112.218949	1223.0
1112.778288	1227.0
1113.33757	1223.0
1113.896794	1218.0
1114.45596	1221.0
1115.015069	1208.0
1115.574121	1223.0
1116.133115	1218.0
1116.692052	1188.0
1117.250931	1224.0
1117.809753	1202.0
1118.368517	1225.0
1118.927224	1232.0
1119.485873	1221.0
1120.044465	1209.0
1120.603	1228.0
1121.161477	1204.0
1121.719897	1202.0
1122.278259	1175.0
1122.836564	1199.0
1123.394812	1202.0
1123.953002	1212.0
1124.511135	1191.0
1125.06921	1229.0
1125.627228	1236.0
1126.185189	1216.0
1126.743092	1184.0
1127.300938	1200.0
1127.858726	1214.0
1128.416457	1177.0
1128.974131	1191.0
1129.531748	1192.0
1130.089307	1199.0
1130.646808	1213.0
1131.204252	1191.0
1131.761639	1245.0
1132.318969	1187.0
1132.876241	1219.0
1133.433456	1202.0
1133.990614	1179.0
1134.547714	1201.0
1135.104757	1197.0
1135.661743	1179.0
1136.218671	1185.0
1136.775542	1181.0
1137.332356	1182.0
1137.889112	1185.0
1138.445811	1169.0
1139.002453	1186.0
1139.559037	1182.0
1140.115565	1187.0
1140.672035	1182.0
1141.228447	1199.0
1141.784803	1185.0
1142.341101	1179.0
1142.897342	1213.0
1143.453525	1189.0
1144.009651	1181.0
1144.565721	1217.0
1145.121732	1195.0
1145.677687	1190.0
1146.233584	1201.0
1146.789424	1203.0
1147.345207	1207.0
1147.900933	1179.0
1148.456601	1181.0
1149.012212	1187.0
1149.567766	1161.0
1150.123263	1210.0
1150.678702	1170.0
1151.234085	1231.0
1151.78941	1197.0
1152.344678	1202.0
1152.899888	1172.0
1153.455042	1189.0
1154.010138	1222.0
1154.565177	1193.0
1155.120159	1193.0
1155.675084	1206.0
1156.229951	1195.0
1156.784762	1204.0
1157.339515	1195.0
1157.894211	1207.0
1158.44885	1204.0
1159.003432	1210.0
1159.557956	1194.0
1160.112424	1236.0
1160.666834	1171.0
1161.221187	1193.0
1161.775483	1185.0
1162.329722	1177.0
1162.883904	1190.0
1163.438029	1191.0
1163.992096	1188.0
1164.546107	1192.0
1165.10006	1198.0
1165.653956	1187.0
1166.207795	1186.0
1166.761577	1200.0
1167.315302	1211.0
1167.86897	1183.0
1168.422581	1195.0
1168.976134	1169.0
1169.529631	1205.0
1170.08307	1192.0
1170.636453	1215.0
1171.189778	1210.0
1171.743046	1214.0
1172.296257	1213.0
1172.849412	1189.0
1173.402509	1219.0
1173.955549	1221.0
1174.508532	1222.0
1175.061458	1166.0
1175.614327	1184.0
1176.167138	1148.0
1176.719893	1214.0
1177.272591	1177.0
1177.825232	1209.0
1178.377816	1187.0
1178.930342	1190.0
1179.482812	1166.0
1180.035225	1190.0
1180.587581	1193.0
1181.139879	1205.0
1181.692121	1185.0
1182.244306	1181.0
1182.796434	1196.0
1183.348504	1176.0
1183.900518	1153.0
1184.452475	1195.0
1185.004375	1218.0
1185.556218	1212.0
1186.108004	1194.0
1186.659733	1182.0
1187.211405	1174.0
1187.76302	1169.0
1188.314578	1195.0
1188.866079	1186.0
1189.417523	1170.0
1189.96891	1191.0
1190.520241	1211.0
1191.071514	1189.0
1191.622731	1198.0
1192.17389	1190.0
1192.724993	1191.0
1193.276039	1187.0
1193.827027	1190.0
1194.377959	1178.0
1194.928834	1157.0
1195.479653	1183.0
1196.030414	1174.0
1196.581118	1175.0
1197.131766	1166.0
1197.682356	1179.0
1198.23289	1161.0
1198.783367	1193.0
1199.333786	1163.0
1199.88415	1184.0
1200.434456	1183.0
1200.984705	1164.0
1201.534898	1187.0
1202.085033	1175.0
1202.635112	1161.0
1203.185134	1167.0
1203.735099	1187.0
1204.285007	1176.0
1204.834859	1170.0
1205.384653	1189.0
1207.033696	1155.0
1207.583263	1151.0
1208.132774	1176.0
1208.682228	1173.0
1209.231624	1175.0
1209.780965	1176.0
1210.330248	1146.0
1210.879474	1174.0
1211.428644	1163.0
1211.977757	1171.0
1212.526813	1151.0
1213.624755	1150.0
1214.173641	1169.0
1214.72247	1177.0
1215.271242	1208.0
1215.819958	1166.0
1216.368617	1165.0
1216.917219	1150.0
1217.465764	1169.0
1218.014253	1174.0
1218.562685	1191.0
1219.11106	1183.0
1219.659378	1203.0
1220.20764	1194.0
1220.755845	1153.0
1221.303993	1161.0
1221.852085	1168.0
1222.400119	1158.0
1222.948097	1168.0
1223.496019	1163.0
1224.043883	1156.0
1224.591691	1152.0
1225.139443	1169.0
1225.687137	1168.0
1226.234775	1158.0
1226.782357	1203.0
1227.329881	1189.0
1227.877349	1155.0
1228.42476	1180.0
1228.972115	1179.0
1229.519413	1134.0
1230.066654	1145.0
1230.613839	1171.0
1231.160967	1178.0
1231.708038	1146.0
1232.255053	1155.0
1232.802011	1159.0
1233.348912	1158.0
1233.895757	1171.0
1234.442545	1139.0
1234.989277	1172.0
1235.535951	1152.0
1236.08257	1168.0
1236.629131	1165.0
1237.175636	1169.0
1237.722085	1166.0
1238.268477	1158.0
1238.814812	1138.0
1239.361091	1140.0
1239.907313	1146.0
1240.453478	1155.0
1240.999587	1144.0
1241.54564	1143.0
1242.091636	1145.0
1242.637575	1147.0
1243.183457	1179.0
1243.729284	1161.0
1244.275053	1152.0
1244.820766	1163.0
1245.366423	1146.0
1245.912022	1165.0
1246.457566	1146.0
1247.003053	1160.0
1247.548483	1166.0
1248.093857	1172.0
1248.639174	1164.0
1249.184435	1147.0
1249.729639	1136.0
1250.819878	1139.0
1251.364912	1141.0
1251.909891	1134.0
1252.454812	1167.0
1252.999677	1147.0
1253.544486	1139.0
1254.089238	1159.0
1254.633934	1150.0
1255.178573	1134.0
1255.723156	1145.0
1256.267682	1157.0
1256.812152	1149.0
1257.356565	1163.0
1257.900922	1167.0
1258.445223	1153.0
1258.989467	1145.0
1259.533654	1123.0
1260.077785	1166.0
1260.62186	1167.0
1261.165878	1146.0
1261.70984	1145.0
1262.253745	1156.0
1262.797594	1140.0
1263.341386	1170.0
1263.885123	1136.0
1264.428802	1165.0
1264.972425	1187.0
1265.515992	1200.0
1266.059503	1190.0
1266.602957	1180.0
1267.146354	1170.0
1267.689696	1138.0
1268.23298	1153.0
1268.776209	1172.0
1269.319381	1138.0
1269.862497	1171.0
1270.405556	1160.0
1270.948559	1140.0
1271.491506	1149.0
1272.034396	1158.0
1272.57723	1167.0
1273.120007	1170.0
1273.662728	1166.0
1274.205393	1143.0
1274.748002	1154.0
1275.290554	1121.0
1275.83305	1158.0
1276.375489	1162.0
1276.917872	1147.0
1277.460199	1156.0
1278.00247	1143.0
1279.086842	1137.0
1279.628943	1144.0
1280.170989	1155.0
1280.712978	1158.0
1281.25491	1137.0
1281.796787	1147.0
1282.338607	1127.0
1282.880371	1148.0
1283.422078	1145.0
1283.963729	1157.0
1284.505324	1163.0
1285.046863	1241.0
1285.588345	1430.0
1286.129772	1449.0
1286.671142	1237.0
1287.212455	1170.0
1287.753713	1158.0
1288.294914	1174.0
1288.836059	1152.0
1289.377147	1129.0
1289.91818	1143.0
1290.459156	1129.0
1291.000076	1145.0
1291.54094	1143.0
1292.081747	1138.0
1292.622499	1148.0
1293.163194	1168.0
1293.703833	1124.0
1294.244415	1141.0
1294.784942	1140.0
1295.325412	1143.0
1295.865826	1120.0
1296.406184	1159.0
1296.946486	1127.0
1297.486731	1123.0
1298.026921	1133.0
1298.567054	1136.0
1299.107131	1149.0
1299.647152	1142.0
1300.727025	1155.0
1301.266877	1154.0
1301.806673	1133.0
1302.346413	1137.0
1302.886097	1150.0
1303.425725	1129.0
1303.965297	1146.0
1304.504812	1117.0
1305.044272	1153.0
1305.583675	1175.0
1306.123022	1137.0
1306.662313	1123.0
1307.201548	1136.0
1307.740727	1129.0
1308.279849	1118.0
1308.818916	1136.0
1309.357926	1126.0
1309.896881	1137.0
1310.974621	1144.0
1311.513407	1118.0
1312.052137	1091.0
1312.590811	1121.0
1313.129429	1148.0
1313.667991	1139.0
1314.206497	1134.0
1314.744946	1124.0
1315.28334	1115.0
1315.821678	1102.0
1316.359959	1133.0
1316.898184	1137.0
1317.436354	1123.0
1317.974467	1145.0
1318.512525	1122.0
1319.050526	1135.0
1319.588471	1133.0
1320.12636	1129.0
1320.664194	1107.0
1321.201971	1129.0
1321.739692	1116.0
1322.277357	1139.0
1322.814967	1141.0
1323.35252	1113.0
1324.427458	1118.0
1324.964843	1128.0
1325.502173	1129.0
1326.039446	1158.0
1326.576663	1129.0
1327.113824	1132.0
1327.65093	1145.0
1328.187979	1142.0
1328.724972	1124.0
1329.26191	1117.0
1329.798791	1127.0
1330.335617	1124.0
1330.872386	1128.0
1331.4091	1144.0
1331.945758	1101.0
1332.48236	1118.0
1333.018905	1123.0
1333.555395	1127.0
1334.091829	1140.0
1334.628207	1117.0
1335.164529	1123.0
1335.700796	1103.0
1336.237006	1135.0
1336.77316	1136.0
1337.309259	1134.0
1337.845301	1138.0
1338.381288	1140.0
1338.917219	1118.0
1339.453094	1126.0
1339.988913	1147.0
1340.524676	1131.0
1341.060383	1124.0
1341.596034	1124.0
1342.13163	1119.0
1342.66717	1131.0
1343.202653	1117.0
1343.738081	1146.0
1344.273453	1123.0
1344.80877	1110.0
1345.34403	1127.0
1345.879235	1121.0
1346.414383	1138.0
1346.949476	1134.0
1347.484513	1101.0
1348.019494	1127.0
1348.55442	1107.0
1349.624103	1107.0
1350.158861	1108.0
1350.693563	1143.0
1351.228209	1108.0
1351.7628	1118.0
1352.297334	1124.0
1352.831813	1121.0
1353.366236	1107.0
1353.900604	1103.0
1354.434915	1093.0
1354.969171	1129.0
1355.503371	1111.0
1356.037515	1114.0
1356.571604	1108.0
1357.105636	1107.0
1357.639613	1123.0
1358.173535	1122.0
1358.7074	1121.0
1359.24121	1124.0
1359.774964	1129.0
1360.308662	1108.0
1360.842304	1119.0
1361.375891	1111.0
1361.909422	1118.0
1362.442897	1133.0
1362.976317	1117.0
1363.50968	1118.0
1364.042989	1116.0
1364.576241	1113.0
1365.109438	1115.0
1366.175664	1126.0
1366.708693	1136.0
1367.241667	1114.0
1367.774585	1105.0
1368.307448	1104.0
1368.840255	1107.0
1369.373006	1114.0
1369.905701	1136.0
1370.438341	1107.0
1370.970925	1127.0
1371.503454	1099.0
1372.035926	1107.0
1372.568344	1117.0
1373.100705	1099.0
1373.633011	1126.0
1374.165261	1154.0
1374.697456	1127.0
1375.229595	1112.0
1375.761678	1124.0
1376.293705	1135.0
1376.825677	1100.0
1377.357594	1122.0
1377.889455	1124.0
1378.42126	1115.0
1378.953009	1122.0
1379.484703	1091.0
1380.016342	1108.0
1380.547924	1118.0
1381.079452	1112.0
1381.610923	1127.0
1382.142339	1127.0
1382.673699	1093.0
1383.205004	1125.0
1383.736253	1132.0
1384.267447	1122.0
1384.798585	1123.0
1385.329668	1096.0
1385.860695	1137.0
1386.391666	1110.0
1386.922582	1111.0
1387.453442	1106.0
1387.984247	1158.0
1388.514996	1342.0
1389.04569	1714.0
1389.576328	1451.0
1390.10691	1176.0
1390.637437	1127.0
1391.167909	1105.0
1391.698325	1115.0
1392.228685	1114.0
1392.75899	1108.0
1393.28924	1126.0
1393.819434	1108.0
1394.349572	1121.0
1394.879655	1138.0
1395.939655	1117.0
1396.469571	1097.0
1396.999432	1122.0
1397.529237	1122.0
1398.058987	1108.0
1398.588682	1099.0
1399.118321	1130.0
1399.647905	1099.0
1400.177433	1117.0
1400.706906	1115.0
1401.236323	1120.0
1401.765685	1113.0
1402.294991	1122.0
1402.824242	1144.0
1403.353437	1102.0
1403.882577	1098.0
1405.469665	1112.0
1405.998583	1124.0
1406.527446	1105.0
1407.056253	1123.0
1407.585005	1128.0
1408.113702	1134.0
1408.642343	1116.0
1409.170929	1132.0
1409.69946	1116.0
1410.227935	1184.0
1410.756354	1185.0
1411.284719	1125.0
1411.813028	1110.0
1412.341281	1097.0
1412.869479	1103.0
1413.397622	1101.0
1413.92571	1087.0
1414.453742	1109.0
1414.981718	1133.0
1415.50964	1122.0
1416.037506	1111.0
1416.565316	1101.0
1417.093072	1113.0
1417.620772	1095.0
1418.148416	1098.0
1419.203539	1084.0
1419.731018	1103.0
1420.258441	1107.0
1420.785809	1121.0
1421.313122	1104.0
1421.840379	1096.0
1422.367582	1107.0
1422.894728	1101.0
1423.42182	1103.0
1423.948856	1120.0
1424.475837	1116.0
1425.002762	1110.0
1425.529633	1087.0
1426.056448	1106.0
1426.583207	1091.0
1427.109912	1096.0
1427.636561	1081.0
1428.163155	1100.0
1428.689694	1118.0
1429.216177	1114.0
1429.742605	1105.0
1430.268978	1093.0
1430.795296	1089.0
1431.321558	1094.0
1431.847765	1097.0
1432.373917	1072.0
1432.900014	1090.0
1433.426056	1101.0
1433.952042	1099.0
1434.477973	1116.0
1435.003849	1107.0
1435.529669	1095.0
1436.055435	1081.0
1436.581145	1085.0
1437.1068	1085.0
1437.632399	1076.0
1438.157944	1091.0
1438.683433	1096.0
1439.208868	1065.0
1439.734247	1098.0
1440.25957	1086.0
1440.784839	1086.0
1441.310053	1069.0
1441.835211	1064.0
1442.360314	1105.0
1442.885362	1102.0
1443.410355	1110.0
1443.935292	1082.0
1444.460175	1104.0
1444.985002	1094.0
1445.509774	1098.0
1446.034491	1104.0
1446.559153	1080.0
1447.08376	1116.0
1447.608312	1085.0
1448.132808	1093.0
1448.65725	1071.0
1449.181636	1114.0
1449.705967	1106.0
1450.230243	1096.0
1450.754464	1099.0
1451.27863	1094.0
1451.802741	1095.0
1452.326797	1070.0
1452.850797	1114.0
1453.374743	1109.0
1453.898633	1094.0
1454.422468	1089.0
1454.946249	1107.0
1455.469974	1071.0
1455.993644	1082.0
1456.517259	1114.0
1457.040819	1078.0
1457.564324	1099.0
1458.087773	1102.0
1458.611168	1080.0
1459.134508	1079.0
1459.657793	1105.0
1460.181022	1066.0
1460.704197	1090.0
1461.227316	1090.0
1461.750381	1114.0
1462.796345	1099.0
1463.319244	1095.0
1463.842089	1112.0
1464.364878	1106.0
1464.887613	1082.0
1465.410292	1079.0
1465.932916	1095.0
1466.455486	1083.0
1466.978	1065.0
1467.50046	1077.0
1468.022864	1099.0
1468.545214	1079.0
1469.067508	1105.0
1469.589748	1112.0
1470.111932	1086.0
1470.634062	1067.0
1471.156136	1095.0
1471.678156	1091.0
1472.20012	1083.0
1472.72203	1063.0
1473.243885	1085.0
1473.765685	1086.0
1474.28743	1076.0
1474.80912	1090.0
1475.330755	1071.0
1475.852335	1066.0
1476.37386	1102.0
1476.89533	1079.0
1477.416745	1080.0
1479.501857	1062.0
1480.022998	1074.0
1480.544084	1090.0
1481.065115	1090.0
1481.586091	1077.0
1482.107012	1063.0
1482.627878	1059.0
1483.14869	1068.0
1483.669446	1071.0
1484.190148	1077.0
1484.710794	1072.0
1485.231386	1075.0
1485.751923	1062.0
1486.272406	1083.0
1486.792833	1077.0
1487.313205	1068.0
1487.833523	1093.0
1488.353786	1068.0
1488.873994	1072.0
1489.394147	1098.0
1489.914245	1062.0
1490.434288	1092.0
1490.954277	1096.0
1491.474211	1060.0
1491.99409	1071.0
1492.513914	1066.0
1493.033683	1069.0
1493.553398	1068.0
1494.073057	1075.0
1494.592662	1076.0
1495.112212	1084.0
1495.631708	1066.0
1496.151148	1091.0
1496.670534	1058.0
1497.189865	1071.0
1497.709141	1088.0
1498.228362	1070.0
1498.747529	1077.0
1499.266641	1067.0
1499.785698	1090.0
1500.3047	1093.0
1500.823648	1070.0
1501.34254	1067.0
1501.861379	1076.0
1502.380162	1075.0
1502.89889	1066.0
1503.417564	1086.0
1503.936183	1079.0
1504.454748	1094.0
1504.973257	1066.0
1505.491712	1063.0
1506.010112	1073.0
1506.528458	1075.0
1507.046748	1067.0
1507.564984	1079.0
1508.083166	1071.0
1508.601292	1062.0
1509.119364	1074.0
1509.637381	1074.0
1510.155344	1049.0
1510.673252	1072.0
1511.191105	1063.0
1511.708903	1067.0
1512.226647	1073.0
1512.744336	1055.0
1513.261971	1075.0
1513.77955	1049.0
1514.297076	1083.0
1514.814546	1088.0
1515.331962	1057.0
1515.849323	1071.0
1516.366629	1092.0
1516.883881	1079.0
1517.918221	1084.0
1518.435309	1073.0
1518.952342	1073.0
1519.469321	1062.0
1519.986245	1067.0
1520.503114	1061.0
1521.019929	1064.0
1521.536689	1061.0
1522.053395	1076.0
1522.570046	1065.0
1523.086642	1072.0
1523.603184	1048.0
1524.119671	1052.0
1524.636103	1054.0
1525.152481	1059.0
1525.668805	1104.0
1526.185073	1086.0
1526.701288	1057.0
1527.217447	1077.0
1527.733552	1069.0
1528.249603	1060.0
1528.765599	1070.0
1529.28154	1067.0
1529.797427	1055.0
1530.313259	1071.0
1530.829037	1078.0
1531.34476	1054.0
1531.860429	1069.0
1532.376043	1063.0
1532.891602	1062.0
1533.407107	1068.0
1533.922558	1063.0
1534.437954	1087.0
1534.953295	1087.0
1535.468582	1062.0
1535.983815	1064.0
1536.498993	1074.0
1537.014116	1076.0
1537.529185	1093.0
1538.044199	1045.0
1538.559159	1064.0
1539.074064	1051.0
1539.588915	1090.0
1540.103712	1080.0
1540.618454	1048.0
1541.133141	1075.0
1541.647774	1053.0
1542.162353	1063.0
1542.676877	1065.0
1543.191346	1066.0
1543.705761	1072.0
1544.220122	1089.0
1544.734428	1075.0
1545.24868	1074.0
1545.762877	1058.0
1546.27702	1068.0
1546.791109	1072.0
1547.305143	1076.0
1547.819122	1074.0
1548.333047	1050.0
1548.846918	1046.0
1549.360734	1076.0
1549.874496	1061.0
1550.388204	1057.0
1550.901857	1080.0
1551.415455	1046.0
1551.929	1074.0
1552.442489	1042.0
1552.955925	1067.0
1553.469306	1072.0
1553.982632	1044.0
1554.495905	1063.0
1555.009123	1052.0
1555.522286	1065.0
1556.035395	1044.0
1556.54845	1069.0
1557.06145	1066.0
1557.574396	1070.0
1558.087288	1069.0
1558.600125	1050.0
1559.112908	1068.0
1559.625637	1063.0
1560.138311	1064.0
1560.650931	1079.0
1561.163497	1066.0
1561.676008	1047.0
1562.188465	1056.0
1562.700867	1063.0
1563.213216	1039.0
1563.725509	1046.0
1564.237749	1067.0
1564.749934	1056.0
1565.262065	1041.0
1566.286164	1046.0
1566.798132	1054.0
1567.310046	1049.0
1567.821906	1047.0
1568.333711	1056.0
1568.845462	1056.0
1569.357158	1061.0
1569.868801	1062.0
1570.380389	1059.0
1570.891922	1067.0
1571.403402	1071.0
1571.914827	1060.0
1572.426198	1068.0
1572.937515	1059.0
1573.448777	1064.0
1573.959985	1070.0
1574.471139	1067.0
1574.982239	1065.0
1575.493285	1057.0
1576.004276	1032.0
1576.515213	1045.0
1577.026096	1081.0
1577.536924	1063.0
1578.047698	1058.0
1578.558419	1062.0
1579.069084	1055.0
1579.579696	1075.0
1580.090254	1056.0
1580.600757	1053.0
1581.111206	1062.0
1581.621601	1061.0
1582.131941	1059.0
1582.642228	1043.0
1583.15246	1045.0
1583.662638	1058.0
1584.172762	1048.0
1584.682832	1061.0
1585.192847	1075.0
1585.702809	1059.0
1586.212716	1073.0
1586.722569	1052.0
1587.232368	1052.0
1587.742113	1044.0
1588.251803	1056.0
1588.76144	1035.0
1589.271022	1051.0
1589.78055	1067.0
1590.290024	1050.0
1590.799444	1055.0
1591.30881	1058.0
1591.818121	1062.0
