1042.414189	694.4000244
1042.980685	696.4000244
1043.547124	698.7999878
1044.113505	695.0
1044.679828	692.7999878
1045.246093	692.0
1045.8123	692.7999878
1046.378449	690.4000244
1046.94454	690.4000244
1047.510573	692.5999756
1048.076548	695.4000244
1048.642465	690.7999878
1049.208325	694.2000122
1049.774126	694.4000244
1050.339869	693.5999756
1050.905555	688.2000122
1051.471183	692.4000244
1052.036752	692.2000122
1052.602264	690.7999878
1053.167718	688.4000244
1053.733114	686.7999878
1054.298452	691.2000122
1054.863733	688.2000122
1055.428955	690.2000122
1055.994119	689.2000122
1056.559226	686.0
1057.124275	684.7999878
1057.689266	688.5999756
1058.254199	688.4000244
1058.819074	689.5999756
1059.383891	686.2000122
1059.94865	684.7999878
1060.513352	688.2000122
1061.077996	687.0
1061.642582	690.4000244
1062.20711	689.5999756
1062.77158	689.5999756
1063.335992	688.4000244
1063.900347	686.0
1064.464643	686.2000122
1065.028882	686.2000122
1065.593063	686.7999878
1066.157187	690.2000122
1066.721252	686.2000122
1067.28526	686.2000122
1067.84921	686.5999756
1068.413102	685.5999756
1068.976936	688.0
1069.540713	685.4000244
1070.104431	688.4000244
1070.668092	685.5999756
1071.231696	689.0
1071.795241	690.7999878
1072.358729	685.4000244
1072.922159	690.5999756
1073.485531	689.2000122
1074.048845	685.7999878
1074.612102	687.0
1075.175301	685.5999756
1075.738442	687.0
1076.301525	689.2000122
1076.864551	686.0
1077.427519	689.2000122
1077.990429	688.5999756
1078.553281	687.0
1079.116076	687.2000122
1079.678813	685.4000244
1080.241492	686.5999756
1080.804114	689.0
1081.366678	688.2000122
1081.929184	685.2000122
1082.491633	688.7999878
1083.054024	688.2000122
1083.616357	681.4000244
1084.178632	684.4000244
1084.74085	682.4000244
1085.30301	686.2000122
1085.865113	690.5999756
1086.427158	682.2000122
1086.989145	690.5999756
1087.551074	683.7999878
1088.112946	686.5999756
1088.67476	687.7999878
1089.236517	683.7999878
1089.798216	686.5999756
1090.359857	683.5999756
1090.92144	684.0
1091.482966	683.2000122
1092.044435	683.4000244
1092.605845	685.2000122
1093.167199	685.0
1093.728494	685.5999756
1094.289732	683.2000122
1094.850912	684.2000122
1095.412035	692.2000122
1095.9731	683.7999878
1096.534107	688.2000122
1097.095057	692.7999878
1097.65595	682.4000244
1098.216784	686.0
1098.777561	684.7999878
1099.338281	686.0
1099.898943	685.2000122
1100.459547	685.0
1101.020094	684.2000122
1101.580584	683.0
1102.141015	686.5999756
1102.701389	688.2000122
1103.261706	681.5999756
1103.821965	679.7999878
1104.382167	688.0
1104.942311	684.7999878
1105.502397	683.5999756
1106.062426	684.0
1106.622398	687.4000244
1107.182312	684.5999756
1107.742168	685.5999756
1108.301967	685.0
1108.861708	685.7999878
1109.421392	687.5999756
1109.981019	686.0
1110.540587	684.0
1111.100099	683.5999756
1111.659553	679.7999878
1112.218949	686.4000244
1112.778288	683.0
1113.33757	687.2000122
1113.896794	685.4000244
1114.45596	683.2000122
1115.015069	682.7999878
1115.574121	683.5999756
1116.133115	687.2000122
1116.692052	683.5999756
1117.250931	686.0
1117.809753	688.0
1118.368517	684.5999756
1118.927224	683.2000122
1119.485873	686.0
1120.044465	688.2000122
1120.603	685.2000122
1121.161477	679.7999878
1121.719897	687.2000122
1122.278259	683.0
1122.836564	684.7999878
1123.394812	687.0
1123.953002	685.2000122
1124.511135	686.0
1125.06921	685.5999756
1125.627228	679.4000244
1126.185189	684.5999756
1126.743092	683.2000122
1127.300938	683.2000122
1127.858726	684.0
1128.416457	684.2000122
1128.974131	687.5999756
1129.531748	684.0
1130.089307	686.0
1130.646808	683.4000244
1131.204252	684.5999756
1131.761639	686.0
1132.318969	686.2000122
1132.876241	687.0
1133.433456	687.0
1133.990614	685.7999878
1134.547714	687.0
1135.104757	683.4000244
1135.661743	686.0
1136.218671	682.4000244
1136.775542	685.4000244
1137.332356	685.2000122
1137.889112	682.5999756
1138.445811	685.7999878
1139.002453	684.2000122
1139.559037	684.2000122
1140.115565	684.2000122
1140.672035	682.4000244
1141.228447	683.4000244
1141.784803	683.7999878
1142.341101	686.7999878
1142.897342	684.4000244
1143.453525	685.2000122
1144.009651	683.0
1144.565721	684.7999878
1145.121732	683.2000122
1145.677687	683.7999878
1146.233584	685.7999878
1146.789424	685.0
1147.345207	684.4000244
1147.900933	686.2000122
1148.456601	683.0
1149.012212	683.2000122
1149.567766	683.5999756
1150.123263	685.7999878
1150.678702	685.5999756
1151.234085	686.2000122
1151.78941	687.0
1152.344678	687.2000122
1152.899888	685.2000122
1153.455042	682.0
1154.010138	684.0
1154.565177	687.2000122
1155.120159	685.4000244
1155.675084	684.2000122
1156.229951	684.0
1156.784762	682.2000122
1157.339515	685.4000244
1157.894211	685.5999756
1158.44885	684.7999878
1159.003432	684.4000244
1159.557956	684.0
1160.112424	684.0
1160.666834	685.0
1161.221187	685.2000122
1161.775483	682.7999878
1162.329722	683.2000122
1162.883904	685.4000244
1163.438029	688.2000122
1163.992096	683.5999756
1164.546107	686.2000122
1165.10006	685.2000122
1165.653956	682.0
1166.207795	681.4000244
1166.761577	686.7999878
1167.315302	682.7999878
1167.86897	682.5999756
1168.422581	683.4000244
1168.976134	684.0
1169.529631	685.5999756
1170.08307	685.0
1170.636453	684.2000122
1171.189778	687.4000244
1171.743046	685.0
1172.296257	682.5999756
1172.849412	685.5999756
1173.402509	684.7999878
1173.955549	684.7999878
1174.508532	684.5999756
1175.061458	682.0
1175.614327	687.7999878
1176.167138	683.5999756
1176.719893	687.4000244
1177.272591	684.0
1177.825232	684.0
1178.377816	685.0
1178.930342	682.7999878
1179.482812	687.5999756
1180.035225	680.4000244
1180.587581	682.7999878
1181.139879	682.5999756
1181.692121	682.4000244
1182.244306	683.0
1182.796434	686.5999756
1183.348504	682.0
1183.900518	682.7999878
1184.452475	684.5999756
1185.004375	686.0
1185.556218	685.5999756
1186.108004	682.5999756
1186.659733	686.5999756
1187.211405	685.0
1187.76302	684.0
1188.314578	682.2000122
1188.866079	684.5999756
1189.417523	684.5999756
1189.96891	683.4000244
1190.520241	685.7999878
1191.071514	686.4000244
1191.622731	689.5999756
1192.17389	683.2000122
1192.724993	685.5999756
1193.276039	700.0
1193.827027	687.0
1194.377959	687.4000244
1194.928834	684.4000244
1195.479653	681.2000122
1196.030414	684.4000244
1196.581118	683.4000244
1197.131766	685.2000122
1197.682356	682.4000244
1198.23289	683.7999878
1198.783367	682.0
1199.333786	683.0
1199.88415	685.2000122
1200.434456	685.2000122
1200.984705	682.7999878
1201.534898	682.5999756
1202.085033	683.0
1202.635112	684.4000244
1203.185134	682.5999756
1203.735099	683.0
1204.285007	683.7999878
1204.834859	684.0
1205.384653	683.4000244
1205.934391	682.5999756
1206.484072	684.4000244
1207.033696	687.7999878
1207.583263	684.4000244
1208.132774	682.4000244
1208.682228	687.0
1209.231624	686.7999878
1209.780965	684.5999756
1210.330248	686.0
1210.879474	685.0
1211.428644	685.4000244
1211.977757	684.7999878
1212.526813	684.2000122
1213.075813	685.2000122
1213.624755	684.4000244
1214.173641	685.7999878
1214.72247	686.2000122
1215.271242	684.7999878
1215.819958	684.5999756
1216.368617	681.5999756
1216.917219	685.2000122
1217.465764	683.0
1218.014253	684.2000122
1218.562685	684.4000244
1219.11106	684.5999756
1219.659378	684.2000122
1220.20764	683.5999756
1220.755845	685.5999756
1221.303993	684.5999756
1221.852085	686.2000122
1222.400119	684.2000122
1222.948097	685.7999878
1223.496019	685.4000244
1224.043883	685.0
1224.591691	682.7999878
1225.139443	682.0
1225.687137	685.4000244
1226.234775	683.0
1226.782357	687.0
1227.329881	684.7999878
1227.877349	685.7999878
1228.42476	684.2000122
1228.972115	687.0
1229.519413	684.5999756
1230.066654	685.2000122
1230.613839	683.7999878
1231.160967	685.2000122
1231.708038	688.4000244
1232.255053	686.2000122
1232.802011	684.2000122
1233.348912	687.2000122
1233.895757	682.4000244
1234.442545	685.4000244
1234.989277	687.2000122
1235.535951	683.0
1236.08257	686.5999756
1236.629131	688.4000244
1237.175636	686.0
1237.722085	687.4000244
1238.268477	689.7999878
1238.814812	687.4000244
1239.361091	688.2000122
1239.907313	681.7999878
1240.453478	688.7999878
1240.999587	686.2000122
1241.54564	685.7999878
1242.091636	685.0
1242.637575	688.2000122
1243.183457	687.2000122
1243.729284	685.0
1244.275053	686.7999878
1244.820766	688.4000244
1245.366423	687.2000122
1245.912022	686.7999878
1246.457566	689.2000122
1247.003053	689.0
1247.548483	684.2000122
1248.093857	688.7999878
1248.639174	687.0
1249.184435	689.0
1249.729639	693.0
1250.274787	685.4000244
1250.819878	686.0
1251.364912	688.4000244
1251.909891	693.0
1252.454812	687.0
1252.999677	688.4000244
1253.544486	689.0
1254.089238	692.0
1254.633934	691.2000122
1255.178573	688.7999878
1255.723156	690.0
1256.267682	688.4000244
1256.812152	690.7999878
1257.356565	691.7999878
1257.900922	695.5999756
1258.445223	696.7999878
1258.989467	699.2000122
1259.533654	695.7999878
1260.077785	701.0
1260.62186	703.0
1261.165878	705.5999756
1261.70984	708.5999756
1262.253745	714.0
1262.797594	715.2000122
1263.341386	727.0
1263.885123	728.4000244
1264.428802	723.7999878
1264.972425	716.4000244
1265.515992	710.2000122
1266.059503	702.5999756
1266.602957	702.7999878
1267.146354	701.7999878
1267.689696	695.2000122
1268.23298	697.0
1268.776209	696.7999878
1269.319381	695.5999756
1269.862497	693.0
1270.405556	695.5999756
1270.948559	694.0
1271.491506	700.0
1272.034396	696.0
1272.57723	695.0
1273.120007	697.7999878
1273.662728	697.0
1274.205393	697.2000122
1274.748002	693.5999756
1275.290554	693.5999756
1275.83305	695.0
1276.375489	701.7999878
1276.917872	700.4000244
1277.460199	697.4000244
1278.00247	699.2000122
1278.544684	707.7999878
1279.086842	713.4000244
1279.628943	710.7999878
1280.170989	720.0
1280.712978	731.7999878
1281.25491	762.5999756
1281.796787	813.4000244
1282.338607	925.7999878
1282.880371	1117.599976
1283.422078	1344.400024
1283.963729	1406.0
1284.505324	1220.599976
1285.046863	997.4000244
1285.588345	849.5999756
1286.129772	775.4000244
1286.671142	734.5999756
1287.212455	728.5999756
1287.753713	715.7999878
1288.294914	713.0
1288.836059	705.5999756
1289.377147	701.5999756
1289.91818	700.4000244
1290.459156	697.5999756
1291.000076	698.5999756
1291.54094	697.2000122
1292.081747	696.2000122
1292.622499	694.0
1293.163194	696.0
1293.703833	694.0
1294.244415	694.2000122
1294.784942	694.4000244
1295.325412	695.5999756
1295.865826	695.2000122
1296.406184	694.4000244
1296.946486	694.4000244
1297.486731	694.7999878
1298.026921	696.5999756
1298.567054	692.5999756
1299.107131	693.4000244
1299.647152	694.4000244
1300.187116	696.5999756
1300.727025	693.5999756
1301.266877	693.0
1301.806673	692.7999878
1302.346413	692.0
1302.886097	692.4000244
1303.425725	692.4000244
1303.965297	691.5999756
1304.504812	690.7999878
1305.044272	690.4000244
1305.583675	693.0
1306.123022	690.0
1306.662313	692.4000244
1307.201548	691.7999878
1307.740727	689.0
1308.279849	690.5999756
1308.818916	691.5999756
1309.357926	691.2000122
1309.896881	689.0
1310.435779	690.5999756
1310.974621	690.5999756
1311.513407	687.5999756
1312.052137	691.7999878
1312.590811	687.2000122
1313.129429	686.0
1313.667991	691.5999756
1314.206497	687.2000122
1314.744946	689.5999756
1315.28334	690.7999878
1315.821678	691.0
1316.359959	688.2000122
1316.898184	689.4000244
1317.436354	687.0
1317.974467	688.0
1318.512525	690.2000122
1319.050526	689.5999756
1319.588471	685.7999878
1320.12636	686.7999878
1320.664194	690.0
1321.201971	688.5999756
1321.739692	689.4000244
1322.277357	686.7999878
1322.814967	686.7999878
1323.35252	689.0
1323.890017	689.7999878
1324.427458	686.2000122
1324.964843	685.5999756
1325.502173	685.7999878
1326.039446	688.4000244
1326.576663	686.7999878
1327.113824	690.0
1327.65093	690.2000122
1328.187979	689.2000122
1328.724972	688.0
1329.26191	690.4000244
1329.798791	686.7999878
1330.335617	689.5999756
1330.872386	688.5999756
1331.4091	689.4000244
1331.945758	687.4000244
1332.48236	690.4000244
1333.018905	688.7999878
1333.555395	686.2000122
1334.091829	691.4000244
1334.628207	689.7999878
1335.164529	686.0
1335.700796	685.5999756
1336.237006	688.5999756
1336.77316	687.4000244
1337.309259	688.5999756
1337.845301	687.7999878
1338.381288	687.7999878
1338.917219	687.7999878
1339.453094	688.2000122
1339.988913	690.0
1340.524676	688.7999878
1341.060383	687.2000122
1341.596034	688.7999878
1342.13163	687.7999878
1342.66717	687.2000122
1343.202653	690.0
1343.738081	687.5999756
1344.273453	686.2000122
1344.80877	689.4000244
1345.34403	686.4000244
1345.879235	688.5999756
1346.414383	686.2000122
1346.949476	688.7999878
1347.484513	691.4000244
1348.019494	687.7999878
1348.55442	685.4000244
1349.089289	689.4000244
1349.624103	690.2000122
1350.158861	687.5999756
1350.693563	690.4000244
1351.228209	685.7999878
1351.7628	688.2000122
1352.297334	689.4000244
1352.831813	692.2000122
1353.366236	689.2000122
1353.900604	688.7999878
1354.434915	688.2000122
1354.969171	688.2000122
1355.503371	690.7999878
1356.037515	688.2000122
1356.571604	688.5999756
1357.105636	692.0
1357.639613	689.5999756
1358.173535	691.0
1358.7074	691.0
1359.24121	688.5999756
1359.774964	690.5999756
1360.308662	690.5999756
1360.842304	690.7999878
1361.375891	691.2000122
1361.909422	690.4000244
1362.442897	692.5999756
1362.976317	690.5999756
1363.50968	691.4000244
1364.042989	690.5999756
1364.576241	693.7999878
1365.109438	695.2000122
1365.642579	695.5999756
1366.175664	692.2000122
1366.708693	693.0
1367.241667	693.2000122
1367.774585	693.7999878
1368.307448	692.7999878
1368.840255	697.7999878
1369.373006	703.5999756
1369.905701	722.7999878
1370.438341	715.5999756
1370.970925	704.5999756
1371.503454	698.2000122
1372.035926	691.4000244
1372.568344	694.7999878
1373.100705	694.7999878
1373.633011	695.0
1374.165261	694.2000122
1374.697456	694.7999878
1375.229595	697.0
1375.761678	698.2000122
1376.293705	700.5999756
1376.825677	699.4000244
1377.357594	700.4000244
1377.889455	701.5999756
1378.42126	702.0
1378.953009	696.5999756
1379.484703	703.2000122
1380.016342	707.5999756
1380.547924	706.0
1381.079452	704.7999878
1381.610923	708.2000122
1382.142339	708.2000122
1382.673699	715.7999878
1383.205004	718.5999756
1383.736253	727.0
1384.267447	738.7999878
1384.798585	748.7999878
1385.329668	777.7999878
1385.860695	836.2000122
1386.391666	963.4000244
1386.922582	1260.199951
1387.453442	1838.199951
1387.984247	2240.800049
1388.514996	1769.599976
1389.04569	1177.599976
1389.576328	908.2000122
1390.10691	807.0
1390.637437	761.2000122
1391.167909	746.2000122
1391.698325	723.2000122
1392.228685	716.4000244
1392.75899	714.0
1393.28924	707.2000122
1393.819434	708.2000122
1394.349572	709.4000244
1394.879655	704.5999756
1395.409683	704.4000244
1395.939655	698.4000244
1396.469571	698.7999878
1396.999432	700.5999756
1397.529237	697.7999878
1398.058987	696.7999878
1398.588682	702.2000122
1399.118321	693.2000122
1399.647905	698.5999756
1400.177433	697.2000122
1400.706906	695.2000122
1401.236323	696.0
1401.765685	699.5999756
1402.294991	698.4000244
1402.824242	698.4000244
1403.353437	702.0
1403.882577	701.4000244
1404.411662	702.2000122
1404.940691	701.5999756
1405.469665	700.5999756
1405.998583	707.4000244
1406.527446	709.4000244
1407.056253	714.2000122
1407.585005	722.5999756
1408.113702	734.4000244
1408.642343	750.0
1409.170929	762.4000244
1409.69946	761.2000122
1410.227935	747.4000244
1410.756354	734.2000122
1411.284719	719.2000122
1411.813028	709.5999756
1412.341281	699.4000244
1412.869479	694.7999878
1413.397622	696.0
1413.92571	694.7999878
1414.453742	696.0
1414.981718	691.4000244
1415.50964	698.5999756
1416.037506	693.5999756
1416.565316	691.4000244
1417.093072	692.5999756
1417.620772	690.4000244
1418.148416	690.4000244
1418.676005	687.2000122
1419.203539	685.7999878
1419.731018	691.7999878
1420.258441	686.5999756
1420.785809	691.5999756
1421.313122	685.2000122
1421.840379	686.2000122
1422.367582	686.4000244
1422.894728	685.5999756
1423.42182	690.7999878
1423.948856	687.4000244
1424.475837	691.4000244
1425.002762	690.0
1425.529633	691.0
1426.056448	688.5999756
1426.583207	691.4000244
1427.109912	688.5999756
1427.636561	685.2000122
1428.163155	687.4000244
1428.689694	689.2000122
1429.216177	686.4000244
1429.742605	685.5999756
1430.268978	686.4000244
1430.795296	684.0
1431.321558	685.5999756
1431.847765	686.0
1432.373917	683.4000244
1432.900014	685.2000122
1433.426056	684.0
1433.952042	685.5999756
1434.477973	685.2000122
1435.003849	688.0
1435.529669	685.2000122
1436.055435	684.2000122
1436.581145	684.2000122
1437.1068	683.7999878
1437.632399	684.5999756
1438.157944	684.0
1438.683433	686.5999756
1439.208868	684.0
1439.734247	683.2000122
1440.25957	685.4000244
1440.784839	683.5999756
1441.310053	682.5999756
1441.835211	683.7999878
1442.360314	685.2000122
1442.885362	684.7999878
1443.410355	684.2000122
1443.935292	683.7999878
1444.460175	682.7999878
1444.985002	681.4000244
1445.509774	682.7999878
1446.034491	683.7999878
1446.559153	683.4000244
1447.08376	679.5999756
1447.608312	683.4000244
1448.132808	685.2000122
1448.65725	680.0
1449.181636	681.2000122
1449.705967	683.4000244
1450.230243	681.2000122
1450.754464	681.5999756
1451.27863	678.7999878
1451.802741	683.2000122
1452.326797	683.0
1452.850797	685.5999756
1453.374743	683.0
1453.898633	683.2000122
1454.422468	682.2000122
1454.946249	680.5999756
1455.469974	683.5999756
1455.993644	683.0
1456.517259	678.7999878
1457.040819	683.2000122
1457.564324	679.7999878
1458.087773	680.4000244
1458.611168	682.5999756
1459.134508	685.2000122
1459.657793	680.5999756
1460.181022	682.4000244
1460.704197	679.4000244
1461.227316	684.7999878
1461.750381	680.7999878
1462.27339	683.0
1462.796345	701.5999756
1463.842089	687.4000244
1464.364878	683.5999756
1464.887613	681.2000122
1465.410292	680.0
1465.932916	684.2000122
1466.455486	683.4000244
1466.978	681.5999756
1467.50046	682.0
1468.022864	684.0
1468.545214	679.7999878
1469.067508	680.0
1469.589748	681.2000122
1470.111932	684.0
1470.634062	679.5999756
1471.156136	680.4000244
1471.678156	681.7999878
1472.20012	683.4000244
1472.72203	679.7999878
1473.243885	683.4000244
1473.765685	685.7999878
1474.28743	680.5999756
1474.80912	683.0
1475.330755	683.7999878
1475.852335	680.4000244
1476.37386	677.4000244
1476.89533	681.5999756
1477.416745	677.2000122
1477.938106	678.2000122
1478.459411	685.5999756
1478.980662	683.2000122
1479.501857	679.5999756
1480.022998	677.4000244
1480.544084	680.7999878
1481.065115	680.4000244
1481.586091	683.2000122
1482.107012	682.5999756
1482.627878	684.0
1483.14869	680.2000122
1483.669446	681.2000122
1484.190148	678.5999756
1484.710794	681.4000244
1485.231386	680.4000244
1485.751923	678.7999878
1486.272406	680.2000122
1486.792833	679.2000122
1487.313205	682.4000244
1487.833523	684.4000244
1488.353786	678.7999878
1488.873994	683.2000122
1489.394147	681.5999756
1489.914245	680.5999756
1490.434288	679.0
1490.954277	678.7999878
1491.474211	682.2000122
1491.99409	677.7999878
1492.513914	681.2000122
1493.033683	679.7999878
1493.553398	681.4000244
1494.073057	681.4000244
1494.592662	680.5999756
1495.112212	680.4000244
1495.631708	680.5999756
1496.151148	678.0
1496.670534	683.4000244
1497.189865	679.4000244
1497.709141	677.4000244
1498.228362	680.7999878
1498.747529	678.5999756
1499.266641	683.2000122
1499.785698	685.5999756
1500.3047	680.2000122
1500.823648	684.2000122
1501.34254	679.7999878
1501.861379	679.2000122
1502.380162	678.5999756
1502.89889	680.2000122
1503.417564	680.7999878
1503.936183	682.0
1504.454748	681.0
1504.973257	683.7999878
1505.491712	684.4000244
1506.010112	680.0
1506.528458	680.7999878
1507.046748	680.7999878
1507.564984	681.2000122
1508.083166	682.0
1508.601292	681.7999878
1509.119364	679.7999878
1509.637381	682.7999878
1510.155344	680.5999756
1510.673252	687.4000244
1511.191105	680.0
1511.708903	684.4000244
1512.226647	678.4000244
1512.744336	681.4000244
1513.261971	679.2000122
1513.77955	680.7999878
1514.297076	680.7999878
1514.814546	683.7999878
1515.331962	680.0
1515.849323	679.2000122
1516.366629	679.4000244
1516.883881	682.0
1517.401078	682.7999878
1517.918221	679.5999756
1518.435309	682.0
1518.952342	677.5999756
1519.469321	675.7999878
1519.986245	680.2000122
1520.503114	678.2000122
1521.019929	682.4000244
1521.536689	682.7999878
1522.053395	681.0
1522.570046	678.2000122
1523.086642	682.4000244
1523.603184	680.5999756
1524.119671	684.5999756
1524.636103	678.2000122
1525.152481	683.2000122
1525.668805	684.5999756
1526.185073	709.2000122
1526.701288	697.2000122
1527.217447	682.2000122
1527.733552	679.2000122
1528.249603	680.4000244
1528.765599	681.5999756
1529.28154	680.5999756
1529.797427	680.5999756
1530.313259	683.7999878
1530.829037	678.4000244
1531.34476	681.7999878
1531.860429	684.2000122
1532.376043	682.5999756
1532.891602	682.7999878
1533.407107	680.5999756
1533.922558	680.5999756
1534.437954	680.5999756
1534.953295	683.2000122
1535.468582	680.0
1535.983815	678.4000244
1536.498993	682.0
1537.014116	679.7999878
1537.529185	682.4000244
1538.044199	681.4000244
1538.559159	679.5999756
1539.074064	680.4000244
1539.588915	683.4000244
1540.103712	681.5999756
1540.618454	681.4000244
1541.133141	681.4000244
1541.647774	679.2000122
1542.162353	680.0
1542.676877	681.2000122
1543.191346	683.7999878
1543.705761	680.7999878
1544.220122	683.5999756
1544.734428	680.7999878
1545.24868	683.4000244
1545.762877	680.2000122
1546.27702	679.5999756
1546.791109	683.5999756
1547.305143	682.0
1547.819122	682.0
1548.333047	679.5999756
1548.846918	680.7999878
1549.360734	680.5999756
1549.874496	681.7999878
1550.388204	678.7999878
1550.901857	678.5999756
1551.415455	682.7999878
1551.929	681.2000122
1552.442489	681.2000122
1552.955925	681.2000122
1553.469306	682.0
1553.982632	683.7999878
1554.495905	681.0
1555.009123	680.5999756
1555.522286	682.0
1556.035395	683.5999756
1556.54845	682.7999878
1557.06145	684.2000122
1557.574396	683.2000122
1558.087288	679.7999878
1558.600125	683.7999878
1559.112908	682.5999756
1559.625637	681.7999878
1560.138311	681.4000244
1560.650931	681.5999756
1561.163497	684.7999878
1561.676008	683.5999756
1562.188465	683.4000244
1562.700867	684.2000122
1563.213216	682.4000244
1563.725509	682.5999756
1564.237749	683.7999878
1564.749934	686.5999756
1565.262065	683.0
1565.774142	686.2000122
1566.286164	685.7999878
1566.798132	684.4000244
1567.310046	685.7999878
1567.821906	685.5999756
1568.333711	685.2000122
1568.845462	684.5999756
1569.357158	683.7999878
1569.868801	684.7999878
1570.380389	684.0
1570.891922	682.5999756
1571.403402	681.7999878
1571.914827	682.4000244
1572.426198	682.7999878
1572.937515	681.5999756
1573.448777	681.2000122
1573.959985	682.5999756
1574.471139	680.7999878
1574.982239	681.2000122
1575.493285	681.0
1576.004276	683.5999756
1576.515213	682.5999756
1577.026096	679.5999756
1577.536924	680.7999878
1578.047698	676.7999878
1578.558419	682.4000244
1579.069084	681.7999878
1579.579696	683.0
1580.090254	679.4000244
1580.600757	682.0
1581.111206	678.2000122
1581.621601	683.0
1582.131941	682.7999878
1582.642228	683.5999756
1583.15246	679.7999878
1583.662638	683.7999878
1584.172762	682.2000122
1584.682832	679.2000122
1585.192847	682.2000122
1585.702809	681.2000122
1586.212716	679.5999756
1586.722569	680.7999878
1587.232368	679.0
1587.742113	678.2000122
1588.251803	682.0
1588.76144	681.2000122
1589.271022	679.5999756
1589.78055	680.0
1590.290024	681.5999756
1590.799444	683.7999878
1591.30881	682.2000122
1591.818121	683.0
1592.327379	679.4000244
