1042.414189	695.2000122
1042.980685	696.4000244
1043.547124	693.4000244
1044.113505	695.4000244
1044.679828	691.2000122
1045.246093	693.4000244
1045.8123	688.5999756
1046.378449	689.7999878
1046.94454	689.2000122
1047.510573	686.2000122
1048.076548	687.5999756
1048.642465	690.5999756
1049.208325	687.4000244
1049.774126	689.0
1050.339869	690.7999878
1050.905555	685.2000122
1051.471183	687.5999756
1052.036752	687.2000122
1052.602264	685.0
1053.167718	687.0
1053.733114	686.7999878
1054.298452	687.4000244
1054.863733	681.5999756
1055.428955	684.0
1055.994119	683.0
1056.559226	688.2000122
1057.124275	684.7999878
1057.689266	686.0
1058.254199	686.0
1058.819074	683.7999878
1059.383891	683.7999878
1059.94865	684.0
1060.513352	684.2000122
1061.077996	684.2000122
1061.642582	680.5999756
1062.20711	684.4000244
1062.77158	682.5999756
1063.335992	682.4000244
1063.900347	684.2000122
1064.464643	682.0
1065.028882	683.7999878
1065.593063	683.5999756
1066.157187	685.0
1066.721252	681.4000244
1067.28526	684.7999878
1067.84921	683.2000122
1068.413102	681.0
1068.976936	685.0
1069.540713	683.2000122
1070.104431	690.5999756
1070.668092	681.0
1071.231696	682.7999878
1071.795241	681.4000244
1072.358729	685.2000122
1072.922159	683.4000244
1073.485531	681.7999878
1074.048845	681.0
1074.612102	683.5999756
1075.175301	681.4000244
1075.738442	686.0
1076.301525	679.0
1076.864551	684.5999756
1077.427519	684.2000122
1077.990429	681.7999878
1078.553281	681.4000244
1079.116076	679.4000244
1079.678813	683.0
1080.241492	685.2000122
1080.804114	683.4000244
1081.366678	685.4000244
1081.929184	682.0
1082.491633	683.7999878
1083.054024	684.7999878
1083.616357	682.0
1084.178632	683.2000122
1084.74085	684.4000244
1085.30301	682.2000122
1085.865113	682.5999756
1086.427158	682.7999878
1086.989145	681.2000122
1087.551074	683.7999878
1088.112946	687.2000122
1088.67476	679.5999756
1089.236517	681.5999756
1089.798216	681.4000244
1090.359857	680.7999878
1090.92144	681.2000122
1091.482966	685.0
1092.044435	682.5999756
1092.605845	684.7999878
1093.167199	679.5999756
1093.728494	685.0
1094.289732	683.0
1094.850912	679.7999878
1095.412035	689.2000122
1095.9731	682.7999878
1096.534107	681.5999756
1097.095057	689.7999878
1097.65595	682.5999756
1098.216784	684.2000122
1098.777561	681.2000122
1099.338281	682.2000122
1099.898943	685.0
1100.459547	679.7999878
1101.020094	682.5999756
1101.580584	680.2000122
1102.141015	680.5999756
1102.701389	682.0
1103.261706	682.0
1103.821965	680.2000122
1104.382167	681.0
1104.942311	682.7999878
1105.502397	683.4000244
1106.062426	681.2000122
1106.622398	682.7999878
1107.182312	680.0
1107.742168	681.5999756
1108.301967	681.7999878
1108.861708	683.5999756
1109.421392	680.7999878
1109.981019	682.5999756
1110.540587	681.7999878
1111.100099	681.5999756
1111.659553	681.2000122
1112.218949	682.7999878
1112.778288	681.5999756
1113.33757	682.0
1113.896794	683.7999878
1114.45596	679.0
1115.015069	683.5999756
1115.574121	681.2000122
1116.133115	680.5999756
1116.692052	681.4000244
1117.250931	682.7999878
1117.809753	681.0
1118.368517	682.4000244
1118.927224	684.2000122
1119.485873	681.5999756
1120.044465	684.4000244
1120.603	682.0
1121.161477	680.4000244
1121.719897	680.0
1122.278259	678.4000244
1122.836564	680.7999878
1123.394812	679.4000244
1123.953002	685.0
1124.511135	682.5999756
1125.06921	680.4000244
1125.627228	682.4000244
1126.185189	677.4000244
1126.743092	677.5999756
1127.300938	678.4000244
1127.858726	683.2000122
1128.416457	681.0
1128.974131	680.5999756
1129.531748	682.0
1130.089307	680.0
1130.646808	678.7999878
1131.204252	680.5999756
1131.761639	681.7999878
1132.318969	682.2000122
1132.876241	683.7999878
1133.433456	680.5999756
1133.990614	679.5999756
1134.547714	680.4000244
1135.104757	680.0
1135.661743	684.0
1136.218671	680.2000122
1136.775542	684.5999756
1137.332356	682.7999878
1137.889112	682.5999756
1138.445811	682.4000244
1139.002453	680.5999756
1139.559037	682.7999878
1140.115565	680.2000122
1140.672035	680.4000244
1141.228447	681.0
1141.784803	681.5999756
1142.341101	680.7999878
1142.897342	683.2000122
1143.453525	678.4000244
1144.009651	681.2000122
1144.565721	680.4000244
1145.121732	679.5999756
1145.677687	682.2000122
1146.233584	682.0
1146.789424	680.7999878
1147.345207	682.7999878
1147.900933	682.7999878
1148.456601	679.5999756
1149.012212	678.5999756
1149.567766	681.5999756
1150.123263	681.7999878
1150.678702	682.2000122
1151.234085	678.2000122
1151.78941	684.4000244
1152.344678	681.4000244
1152.899888	677.5999756
1153.455042	679.5999756
1154.010138	681.0
1154.565177	682.7999878
1155.120159	679.2000122
1155.675084	676.0
1156.229951	681.2000122
1156.784762	677.7999878
1157.339515	684.4000244
1157.894211	678.5999756
1158.44885	680.5999756
1159.003432	680.7999878
1159.557956	681.5999756
1160.112424	683.2000122
1160.666834	681.4000244
1161.221187	681.4000244
1161.775483	679.4000244
1162.329722	681.5999756
1162.883904	680.7999878
1163.438029	683.7999878
1163.992096	684.7999878
1164.546107	684.2000122
1165.10006	680.7999878
1165.653956	682.5999756
1166.207795	682.2000122
1166.761577	681.0
1167.315302	685.7999878
1167.86897	681.2000122
1168.422581	679.4000244
1168.976134	679.5999756
1169.529631	686.0
1170.08307	682.2000122
1170.636453	680.0
1171.189778	681.4000244
1171.743046	680.2000122
1172.296257	682.0
1172.849412	679.7999878
1173.402509	680.0
1173.955549	680.7999878
1174.508532	685.0
1175.061458	680.7999878
1175.614327	684.2000122
1176.167138	680.0
1176.719893	681.7999878
1177.272591	678.5999756
1177.825232	679.5999756
1178.377816	681.0
1178.930342	679.5999756
1179.482812	682.2000122
1180.035225	680.2000122
1180.587581	682.0
1181.139879	678.0
1181.692121	683.0
1182.244306	685.0
1182.796434	679.0
1183.348504	680.2000122
1183.900518	680.2000122
1184.452475	680.4000244
1185.004375	679.2000122
1185.556218	680.2000122
1186.108004	680.5999756
1186.659733	682.0
1187.211405	680.7999878
1187.76302	681.0
1188.314578	682.0
1188.866079	684.2000122
1189.417523	682.4000244
1189.96891	680.5999756
1190.520241	682.4000244
1191.071514	680.4000244
1191.622731	680.5999756
1192.17389	680.0
1192.724993	680.2000122
1193.276039	693.4000244
1193.827027	679.5999756
1194.377959	683.0
1194.928834	685.0
1195.479653	679.2000122
1196.030414	683.7999878
1196.581118	683.2000122
1197.131766	681.5999756
1197.682356	678.7999878
1198.23289	681.5999756
1198.783367	679.7999878
1199.333786	681.0
1199.88415	682.7999878
1200.434456	679.2000122
1200.984705	679.0
1201.534898	680.0
1202.085033	682.0
1202.635112	681.7999878
1203.185134	680.7999878
1203.735099	681.4000244
1204.285007	682.0
1204.834859	683.2000122
1205.384653	683.5999756
1205.934391	680.0
1206.484072	680.0
1207.033696	683.5999756
1207.583263	684.0
1208.132774	680.5999756
1208.682228	680.5999756
1209.231624	679.5999756
1209.780965	683.4000244
1210.330248	681.2000122
1210.879474	680.7999878
1211.428644	677.2000122
1211.977757	682.2000122
1212.526813	683.0
1213.075813	683.5999756
1213.624755	682.4000244
1214.173641	681.5999756
1214.72247	681.2000122
1215.271242	682.5999756
1215.819958	679.2000122
1216.368617	681.4000244
1216.917219	683.4000244
1217.465764	684.7999878
1218.014253	681.5999756
1218.562685	681.5999756
1219.11106	681.4000244
1219.659378	680.5999756
1220.20764	682.7999878
1220.755845	676.7999878
1221.303993	681.0
1221.852085	682.0
1222.400119	680.0
1222.948097	682.4000244
1223.496019	682.2000122
1224.043883	684.2000122
1224.591691	682.0
1225.139443	680.7999878
1225.687137	683.0
1226.234775	683.7999878
1226.782357	682.7999878
1227.329881	683.5999756
1227.877349	681.5999756
1228.42476	681.2000122
1228.972115	680.7999878
1229.519413	679.7999878
1230.066654	683.5999756
1230.613839	680.7999878
1231.160967	681.4000244
1231.708038	687.7999878
1232.255053	683.2000122
1232.802011	679.7999878
1233.348912	682.0
1233.895757	686.0
1234.442545	684.4000244
1234.989277	680.2000122
1235.535951	682.0
1236.08257	683.2000122
1236.629131	685.2000122
1237.175636	682.0
1237.722085	682.4000244
1238.268477	684.4000244
1238.814812	686.2000122
1239.361091	686.5999756
1239.907313	679.4000244
1240.453478	683.0
1240.999587	683.4000244
1241.54564	682.5999756
1242.091636	683.0
1242.637575	681.2000122
1243.183457	685.2000122
1243.729284	684.4000244
1244.275053	683.5999756
1244.820766	687.7999878
1245.366423	684.0
1245.912022	682.0
1246.457566	688.4000244
1247.003053	684.5999756
1247.548483	682.7999878
1248.093857	683.7999878
1248.639174	685.5999756
1249.184435	688.7999878
1249.729639	686.0
1250.274787	686.0
1250.819878	685.2000122
1251.364912	685.5999756
1251.909891	685.5999756
1252.454812	685.0
1252.999677	686.2000122
1253.544486	689.7999878
1254.089238	685.7999878
1254.633934	687.4000244
1255.178573	683.7999878
1255.723156	684.2000122
1256.267682	689.7999878
1256.812152	686.5999756
1257.356565	690.7999878
1257.900922	691.2000122
1258.445223	692.7999878
1258.989467	692.4000244
1259.533654	695.2000122
1260.077785	702.2000122
1260.62186	700.4000244
1261.165878	702.2000122
1261.70984	711.2000122
1262.253745	715.7999878
1262.797594	723.5999756
1263.341386	719.7999878
1263.885123	719.5999756
1264.428802	710.7999878
1264.972425	705.0
1265.515992	699.7999878
1266.059503	697.0
1266.602957	694.4000244
1267.146354	698.2000122
1267.689696	697.2000122
1268.23298	690.2000122
1268.776209	694.7999878
1269.319381	689.7999878
1269.862497	692.0
1270.405556	691.4000244
1270.948559	690.7999878
1271.491506	691.4000244
1272.034396	692.4000244
1272.57723	692.4000244
1273.120007	692.4000244
1273.662728	689.4000244
1274.205393	694.7999878
1274.748002	690.4000244
1275.290554	692.0
1275.83305	694.4000244
1276.375489	700.7999878
1276.917872	694.0
1277.460199	698.0
1278.00247	703.7999878
1278.544684	706.4000244
1279.086842	712.4000244
1279.628943	718.0
1280.170989	728.4000244
1280.712978	756.5999756
1281.25491	811.5999756
1281.796787	917.0
1282.338607	1142.0
1282.880371	1383.800049
1283.422078	1427.400024
1283.963729	1184.199951
1284.505324	968.2000122
1285.046863	830.2000122
1285.588345	769.2000122
1286.129772	739.2000122
1286.671142	723.2000122
1287.212455	712.5999756
1287.753713	711.5999756
1288.294914	704.4000244
1288.836059	702.0
1290.459156	696.0
1291.000076	696.7999878
1291.54094	691.7999878
1292.081747	690.0
1292.622499	694.4000244
1293.163194	693.4000244
1293.703833	691.4000244
1294.244415	692.7999878
1294.784942	689.0
1295.325412	692.2000122
1295.865826	687.4000244
1296.406184	688.2000122
1296.946486	692.0
1297.486731	688.0
1298.026921	690.5999756
1298.567054	688.7999878
1299.107131	686.4000244
1299.647152	689.2000122
1300.187116	688.2000122
1300.727025	688.4000244
1301.266877	687.2000122
1301.806673	687.2000122
1302.346413	688.2000122
1302.886097	684.4000244
1303.425725	687.2000122
1303.965297	689.7999878
1304.504812	683.0
1305.044272	687.5999756
1305.583675	686.5999756
1306.123022	688.4000244
1306.662313	686.4000244
1307.201548	685.2000122
1307.740727	686.5999756
1308.279849	685.4000244
1308.818916	685.7999878
1309.357926	685.2000122
1309.896881	684.2000122
1310.435779	686.2000122
1310.974621	684.0
1311.513407	679.5999756
1312.052137	684.2000122
1312.590811	685.0
1313.129429	681.5999756
1313.667991	684.5999756
1314.206497	684.7999878
1314.744946	685.2000122
1315.28334	687.4000244
1315.821678	684.4000244
1316.359959	687.2000122
1316.898184	688.0
1317.436354	685.7999878
1317.974467	685.5999756
1318.512525	680.2000122
1319.050526	687.5999756
1319.588471	683.5999756
1320.12636	682.7999878
1320.664194	684.4000244
1321.201971	683.5999756
1321.739692	683.0
1322.277357	683.5999756
1322.814967	687.5999756
1323.35252	684.4000244
1323.890017	687.2000122
1324.427458	682.7999878
1324.964843	686.0
1325.502173	686.5999756
1326.039446	688.0
1326.576663	679.4000244
1327.113824	684.2000122
1327.65093	686.5999756
1328.187979	686.5999756
1328.724972	685.2000122
1329.26191	684.7999878
1329.798791	686.7999878
1330.335617	681.2000122
1330.872386	684.4000244
1331.4091	683.7999878
1331.945758	685.7999878
1332.48236	683.2000122
1333.018905	686.2000122
1333.555395	688.0
1334.091829	688.2000122
1334.628207	682.7999878
1335.164529	681.4000244
1335.700796	683.2000122
1336.237006	683.4000244
1336.77316	685.2000122
1337.309259	685.2000122
1337.845301	686.7999878
1338.381288	684.4000244
1338.917219	684.5999756
1339.453094	682.7999878
1339.988913	689.4000244
1340.524676	683.2000122
1341.060383	686.5999756
1341.596034	684.5999756
1342.13163	688.2000122
1342.66717	685.5999756
1343.202653	685.4000244
1343.738081	684.2000122
1344.273453	684.2000122
1344.80877	685.5999756
1345.34403	684.7999878
1345.879235	685.5999756
1346.414383	684.0
1346.949476	685.2000122
1347.484513	684.5999756
1348.019494	684.2000122
1348.55442	684.0
1349.089289	685.4000244
1349.624103	682.7999878
1350.158861	681.4000244
1350.693563	683.7999878
1351.228209	686.0
1351.7628	686.4000244
1352.297334	682.2000122
1352.831813	682.0
1353.366236	682.2000122
1353.900604	688.0
1354.434915	686.7999878
1354.969171	687.7999878
1355.503371	685.2000122
1356.037515	684.4000244
1356.571604	688.4000244
1357.105636	684.4000244
1357.639613	685.2000122
1358.173535	684.0
1358.7074	683.0
1359.24121	685.5999756
1359.774964	687.2000122
1360.308662	686.5999756
1360.842304	688.7999878
1361.375891	686.2000122
1361.909422	687.4000244
1362.442897	690.0
1362.976317	687.7999878
1363.50968	690.2000122
1364.042989	691.4000244
1364.576241	689.7999878
1365.109438	689.7999878
1365.642579	689.7999878
1366.175664	688.0
1366.708693	690.5999756
1367.241667	688.0
1367.774585	690.7999878
1368.307448	694.7999878
1368.840255	697.2000122
1369.373006	708.0
1369.905701	720.5999756
1370.438341	705.0
1370.970925	691.5999756
1371.503454	691.5999756
1372.035926	690.0
1372.568344	690.7999878
1373.100705	691.4000244
1373.633011	689.5999756
1374.165261	692.0
1374.697456	694.2000122
1375.229595	690.4000244
1375.761678	692.4000244
1376.293705	694.0
1376.825677	693.5999756
1377.357594	694.5999756
1377.889455	696.4000244
1378.42126	694.5999756
1378.953009	697.2000122
1379.484703	701.7999878
1380.016342	702.7999878
1380.547924	703.5999756
1381.079452	706.2000122
1381.610923	709.5999756
1382.142339	712.2000122
1382.673699	716.4000244
1383.205004	718.7999878
1383.736253	733.2000122
1384.267447	739.0
1384.798585	773.0
1385.329668	811.5999756
1385.860695	902.5999756
1386.391666	1106.0
1386.922582	1586.800049
1387.453442	2192.199951
1387.984247	2044.800049
1388.514996	1384.599976
1389.04569	1017.200012
1389.576328	851.2000122
1390.10691	786.4000244
1390.637437	754.4000244
1391.167909	738.5999756
1391.698325	721.0
1392.228685	716.0
1392.75899	712.2000122
1393.28924	705.5999756
1393.819434	706.5999756
1394.349572	702.7999878
1394.879655	703.4000244
1395.409683	700.4000244
1395.939655	698.0
1396.469571	699.4000244
1396.999432	698.0
1397.529237	696.0
1398.058987	698.4000244
1398.588682	693.7999878
1399.118321	696.7999878
1399.647905	700.2000122
1400.177433	694.0
1400.706906	691.5999756
1401.236323	696.0
1401.765685	699.0
1402.294991	695.4000244
1402.824242	694.2000122
1403.353437	696.0
1403.882577	700.0
1404.411662	698.4000244
1404.940691	698.2000122
1405.469665	705.0
1405.998583	702.2000122
1406.527446	707.2000122
1407.056253	712.5999756
1407.585005	723.0
1408.113702	737.0
1408.642343	750.7999878
1409.170929	753.2000122
1409.69946	749.5999756
1410.227935	734.2000122
1410.756354	722.7999878
1411.284719	708.5999756
1411.813028	704.4000244
1412.341281	700.4000244
1412.869479	692.2000122
1413.397622	697.0
1413.92571	691.2000122
1414.453742	689.0
1414.981718	689.5999756
1415.50964	697.2000122
1416.037506	688.7999878
1416.565316	684.2000122
1417.093072	686.7999878
1417.620772	689.4000244
1418.148416	682.5999756
1418.676005	684.4000244
1419.203539	686.2000122
1419.731018	681.0
1420.258441	684.5999756
1420.785809	683.7999878
1421.313122	683.5999756
1421.840379	686.4000244
1422.367582	683.4000244
1422.894728	684.5999756
1423.42182	683.7999878
1423.948856	681.4000244
1424.475837	685.2000122
1425.002762	683.7999878
1425.529633	685.2000122
1426.056448	687.2000122
1426.583207	685.5999756
1427.109912	682.2000122
1427.636561	681.2000122
1428.163155	679.0
1428.689694	681.7999878
1429.216177	683.0
1429.742605	680.0
1430.268978	681.2000122
1430.795296	680.2000122
1431.321558	680.4000244
1431.847765	683.2000122
1432.373917	682.5999756
1432.900014	680.7999878
1433.426056	679.2000122
1433.952042	683.0
1434.477973	679.0
1435.003849	678.7999878
1435.529669	681.0
1436.055435	679.7999878
1436.581145	680.2000122
1437.1068	679.7999878
1437.632399	679.0
1438.157944	682.2000122
1438.683433	680.7999878
1439.208868	682.5999756
1439.734247	680.2000122
1440.25957	679.7999878
1440.784839	680.4000244
1441.310053	680.2000122
1441.835211	680.5999756
1442.360314	682.2000122
1442.885362	679.0
1443.410355	678.5999756
1443.935292	678.4000244
1444.460175	683.0
1444.985002	677.0
1445.509774	679.7999878
1446.034491	676.2000122
1446.559153	677.7999878
1447.08376	679.2000122
1447.608312	680.2000122
1448.132808	680.0
1448.65725	679.0
1449.181636	680.7999878
1449.705967	678.5999756
1450.230243	680.4000244
1450.754464	679.0
1451.27863	678.7999878
1451.802741	681.2000122
1452.326797	681.4000244
1452.850797	679.7999878
1453.374743	679.4000244
1453.898633	677.2000122
1454.422468	680.0
1454.946249	676.5999756
1455.469974	680.5999756
1455.993644	676.5999756
1456.517259	675.2000122
1457.040819	677.0
1457.564324	677.7999878
1458.087773	681.5999756
1458.611168	679.4000244
1459.134508	677.2000122
1459.657793	677.0
1460.181022	676.4000244
1460.704197	677.5999756
1461.227316	678.5999756
1461.750381	678.2000122
1462.27339	677.2000122
1462.796345	688.7999878
1463.319244	690.5999756
1463.842089	678.7999878
1464.364878	679.5999756
1464.887613	677.0
1465.410292	680.0
1465.932916	677.0
1466.455486	678.0
1466.978	677.0
1467.50046	674.7999878
1468.022864	678.7999878
1468.545214	677.5999756
1469.067508	678.5999756
1469.589748	675.7999878
1470.111932	679.2000122
1470.634062	676.7999878
1471.156136	678.5999756
1471.678156	676.2000122
1472.20012	678.2000122
1472.72203	679.0
1473.243885	680.0
1473.765685	677.0
1474.28743	678.0
1474.80912	678.5999756
1475.330755	677.4000244
1475.852335	677.7999878
1476.37386	678.5999756
1476.89533	675.4000244
1477.416745	680.0
1477.938106	678.0
1478.459411	678.0
1478.980662	679.0
1479.501857	678.4000244
1480.022998	676.0
1480.544084	678.7999878
1481.065115	678.4000244
1481.586091	678.4000244
1482.107012	677.0
1482.627878	678.4000244
1483.14869	677.5999756
1483.669446	674.2000122
1484.190148	675.5999756
1484.710794	676.4000244
1485.231386	678.5999756
1485.751923	679.4000244
1486.272406	678.0
1486.792833	678.2000122
1487.313205	676.2000122
1487.833523	680.2000122
1488.353786	676.2000122
1488.873994	678.2000122
1489.394147	676.4000244
1489.914245	675.5999756
1490.434288	675.5999756
1490.954277	678.4000244
1491.474211	678.0
1491.99409	678.7999878
1492.513914	674.4000244
1493.033683	677.4000244
1493.553398	676.0
1494.073057	683.0
1494.592662	678.0
1495.112212	675.4000244
1495.631708	674.7999878
1496.151148	681.0
1496.670534	678.7999878
1497.189865	679.5999756
1497.709141	673.4000244
1498.228362	679.5999756
1498.747529	678.5999756
1499.266641	678.7999878
1499.785698	683.4000244
1500.3047	678.5999756
1500.823648	679.4000244
1501.34254	679.4000244
1501.861379	675.2000122
1502.380162	674.0
1502.89889	678.4000244
1503.417564	678.7999878
1503.936183	677.4000244
1504.454748	675.0
1504.973257	675.4000244
1505.491712	678.0
1506.010112	680.2000122
1506.528458	677.0
1507.046748	677.5999756
1507.564984	678.4000244
1508.083166	680.0
1508.601292	677.4000244
1509.119364	677.4000244
1509.637381	677.4000244
1510.155344	677.0
1510.673252	684.5999756
1511.191105	679.5999756
1511.708903	679.5999756
1512.226647	674.4000244
1512.744336	677.0
1513.261971	676.5999756
1513.77955	675.2000122
1514.297076	677.2000122
1514.814546	675.4000244
1515.331962	675.5999756
1515.849323	678.2000122
1516.366629	678.7999878
1516.883881	675.5999756
1517.401078	676.7999878
1517.918221	676.7999878
1518.435309	675.5999756
1518.952342	679.5999756
1519.469321	681.5999756
1519.986245	677.5999756
1520.503114	676.5999756
1521.019929	679.0
1521.536689	674.5999756
1522.053395	679.0
1522.570046	676.0
1523.086642	676.5999756
1523.603184	676.4000244
1524.119671	675.7999878
1524.636103	676.0
1525.152481	680.5999756
1525.668805	678.0
1526.185073	683.5999756
1526.701288	680.4000244
1527.217447	678.2000122
1527.733552	679.2000122
1528.249603	674.4000244
1528.765599	678.0
1529.28154	678.7999878
1529.797427	675.5999756
1530.313259	678.0
1530.829037	676.4000244
1531.34476	674.5999756
1531.860429	676.0
1532.376043	677.0
1532.891602	675.2000122
1533.407107	680.7999878
1533.922558	674.7999878
1534.437954	681.2000122
1534.953295	677.0
1535.468582	674.2000122
1535.983815	677.7999878
1536.498993	674.5999756
1537.014116	673.7999878
1537.529185	673.7999878
1538.044199	678.7999878
1538.559159	678.4000244
1539.074064	677.7999878
1539.588915	675.5999756
1540.103712	675.0
1540.618454	678.5999756
1541.133141	677.0
1541.647774	675.2000122
1542.162353	674.7999878
1542.676877	679.2000122
1543.191346	675.2000122
1543.705761	675.7999878
1544.220122	675.7999878
1544.734428	679.2000122
1545.24868	677.2000122
1545.762877	681.5999756
1546.27702	677.5999756
1546.791109	678.4000244
1547.305143	681.5999756
1547.819122	675.7999878
1548.333047	677.7999878
1548.846918	677.0
1549.360734	680.2000122
1549.874496	677.7999878
1550.388204	678.2000122
1550.901857	679.4000244
1551.415455	674.4000244
1551.929	679.7999878
1552.442489	675.2000122
1552.955925	678.7999878
1553.469306	678.0
1553.982632	677.7999878
1554.495905	679.0
1555.009123	676.0
1555.522286	676.2000122
1556.035395	678.4000244
1556.54845	676.7999878
1557.06145	678.7999878
1557.574396	676.0
1558.087288	681.2000122
1558.600125	677.4000244
1559.112908	678.2000122
1559.625637	677.7999878
1560.138311	673.4000244
1560.650931	675.2000122
1561.163497	677.0
1561.676008	676.2000122
1562.188465	677.4000244
1562.700867	678.4000244
1563.213216	675.0
1563.725509	678.0
1564.237749	679.7999878
1564.749934	677.5999756
1565.262065	677.2000122
1565.774142	679.5999756
1566.286164	677.2000122
1566.798132	679.4000244
1567.310046	677.4000244
1567.821906	679.0
1568.333711	679.2000122
1568.845462	674.5999756
1569.357158	679.4000244
1569.868801	677.4000244
1570.380389	675.0
1570.891922	674.2000122
1571.403402	677.2000122
1571.914827	676.7999878
1572.426198	674.7999878
1572.937515	680.4000244
1573.448777	676.0
1573.959985	676.0
1574.471139	678.2000122
1574.982239	676.7999878
1575.493285	678.4000244
1576.004276	679.0
1576.515213	676.0
1577.026096	678.4000244
1577.536924	675.7999878
1578.047698	675.0
1578.558419	678.5999756
1579.069084	678.7999878
1579.579696	673.4000244
1580.090254	678.7999878
1580.600757	677.2000122
1581.111206	677.7999878
1581.621601	676.5999756
1582.131941	680.4000244
1582.642228	675.5999756
1583.15246	675.0
1583.662638	675.2000122
1584.172762	677.2000122
1584.682832	677.2000122
1585.192847	678.2000122
1585.702809	675.7999878
1586.212716	672.5999756
1586.722569	675.7999878
1587.232368	675.5999756
1587.742113	675.5999756
1588.251803	675.4000244
1588.76144	672.5999756
1589.271022	676.4000244
1589.78055	677.2000122
1590.290024	676.5999756
1590.799444	679.2000122
1591.30881	674.7999878
1591.818121	675.5999756
1592.327379	679.0
