1042.414189	991.25
1042.980685	997.0
1043.547124	999.75
1044.113505	985.0
1044.679828	999.5
1045.246093	1002.5
1045.8123	994.25
1046.378449	988.0
1046.94454	982.5
1047.510573	994.0
1048.076548	986.25
1048.642465	984.25
1049.208325	990.5
1049.774126	987.75
1050.339869	984.75
1050.905555	986.0
1051.471183	976.25
1052.036752	986.5
1052.602264	977.75
1053.167718	980.5
1053.733114	973.5
1054.298452	975.75
1054.863733	978.25
1055.428955	985.5
1055.994119	977.5
1056.559226	981.0
1057.124275	971.0
1057.689266	974.75
1058.254199	973.5
1058.819074	979.5
1059.383891	961.25
1059.94865	978.5
1060.513352	979.25
1061.077996	974.0
1061.642582	976.75
1062.20711	973.75
1062.77158	982.75
1063.335992	984.25
1063.900347	974.0
1064.464643	980.25
1065.028882	965.75
1065.593063	969.5
1066.157187	972.25
1066.721252	973.5
1067.28526	966.75
1067.84921	973.0
1068.413102	970.75
1068.976936	981.75
1069.540713	969.25
1070.104431	980.0
1070.668092	982.75
1071.231696	978.0
1071.795241	971.75
1072.358729	975.5
1072.922159	969.5
1073.485531	972.0
1074.048845	969.25
1074.612102	971.25
1075.175301	963.0
1075.738442	981.75
1076.301525	977.25
1076.864551	967.25
1077.427519	978.25
1077.990429	962.25
1078.553281	966.75
1079.116076	964.5
1079.678813	968.75
1080.241492	970.5
1080.804114	971.5
1081.366678	971.0
1081.929184	975.25
1082.491633	964.25
1083.054024	976.75
1083.616357	971.25
1084.178632	960.5
1084.74085	968.0
1085.30301	966.75
1085.865113	968.75
1086.427158	973.75
1086.989145	975.0
1087.551074	973.75
1088.112946	966.75
1088.67476	974.5
1089.236517	973.5
1089.798216	966.0
1090.359857	964.25
1090.92144	968.5
1091.482966	970.25
1092.044435	965.25
1092.605845	973.5
1093.167199	968.75
1093.728494	969.0
1094.289732	968.5
1094.850912	974.0
1095.412035	977.75
1095.9731	976.5
1096.534107	963.75
1097.095057	974.75
1097.65595	972.5
1098.216784	969.75
1098.777561	975.25
1099.338281	965.25
1099.898943	967.25
1100.459547	971.25
1101.020094	974.5
1101.580584	961.25
1102.141015	960.0
1102.701389	965.75
1103.261706	969.25
1103.821965	971.75
1104.382167	972.5
1104.942311	962.5
1105.502397	971.0
1106.062426	970.25
1106.622398	957.25
1107.182312	965.0
1107.742168	969.25
1108.301967	961.75
1108.861708	957.75
1109.421392	963.5
1109.981019	964.5
1110.540587	961.25
1111.100099	966.5
1111.659553	966.5
1112.218949	970.25
1112.778288	968.5
1113.33757	962.5
1113.896794	965.75
1114.45596	963.5
1115.015069	968.75
1115.574121	973.25
1116.133115	976.5
1116.692052	961.0
1117.250931	968.0
1117.809753	962.75
1118.368517	967.0
1118.927224	963.25
1119.485873	963.5
1120.044465	965.0
1120.603	955.75
1121.161477	951.25
1121.719897	959.5
1122.278259	961.0
1122.836564	960.75
1123.394812	959.0
1123.953002	961.0
1124.511135	965.0
1125.06921	961.75
1125.627228	963.75
1126.185189	976.0
1126.743092	963.5
1127.300938	965.25
1127.858726	971.75
1128.416457	968.0
1128.974131	954.25
1129.531748	961.0
1130.089307	967.0
1130.646808	959.75
1131.204252	971.5
1131.761639	969.0
1132.318969	961.75
1132.876241	969.25
1133.433456	961.5
1133.990614	954.5
1134.547714	961.5
1135.104757	962.5
1135.661743	962.0
1136.218671	955.5
1136.775542	955.0
1137.332356	968.75
1137.889112	960.0
1138.445811	959.5
1139.002453	979.75
1139.559037	967.0
1140.115565	956.5
1140.672035	964.75
1141.228447	958.0
1141.784803	966.5
1142.341101	963.5
1142.897342	970.75
1143.453525	969.5
1144.009651	970.75
1144.565721	965.0
1145.121732	966.0
1145.677687	969.75
1146.233584	978.5
1146.789424	973.5
1147.345207	979.5
1147.900933	977.0
1148.456601	968.75
1149.012212	966.5
1149.567766	972.25
1150.123263	967.25
1150.678702	958.0
1151.234085	963.25
1151.78941	973.0
1152.344678	961.25
1152.899888	969.0
1153.455042	968.0
1154.010138	977.75
1154.565177	966.5
1155.120159	973.0
1155.675084	971.0
1156.229951	978.75
1156.784762	965.0
1157.339515	977.5
1157.894211	976.0
1158.44885	971.0
1159.003432	979.75
1159.557956	980.0
1160.112424	965.5
1160.666834	970.75
1161.221187	970.5
1161.775483	980.0
1162.329722	973.0
1162.883904	971.0
1163.438029	963.5
1163.992096	973.0
1164.546107	973.5
1165.10006	974.75
1165.653956	975.25
1166.207795	968.5
1166.761577	967.75
1167.315302	979.75
1167.86897	975.5
1168.422581	969.5
1168.976134	971.5
1169.529631	986.0
1170.08307	978.25
1170.636453	968.5
1171.189778	978.0
1171.743046	975.75
1172.296257	972.5
1172.849412	973.0
1173.402509	977.5
1173.955549	973.0
1174.508532	982.0
1175.061458	974.0
1175.614327	993.5
1176.167138	975.75
1176.719893	965.5
1177.272591	980.75
1177.825232	977.0
1178.377816	977.5
1178.930342	981.5
1179.482812	975.75
1180.035225	988.25
1180.587581	971.0
1181.139879	979.0
1181.692121	974.5
1182.244306	979.25
1182.796434	967.75
1183.348504	985.5
1183.900518	969.5
1184.452475	972.5
1185.004375	983.25
1185.556218	974.25
1186.108004	974.0
1186.659733	964.0
1187.211405	967.5
1187.76302	965.25
1188.314578	978.25
1188.866079	973.0
1189.417523	978.5
1189.96891	969.25
1190.520241	973.0
1191.071514	973.5
1191.622731	973.5
1192.17389	970.75
1192.724993	991.0
1193.276039	993.5
1193.827027	981.0
1194.377959	975.75
1194.928834	968.0
1195.479653	976.5
1196.030414	972.25
1196.581118	969.5
1197.131766	981.25
1197.682356	975.5
1198.23289	972.25
1198.783367	966.5
1199.333786	974.25
1199.88415	979.75
1200.434456	974.75
1200.984705	975.0
1201.534898	977.25
1202.085033	978.0
1202.635112	975.25
1203.185134	975.5
1203.735099	986.25
1204.285007	960.75
1204.834859	987.0
1205.384653	986.75
1205.934391	972.75
1206.484072	974.5
1207.033696	985.25
1207.583263	979.25
1208.132774	982.5
1208.682228	963.0
1209.231624	973.75
1209.780965	979.75
1210.330248	981.75
1210.879474	975.0
1211.428644	975.25
1211.977757	978.5
1212.526813	983.75
1213.075813	967.25
1213.624755	981.5
1214.173641	975.25
1214.72247	980.75
1215.271242	971.75
1215.819958	974.25
1216.368617	966.25
1216.917219	969.0
1217.465764	976.25
1218.014253	975.75
1218.562685	984.75
1219.11106	969.25
1219.659378	987.25
1220.20764	991.5
1220.755845	980.0
1221.303993	980.5
1221.852085	973.75
1222.400119	970.5
1222.948097	972.0
1223.496019	987.5
1224.043883	987.75
1224.591691	978.0
1225.139443	982.75
1225.687137	970.75
1226.234775	984.25
1226.782357	980.75
1227.329881	994.0
1227.877349	975.75
1228.42476	974.5
1228.972115	982.5
1229.519413	975.75
1230.066654	980.75
1230.613839	984.0
1231.160967	987.25
1231.708038	977.75
1232.255053	980.0
1232.802011	975.75
1233.348912	989.25
1233.895757	987.5
1234.442545	988.75
1234.989277	980.25
1235.535951	980.0
1236.08257	989.5
1236.629131	977.0
1237.175636	986.0
1237.722085	984.75
1238.268477	988.75
1238.814812	975.5
1239.361091	996.0
1239.907313	972.75
1240.453478	982.25
1240.999587	990.5
1241.54564	983.0
1242.091636	995.0
1242.637575	987.25
1243.183457	980.25
1243.729284	979.0
1244.275053	989.75
1244.820766	997.25
1245.366423	987.5
1245.912022	979.75
1246.457566	991.5
1247.003053	988.5
1247.548483	987.75
1248.093857	987.5
1248.639174	982.25
1249.184435	983.75
1249.729639	991.75
1250.274787	981.5
1250.819878	988.25
1251.364912	989.5
1251.909891	983.5
1252.454812	996.0
1252.999677	990.0
1253.544486	999.5
1254.089238	982.5
1254.633934	989.75
1255.178573	986.75
1255.723156	993.0
1256.267682	993.75
1256.812152	981.25
1257.356565	997.0
1257.900922	996.25
1258.445223	997.0
1258.989467	997.75
1259.533654	994.75
1260.077785	1002.75
1260.62186	992.0
1261.165878	991.75
1261.70984	992.25
1262.253745	995.75
1262.797594	998.75
1263.341386	1004.0
1263.885123	1010.75
1264.428802	1018.0
1264.972425	1037.75
1265.515992	1056.0
1266.059503	1035.25
1266.602957	1011.75
1267.146354	1004.75
1267.689696	999.75
1268.23298	1000.75
1268.776209	990.25
1269.319381	984.0
1269.862497	1000.0
1270.405556	1000.5
1270.948559	991.25
1271.491506	1000.5
1272.034396	988.25
1272.57723	986.5
1273.120007	998.5
1273.662728	1000.25
1274.205393	992.25
1274.748002	999.25
1275.290554	982.0
1275.83305	994.5
1276.375489	1001.75
1276.917872	1004.25
1277.460199	1007.0
1278.00247	1003.75
1278.544684	999.75
1279.086842	1001.25
1279.628943	996.75
1280.170989	999.75
1280.712978	1004.5
1281.25491	1010.75
1281.796787	996.5
1282.338607	1003.5
1282.880371	1027.75
1283.422078	1037.25
1283.963729	1065.75
1284.505324	1164.5
1285.046863	1461.75
1285.588345	1922.75
1286.129772	1667.75
1286.671142	1216.25
1287.212455	1069.0
1287.753713	1030.0
1288.294914	1021.75
1288.836059	1008.75
1289.377147	1014.5
1289.91818	1001.0
1290.459156	999.75
1291.000076	1015.5
1291.54094	1005.25
1292.081747	998.25
1292.622499	998.25
1293.163194	989.25
1293.703833	1004.5
1294.244415	1001.75
1294.784942	1000.25
1295.325412	999.0
1295.865826	999.0
1296.406184	994.75
1296.946486	1003.75
1297.486731	997.0
1298.026921	994.25
1298.567054	994.25
1299.107131	994.5
1299.647152	998.0
1300.187116	992.0
1300.727025	990.5
1301.266877	1002.75
1301.806673	995.5
1302.346413	999.5
1302.886097	996.75
1303.425725	994.25
1303.965297	1005.0
1304.504812	993.5
1305.044272	998.0
1305.583675	994.5
1306.123022	993.25
1306.662313	983.25
1307.201548	1004.75
1307.740727	985.75
1308.279849	993.25
1308.818916	991.25
1309.357926	1004.5
1309.896881	1008.25
1310.435779	1001.0
1310.974621	997.75
1311.513407	1004.5
1312.052137	993.25
1312.590811	1012.75
1313.129429	990.75
1313.667991	997.25
1314.206497	985.75
1314.744946	994.0
1315.28334	988.0
1315.821678	999.25
1316.359959	997.25
1316.898184	994.5
1317.436354	1000.25
1317.974467	997.25
1318.512525	990.25
1319.050526	992.75
1319.588471	994.75
1320.12636	990.5
1320.664194	995.75
1321.201971	991.0
1321.739692	998.5
1322.277357	998.25
1322.814967	994.0
1323.35252	984.75
1323.890017	991.0
1324.427458	995.0
1324.964843	1000.5
1325.502173	994.75
1326.039446	1001.5
1326.576663	992.75
1327.113824	992.5
1327.65093	990.25
1328.187979	987.0
1328.724972	991.25
1329.26191	993.0
1329.798791	988.0
1330.335617	981.5
1330.872386	998.5
1331.4091	995.75
1331.945758	998.0
1332.48236	990.0
1333.018905	981.0
1333.555395	992.5
1334.091829	994.5
1334.628207	1001.75
1335.164529	993.5
1335.700796	990.75
1336.237006	991.5
1336.77316	990.5
1337.309259	999.5
1337.845301	984.0
1338.381288	1004.25
1338.917219	988.75
1339.453094	1000.25
1339.988913	985.5
1340.524676	991.0
1341.060383	995.75
1341.596034	991.5
1342.13163	989.5
1342.66717	993.25
1343.202653	1004.5
1343.738081	980.75
1344.273453	997.5
1344.80877	993.75
1345.34403	1002.25
1345.879235	997.25
1346.414383	1003.5
1346.949476	995.75
1347.484513	995.25
1348.019494	991.25
1348.55442	993.25
1349.089289	998.0
1349.624103	976.25
1350.158861	988.0
1350.693563	1001.0
1351.228209	979.75
1351.7628	994.75
1352.297334	991.0
1352.831813	998.75
1353.366236	991.25
1353.900604	995.5
1354.434915	997.5
1354.969171	989.75
1355.503371	993.0
1356.037515	1006.0
1356.571604	990.25
1357.105636	996.5
1357.639613	991.5
1358.173535	989.75
1358.7074	980.25
1359.24121	999.0
1359.774964	981.75
1360.308662	1002.5
1360.842304	984.25
1361.375891	991.5
1361.909422	997.0
1362.442897	1006.75
1362.976317	1001.0
1363.50968	1003.5
1364.042989	1000.75
1364.576241	995.0
1365.109438	984.75
1365.642579	980.75
1366.175664	1007.0
1366.708693	1003.75
1367.241667	1008.5
1367.774585	989.25
1368.307448	997.25
1368.840255	998.0
1369.373006	1000.0
1369.905701	1009.75
1370.438341	1017.25
1370.970925	1018.0
1371.503454	1003.5
1372.035926	995.25
1372.568344	991.5
1373.100705	997.0
1373.633011	996.5
1374.165261	998.75
1374.697456	990.75
1375.229595	998.5
1375.761678	998.0
1376.293705	1006.25
1376.825677	988.25
1377.357594	998.75
1377.889455	1002.5
1378.42126	984.0
1378.953009	1007.25
1379.484703	1001.0
1380.016342	1001.5
1380.547924	993.0
1381.079452	1001.5
1381.610923	998.5
1382.142339	1009.5
1382.673699	999.0
1383.205004	1003.25
1383.736253	1010.5
1384.267447	1008.5
1384.798585	1009.75
1385.329668	1014.0
1385.860695	1021.0
1386.391666	1033.25
1386.922582	1048.25
1387.453442	1077.75
1387.984247	1239.75
1388.514996	1867.25
1389.04569	2741.75
1389.576328	1855.5
1390.10691	1202.75
1390.637437	1060.5
1391.167909	1045.0
1391.698325	1034.25
1392.228685	1010.5
1392.75899	1012.0
1393.28924	1011.25
1393.819434	1021.0
1394.349572	1012.75
1394.879655	1005.25
1395.409683	1010.0
1395.939655	1009.0
1396.469571	1005.25
1396.999432	1006.5
1397.529237	1000.25
1398.058987	1004.75
1398.588682	984.25
1399.118321	1005.5
1399.647905	1002.25
1400.177433	1007.25
1400.706906	1001.75
1401.236323	995.75
1401.765685	1004.25
1402.294991	1009.25
1402.824242	1000.75
1403.353437	988.5
1403.882577	1004.75
1404.411662	995.5
1404.940691	1000.0
1405.469665	1003.75
1405.998583	1005.5
1406.527446	1003.0
1407.056253	994.5
1407.585005	996.75
1408.113702	1007.75
1408.642343	1017.0
1409.170929	1026.0
1409.69946	1068.0
1410.227935	1108.5
1410.756354	1097.25
1411.284719	1042.5
1411.813028	1018.75
1412.341281	1011.25
1412.869479	1001.75
1413.397622	1005.0
1413.92571	1000.5
1414.453742	1003.0
1414.981718	988.0
1415.50964	1020.5
1416.037506	1005.5
1416.565316	1003.0
1417.093072	1002.75
1417.620772	1004.25
1418.148416	998.25
1418.676005	1004.5
1419.203539	988.0
1419.731018	993.75
1420.258441	1004.75
1420.785809	1006.75
1421.313122	1005.25
1421.840379	996.75
1422.367582	1002.75
1422.894728	998.25
1423.42182	995.5
1423.948856	997.75
1424.475837	998.5
1425.002762	1000.5
1425.529633	1011.5
1426.056448	1011.75
1426.583207	1004.0
1427.109912	1006.5
1427.636561	994.75
1428.163155	998.25
1428.689694	999.5
1429.216177	1006.25
1429.742605	994.5
1430.268978	1002.25
1430.795296	1005.25
1431.321558	994.75
1431.847765	1003.5
1432.373917	1001.25
1432.900014	998.0
1433.426056	1000.25
1433.952042	1009.75
1434.477973	997.75
1435.003849	992.25
1435.529669	992.75
1436.055435	1007.0
1436.581145	999.0
1437.1068	998.25
1437.632399	1012.5
1438.157944	988.75
1438.683433	996.25
1439.208868	1003.75
1439.734247	994.0
1440.25957	995.25
1440.784839	992.25
1441.310053	997.0
1441.835211	993.75
1442.360314	998.25
1442.885362	999.0
1443.410355	1003.5
1443.935292	993.5
1444.460175	995.0
1444.985002	998.25
1445.509774	999.5
1446.034491	995.5
1446.559153	999.0
1447.08376	998.5
1447.608312	991.75
1448.132808	988.75
1448.65725	997.25
1449.181636	993.0
1449.705967	999.25
1450.230243	992.25
1450.754464	999.5
1451.27863	991.0
1451.802741	995.0
1452.326797	1002.25
1452.850797	998.0
1453.374743	995.75
1453.898633	985.5
1454.422468	995.75
1454.946249	997.75
1455.469974	1006.25
1455.993644	1004.25
1456.517259	993.75
1457.040819	1004.0
1457.564324	987.25
1458.087773	993.75
1458.611168	997.75
1459.134508	1004.75
1459.657793	994.0
1460.181022	1007.75
1460.704197	988.5
1461.227316	991.5
1461.750381	999.5
1462.27339	998.25
1462.796345	1016.0
1463.842089	1007.0
1464.364878	1007.25
1464.887613	980.0
1465.410292	997.5
1465.932916	995.25
1466.455486	995.25
1466.978	996.5
1467.50046	1001.5
1468.022864	991.75
1468.545214	987.25
1469.067508	994.0
1469.589748	999.75
1470.111932	1000.5
1470.634062	998.0
1471.156136	988.5
1471.678156	991.25
1472.20012	1002.0
1472.72203	995.75
1473.243885	984.5
1473.765685	1011.25
1474.28743	1005.5
1474.80912	996.25
1475.330755	992.25
1475.852335	999.5
1476.37386	998.0
1476.89533	995.0
1477.416745	993.5
1477.938106	1000.5
1478.459411	989.25
1478.980662	993.5
1479.501857	992.75
1480.022998	999.0
1480.544084	997.25
1481.065115	979.75
1481.586091	997.5
1482.107012	992.0
1482.627878	993.5
1483.14869	990.0
1483.669446	996.25
1484.190148	1006.5
1484.710794	985.25
1485.231386	1005.75
1485.751923	996.5
1486.272406	997.75
1486.792833	1001.5
1487.313205	990.5
1487.833523	1000.0
1488.353786	995.0
1488.873994	997.5
1489.394147	991.0
1489.914245	997.75
1490.434288	996.25
1490.954277	985.5
1491.474211	999.0
1491.99409	992.25
1492.513914	985.5
1493.033683	1007.25
1493.553398	997.0
1494.073057	996.5
1494.592662	985.75
1495.112212	987.5
1495.631708	983.0
1496.151148	990.5
1496.670534	993.0
1497.189865	992.75
1497.709141	1008.25
1498.228362	993.25
1498.747529	997.0
1499.266641	986.0
1499.785698	1006.25
1500.3047	988.75
1500.823648	984.75
1501.34254	999.0
1501.861379	991.75
1502.380162	993.25
1502.89889	982.0
1503.417564	980.0
1503.936183	1002.0
1504.454748	993.25
1504.973257	997.0
1505.491712	995.0
1506.010112	990.5
1506.528458	991.5
1507.046748	995.5
1507.564984	994.25
1508.083166	996.75
1508.601292	999.0
1509.119364	978.5
1509.637381	998.5
1510.155344	998.25
1510.673252	1004.0
1511.191105	997.5
1511.708903	985.0
1512.226647	1005.25
1512.744336	994.0
1513.261971	991.25
1513.77955	994.5
1514.297076	989.0
1514.814546	1000.25
1515.331962	997.0
1515.849323	987.0
1516.366629	993.5
1516.883881	989.25
1517.401078	985.75
1517.918221	1000.75
1518.435309	1005.25
1518.952342	1005.25
1519.469321	996.75
1519.986245	999.75
1520.503114	988.25
1521.019929	995.25
1521.536689	994.0
1522.053395	985.0
1522.570046	999.75
1523.086642	998.75
1523.603184	997.0
1524.119671	995.75
1524.636103	1000.25
1525.152481	1003.25
1525.668805	1007.25
1526.185073	1034.25
1526.701288	1013.75
1527.217447	995.25
1527.733552	990.25
1528.249603	1001.5
1528.765599	995.25
1529.28154	990.5
1529.797427	979.5
1530.313259	988.5
1530.829037	1011.5
1531.34476	988.5
1531.860429	1000.25
1532.376043	981.0
1532.891602	992.5
1533.407107	996.5
1533.922558	1000.0
1534.437954	988.25
1534.953295	1002.75
1535.468582	1011.0
1535.983815	1004.25
1536.498993	1004.75
1537.014116	995.0
1537.529185	1002.5
1538.044199	999.75
1538.559159	1009.25
1539.074064	998.5
1539.588915	1000.75
1540.103712	992.75
1540.618454	1000.25
1541.133141	996.75
1541.647774	991.25
1542.162353	994.25
1542.676877	997.25
1543.191346	996.75
1543.705761	998.5
1544.220122	992.5
1544.734428	992.75
1545.24868	1008.5
1545.762877	996.5
1546.27702	1004.5
1546.791109	1003.5
1547.305143	1005.75
1547.819122	998.25
1548.333047	997.75
1548.846918	997.0
1549.360734	996.5
1549.874496	1002.5
1550.388204	995.25
1550.901857	991.75
1551.415455	1009.25
1551.929	990.75
1552.442489	1001.25
1552.955925	1004.25
1553.469306	1001.75
1553.982632	991.5
1554.495905	993.0
1555.009123	1009.25
1555.522286	994.25
1556.035395	1000.0
1556.54845	998.75
1557.06145	997.0
1557.574396	998.5
1558.087288	1000.5
1558.600125	1007.75
1559.112908	996.5
1559.625637	994.0
1560.138311	983.5
1560.650931	1007.0
1561.163497	998.5
1561.676008	988.5
1562.188465	1003.25
1562.700867	1002.0
1563.213216	1005.75
1563.725509	995.75
1564.237749	996.0
1564.749934	1004.0
1565.262065	1003.0
1565.774142	994.5
1566.286164	1004.25
1566.798132	1000.0
1567.310046	1005.5
1567.821906	1013.5
1568.333711	1004.5
1568.845462	1001.5
1569.357158	1004.0
1569.868801	997.75
1570.380389	1012.0
1570.891922	1000.0
1571.403402	998.0
1571.914827	1008.25
1572.426198	993.75
1572.937515	1004.75
1573.448777	1000.75
1573.959985	1005.75
1574.471139	1004.5
1574.982239	991.5
1575.493285	998.0
1576.004276	1010.75
1576.515213	1000.75
1577.026096	998.25
1577.536924	1005.25
1578.047698	994.75
1578.558419	1009.25
1579.069084	1003.5
1579.579696	1004.25
1580.090254	1004.0
1580.600757	1008.75
1581.111206	994.75
1581.621601	1007.75
1582.131941	995.25
1582.642228	1000.25
1583.15246	989.5
1583.662638	1002.75
1584.172762	1007.0
1584.682832	1007.75
1585.192847	996.5
1585.702809	999.0
1586.212716	1000.0
1586.722569	996.25
1587.232368	1002.75
1587.742113	999.75
1588.251803	1002.0
1588.76144	1001.5
1589.271022	1007.5
1589.78055	997.25
1590.290024	992.75
1590.799444	1014.0
1591.30881	991.0
1591.818121	1001.75
1592.327379	1000.25
