1042.414189	715.75
1042.980685	714.0
1043.547124	717.75
1044.113505	717.5
1044.679828	710.75
1045.246093	712.25
1045.8123	709.5
1046.378449	711.0
1046.94454	712.5
1047.510573	714.5
1048.076548	710.5
1048.642465	706.75
1049.208325	704.75
1049.774126	709.75
1050.339869	708.5
1050.905555	703.25
1051.471183	706.75
1052.036752	706.0
1052.602264	700.0
1053.167718	701.75
1053.733114	699.75
1054.298452	704.75
1054.863733	705.5
1055.428955	706.25
1055.994119	703.75
1056.559226	705.0
1057.124275	698.0
1057.689266	700.75
1058.254199	702.5
1058.819074	700.75
1059.383891	705.75
1059.94865	703.5
1060.513352	701.5
1061.077996	702.75
1061.642582	699.5
1062.20711	703.75
1062.77158	700.75
1063.335992	701.25
1063.900347	704.0
1064.464643	704.75
1065.028882	703.5
1065.593063	695.25
1066.157187	702.25
1066.721252	700.75
1067.28526	706.75
1067.84921	702.5
1068.413102	699.0
1068.976936	701.25
1069.540713	702.25
1070.104431	711.25
1070.668092	702.5
1071.231696	704.25
1071.795241	701.0
1072.358729	701.25
1072.922159	698.25
1073.485531	701.25
1074.048845	700.25
1074.612102	703.25
1075.175301	704.5
1075.738442	704.5
1076.301525	700.75
1076.864551	705.0
1077.427519	702.75
1077.990429	697.0
1078.553281	705.5
1079.116076	702.75
1079.678813	704.25
1080.241492	704.5
1080.804114	703.75
1081.366678	702.0
1081.929184	704.75
1082.491633	706.25
1083.054024	711.75
1083.616357	710.5
1084.178632	712.0
1084.74085	706.25
1085.30301	703.5
1085.865113	707.25
1086.427158	709.5
1086.989145	710.25
1087.551074	711.5
1088.112946	710.0
1088.67476	707.25
1089.236517	721.25
1089.798216	711.5
1090.359857	715.25
1090.92144	712.75
1091.482966	719.5
1092.044435	725.0
1092.605845	724.75
1093.167199	722.0
1093.728494	718.25
1094.289732	726.0
1094.850912	728.75
1095.412035	733.5
1095.9731	719.5
1096.534107	724.75
1097.095057	728.25
1097.65595	717.5
1098.216784	718.75
1098.777561	711.75
1099.338281	715.25
1099.898943	717.0
1100.459547	715.0
1101.020094	711.75
1101.580584	709.0
1102.141015	712.75
1102.701389	710.5
1103.261706	710.75
1103.821965	705.0
1104.382167	712.75
1104.942311	708.75
1105.502397	704.25
1106.062426	707.5
1106.622398	706.5
1107.182312	701.75
1107.742168	703.25
1108.301967	701.75
1108.861708	702.0
1109.421392	701.25
1109.981019	699.5
1110.540587	699.5
1111.100099	696.5
1111.659553	697.5
1112.218949	703.5
1112.778288	702.25
1113.33757	699.25
1113.896794	695.75
1114.45596	696.0
1115.015069	697.75
1115.574121	698.5
1116.133115	702.5
1116.692052	697.5
1117.250931	702.75
1117.809753	699.75
1118.368517	698.5
1118.927224	698.0
1119.485873	696.25
1120.044465	701.75
1120.603	699.0
1121.161477	696.0
1121.719897	698.5
1122.278259	696.5
1122.836564	698.5
1123.394812	696.5
1123.953002	697.5
1124.511135	697.75
1125.06921	696.25
1125.627228	697.75
1126.185189	699.25
1126.743092	701.0
1127.300938	699.0
1127.858726	695.25
1128.416457	695.75
1128.974131	699.5
1129.531748	699.0
1130.089307	700.25
1130.646808	700.0
1131.204252	695.75
1131.761639	700.25
1132.318969	698.25
1132.876241	700.25
1133.433456	700.25
1133.990614	697.5
1134.547714	698.25
1135.104757	696.25
1135.661743	701.25
1136.218671	694.0
1136.775542	702.25
1137.332356	695.0
1137.889112	699.25
1138.445811	700.25
1139.002453	696.25
1139.559037	698.25
1140.115565	698.25
1140.672035	698.25
1141.228447	695.75
1141.784803	700.25
1142.341101	698.0
1142.897342	695.75
1143.453525	699.75
1144.009651	699.0
1144.565721	699.5
1145.121732	697.5
1145.677687	702.5
1146.233584	699.25
1146.789424	701.5
1147.345207	700.5
1147.900933	698.25
1148.456601	702.25
1149.012212	700.0
1149.567766	697.5
1150.123263	698.0
1150.678702	700.25
1151.234085	698.5
1151.78941	701.25
1152.344678	700.0
1152.899888	700.0
1153.455042	697.0
1154.010138	701.5
1154.565177	698.25
1155.120159	696.5
1155.675084	700.0
1156.229951	701.0
1156.784762	700.25
1157.339515	701.25
1157.894211	700.5
1158.44885	698.0
1159.003432	701.5
1159.557956	702.0
1160.112424	699.25
1160.666834	701.75
1161.221187	702.0
1161.775483	700.5
1162.329722	700.0
1162.883904	699.75
1163.438029	701.75
1163.992096	700.75
1164.546107	694.75
1165.10006	699.0
1165.653956	703.5
1166.207795	699.25
1166.761577	701.25
1167.315302	696.75
1167.86897	704.0
1168.422581	700.25
1168.976134	705.75
1169.529631	697.25
1170.08307	698.75
1170.636453	697.75
1171.189778	704.25
1171.743046	701.25
1172.296257	701.5
1172.849412	703.75
1173.402509	695.0
1173.955549	703.25
1174.508532	702.5
1175.061458	698.5
1175.614327	698.5
1176.167138	703.25
1176.719893	702.25
1177.272591	698.0
1177.825232	702.25
1178.377816	702.25
1178.930342	699.75
1179.482812	697.5
1180.035225	702.5
1180.587581	699.0
1181.139879	700.0
1181.692121	702.25
1182.244306	704.25
1182.796434	699.5
1183.348504	702.0
1183.900518	697.0
1184.452475	701.0
1185.004375	703.25
1185.556218	699.75
1186.108004	697.5
1186.659733	700.75
1187.211405	698.75
1187.76302	699.75
1188.314578	700.0
1188.866079	699.0
1189.417523	701.5
1189.96891	701.25
1190.520241	701.5
1191.071514	699.25
1191.622731	700.25
1192.17389	698.75
1192.724993	698.75
1193.276039	718.5
1193.827027	701.75
1194.377959	698.25
1194.928834	701.5
1195.479653	705.0
1196.030414	697.5
1196.581118	701.5
1197.131766	701.0
1197.682356	701.75
1198.23289	698.5
1198.783367	698.75
1199.333786	696.5
1199.88415	700.25
1200.434456	698.5
1200.984705	699.25
1201.534898	698.75
1202.085033	699.5
1202.635112	697.75
1203.185134	698.5
1203.735099	703.25
1204.285007	704.25
1204.834859	698.5
1205.384653	696.5
1205.934391	705.5
1206.484072	699.25
1207.033696	701.5
1207.583263	703.5
1208.132774	701.5
1208.682228	704.25
1209.231624	698.0
1209.780965	702.75
1210.330248	699.25
1210.879474	705.75
1211.428644	700.0
1211.977757	704.75
1212.526813	703.0
1213.075813	702.25
1213.624755	701.25
1214.173641	704.0
1214.72247	702.0
1215.271242	705.0
1215.819958	701.5
1216.368617	701.25
1216.917219	703.25
1217.465764	700.5
1218.014253	706.5
1218.562685	701.75
1219.11106	696.0
1219.659378	702.75
1220.20764	701.5
1220.755845	700.0
1221.303993	701.5
1221.852085	700.0
1222.400119	703.0
1222.948097	705.5
1223.496019	707.25
1224.043883	697.25
1224.591691	702.0
1225.139443	699.75
1225.687137	702.25
1226.234775	702.0
1226.782357	697.5
1227.329881	701.0
1227.877349	699.75
1228.42476	704.0
1228.972115	703.25
1229.519413	704.75
1230.066654	706.75
1230.613839	702.0
1231.160967	702.5
1231.708038	704.0
1232.255053	704.25
1232.802011	702.0
1233.348912	701.75
1233.895757	703.75
1234.442545	706.0
1234.989277	702.0
1235.535951	702.5
1236.08257	705.5
1236.629131	701.75
1237.175636	702.75
1237.722085	699.5
1238.268477	703.75
1238.814812	702.25
1239.361091	703.5
1239.907313	707.25
1240.453478	702.0
1240.999587	705.25
1241.54564	704.5
1242.091636	705.25
1242.637575	704.0
1243.183457	704.75
1243.729284	705.75
1244.275053	709.0
1244.820766	709.75
1245.366423	705.0
1245.912022	707.0
1246.457566	704.75
1247.003053	711.0
1247.548483	708.0
1248.093857	707.25
1248.639174	711.0
1249.184435	710.25
1249.729639	706.5
1250.274787	706.75
1250.819878	711.75
1251.364912	706.0
1251.909891	706.0
1252.454812	707.75
1252.999677	708.75
1253.544486	707.25
1254.089238	711.25
1254.633934	709.75
1255.178573	714.0
1255.723156	708.0
1256.267682	712.0
1256.812152	709.5
1257.356565	713.75
1257.900922	716.5
1258.445223	718.75
1258.989467	715.0
1259.533654	712.25
1260.077785	723.75
1260.62186	718.25
1261.165878	717.5
1261.70984	726.25
1262.253745	736.25
1262.797594	742.0
1263.341386	748.75
1263.885123	743.25
1264.428802	738.5
1264.972425	731.0
1265.515992	730.75
1266.059503	717.0
1266.602957	720.75
1267.146354	717.5
1267.689696	715.75
1268.23298	717.25
1268.776209	714.0
1269.319381	716.75
1269.862497	710.0
1270.405556	719.5
1270.948559	717.0
1271.491506	711.75
1272.034396	714.0
1272.57723	715.25
1273.120007	721.25
1273.662728	713.5
1274.205393	710.0
1274.748002	718.25
1275.290554	720.0
1275.83305	719.0
1276.375489	722.25
1276.917872	716.75
1277.460199	720.25
1278.00247	722.5
1278.544684	725.75
1279.086842	729.0
1279.628943	740.5
1280.170989	751.25
1280.712978	766.75
1281.25491	794.75
1281.796787	884.0
1282.338607	1052.5
1282.880371	1277.0
1283.422078	1365.25
1283.963729	1205.0
1284.505324	1010.0
1285.046863	874.5
1285.588345	793.5
1286.129772	763.5
1286.671142	753.25
1287.212455	736.25
1287.753713	737.25
1288.294914	735.5
1288.836059	726.75
1289.377147	722.0
1289.91818	720.25
1290.459156	718.25
1291.000076	719.25
1291.54094	719.25
1292.081747	718.5
1292.622499	710.75
1293.163194	714.75
1293.703833	721.5
1294.244415	720.0
1294.784942	711.75
1295.325412	714.75
1295.865826	714.25
1296.406184	715.75
1296.946486	714.75
1297.486731	712.0
1298.026921	716.75
1298.567054	715.0
1299.107131	712.25
1299.647152	712.25
1300.187116	713.5
1300.727025	714.0
1301.266877	714.0
1301.806673	707.25
1302.346413	709.5
1302.886097	712.25
1303.425725	715.5
1303.965297	710.0
1304.504812	714.0
1305.044272	703.75
1305.583675	711.75
1306.123022	708.75
1306.662313	711.0
1307.201548	708.25
1307.740727	708.75
1308.279849	714.0
1308.818916	709.0
1309.357926	712.5
1309.896881	712.25
1310.435779	709.5
1310.974621	708.0
1311.513407	706.25
1312.052137	707.25
1312.590811	710.75
1313.129429	706.25
1313.667991	707.25
1314.206497	709.75
1314.744946	709.0
1315.28334	704.5
1315.821678	709.25
1316.359959	708.25
1316.898184	711.0
1317.436354	711.75
1317.974467	710.25
1318.512525	711.25
1319.050526	707.0
1319.588471	706.75
1320.12636	704.75
1320.664194	704.5
1321.201971	707.0
1321.739692	709.0
1322.277357	709.0
1322.814967	707.5
1323.35252	708.0
1323.890017	707.25
1324.427458	711.25
1324.964843	707.5
1325.502173	708.75
1326.039446	707.25
1326.576663	709.0
1327.113824	709.75
1327.65093	706.5
1328.187979	708.0
1328.724972	709.75
1329.26191	710.25
1329.798791	707.25
1330.335617	710.0
1330.872386	712.0
1331.4091	710.75
1331.945758	708.5
1332.48236	709.25
1333.018905	705.5
1333.555395	709.0
1334.091829	712.0
1334.628207	706.75
1335.164529	705.0
1335.700796	707.75
1336.237006	710.5
1336.77316	707.5
1337.309259	711.25
1337.845301	712.5
1338.381288	706.75
1338.917219	707.0
1339.453094	714.75
1339.988913	707.75
1340.524676	706.25
1341.060383	705.25
1341.596034	711.5
1342.13163	703.5
1342.66717	710.25
1343.202653	705.75
1343.738081	704.5
1344.273453	710.0
1344.80877	712.5
1345.34403	705.5
1345.879235	710.75
1346.414383	707.5
1346.949476	708.25
1347.484513	705.0
1348.019494	706.0
1348.55442	708.25
1349.089289	708.5
1349.624103	710.0
1350.158861	708.75
1350.693563	705.5
1351.228209	707.0
1351.7628	710.0
1352.297334	709.0
1352.831813	710.75
1353.366236	709.5
1353.900604	705.25
1354.434915	707.5
1354.969171	710.5
1355.503371	707.25
1356.037515	709.5
1356.571604	711.5
1357.105636	708.75
1357.639613	708.5
1358.173535	711.0
1358.7074	705.5
1359.24121	710.0
1359.774964	710.75
1360.308662	712.0
1360.842304	705.5
1361.375891	711.0
1361.909422	715.75
1362.442897	705.75
1362.976317	713.75
1363.50968	711.5
1364.042989	710.5
1364.576241	719.25
1365.109438	716.0
1365.642579	715.75
1366.175664	710.25
1366.708693	714.25
1367.241667	712.5
1367.774585	713.75
1368.307448	712.0
1368.840255	717.25
1369.373006	722.0
1369.905701	743.75
1370.438341	729.25
1370.970925	718.75
1371.503454	717.0
1372.035926	710.5
1372.568344	718.0
1373.100705	718.25
1373.633011	718.0
1374.165261	718.75
1374.697456	717.5
1375.229595	715.5
1375.761678	722.5
1376.293705	721.25
1376.825677	714.75
1377.357594	722.75
1377.889455	721.5
1378.42126	720.5
1378.953009	722.0
1379.484703	725.75
1380.016342	730.5
1380.547924	723.5
1381.079452	730.75
1381.610923	730.0
1382.142339	737.75
1382.673699	741.25
1383.205004	743.0
1383.736253	756.0
1384.267447	764.25
1384.798585	782.5
1385.329668	821.25
1385.860695	888.25
1386.391666	1050.0
1386.922582	1412.75
1387.453442	1958.75
1387.984247	2002.25
1388.514996	1440.0
1389.04569	1034.0
1389.576328	866.75
1390.10691	803.0
1390.637437	775.25
1391.167909	755.0
1391.698325	749.25
1392.228685	739.75
1392.75899	740.75
1393.28924	730.75
1393.819434	733.5
1394.349572	725.25
1394.879655	730.0
1395.409683	726.75
1395.939655	719.25
1396.469571	724.0
1398.058987	775.75
1398.588682	719.75
1399.118321	717.75
1399.647905	717.75
1400.177433	717.5
1400.706906	720.0
1401.236323	721.75
1401.765685	716.5
1402.294991	722.75
1402.824242	722.5
1403.353437	726.0
1403.882577	727.25
1404.411662	719.0
1404.940691	725.25
1405.469665	723.0
1405.998583	723.75
1406.527446	733.5
1407.056253	735.0
1407.585005	743.75
1408.113702	752.25
1408.642343	764.0
1409.170929	775.25
1409.69946	771.75
1410.227935	750.75
1410.756354	740.0
1411.284719	733.75
1411.813028	731.0
1412.341281	723.25
1412.869479	715.0
1413.397622	715.5
1413.92571	714.25
1414.453742	715.0
1414.981718	714.75
1415.50964	723.0
1416.037506	709.5
1416.565316	710.75
1417.093072	709.75
1417.620772	703.75
1418.148416	711.0
1418.676005	708.5
1419.203539	712.25
1419.731018	706.5
1420.258441	709.0
1420.785809	707.75
1421.313122	710.25
1421.840379	706.25
1422.367582	705.5
1422.894728	708.5
1423.42182	707.0
1423.948856	709.0
1424.475837	707.75
1425.002762	708.25
1425.529633	708.75
1426.056448	710.5
1426.583207	708.25
1427.109912	714.75
1427.636561	707.5
1428.163155	704.25
1428.689694	703.25
1429.216177	706.25
1429.742605	706.5
1430.268978	708.75
1430.795296	703.25
1431.321558	704.5
1431.847765	707.5
1432.373917	707.25
1432.900014	706.0
1433.426056	701.5
1433.952042	702.0
1434.477973	708.0
1435.003849	699.25
1435.529669	705.5
1436.055435	703.75
1436.581145	702.75
1437.1068	702.25
1437.632399	707.0
1438.157944	705.25
1438.683433	705.25
1439.208868	703.25
1439.734247	703.25
1440.25957	701.25
1440.784839	707.0
1441.310053	703.0
1441.835211	702.75
1442.360314	702.75
1442.885362	704.25
1443.410355	707.0
1443.935292	704.0
1444.460175	703.0
1444.985002	707.75
1445.509774	703.75
1446.034491	703.75
1446.559153	700.0
1447.08376	700.75
1447.608312	700.75
1448.132808	705.75
1448.65725	701.0
1449.181636	708.75
1449.705967	702.25
1450.230243	702.5
1450.754464	701.75
1451.27863	705.5
1451.802741	704.0
1452.326797	700.75
1452.850797	704.25
1453.374743	701.5
1453.898633	698.75
1454.422468	695.75
1454.946249	703.25
1455.469974	701.0
1455.993644	700.5
1456.517259	706.25
1457.040819	707.0
1457.564324	700.0
1458.087773	701.0
1458.611168	697.5
1459.134508	700.75
1459.657793	699.75
1460.181022	701.25
1460.704197	696.5
1461.227316	702.75
1461.750381	698.0
1462.27339	701.25
1462.796345	715.25
1463.319244	732.0
1463.842089	710.5
1464.364878	700.5
1464.887613	700.0
1465.410292	701.25
1465.932916	698.25
1466.455486	704.25
1466.978	702.0
1467.50046	702.0
1468.022864	702.0
1468.545214	701.25
1469.067508	704.0
1469.589748	698.5
1470.111932	704.25
1470.634062	702.0
1471.156136	700.75
1471.678156	701.5
1472.20012	705.5
1472.72203	700.75
1473.243885	705.5
1473.765685	695.5
1474.28743	702.5
1474.80912	696.5
1475.330755	704.0
1475.852335	699.0
1476.37386	701.25
1476.89533	700.75
1477.416745	704.5
1477.938106	701.25
1478.459411	702.5
1478.980662	701.0
1479.501857	698.25
1480.022998	699.25
1480.544084	696.5
1481.065115	701.5
1481.586091	698.5
1482.107012	700.25
1482.627878	703.25
1483.14869	700.5
1483.669446	704.25
1484.190148	696.0
1484.710794	697.0
1485.231386	699.25
1485.751923	702.5
1486.272406	706.25
1486.792833	702.75
1487.313205	700.25
1487.833523	699.0
1488.353786	696.25
1488.873994	702.25
1489.394147	695.75
1489.914245	698.5
1490.434288	699.75
1490.954277	702.0
1491.474211	702.25
1491.99409	698.75
1492.513914	700.25
1493.033683	700.25
1493.553398	695.0
1494.073057	698.5
1494.592662	702.5
1495.112212	699.75
1495.631708	695.75
1496.151148	706.0
1496.670534	701.0
1497.189865	698.5
1497.709141	699.5
1498.228362	700.0
1498.747529	696.5
1499.266641	702.25
1499.785698	706.25
1500.3047	699.75
1500.823648	699.75
1501.34254	702.5
1501.861379	695.75
1502.380162	700.5
1502.89889	705.5
1503.417564	699.25
1503.936183	706.5
1504.454748	705.5
1504.973257	702.25
1505.491712	702.25
1506.010112	701.75
1506.528458	700.25
1507.046748	693.75
1507.564984	703.75
1508.083166	699.75
1508.601292	698.5
1509.119364	701.0
1509.637381	697.75
1510.155344	704.0
1510.673252	709.0
1511.191105	702.75
1511.708903	697.25
1512.226647	700.75
1512.744336	700.25
1513.261971	699.25
1513.77955	702.0
1514.297076	694.25
1514.814546	698.25
1515.331962	702.25
1515.849323	695.0
1516.366629	696.25
1516.883881	698.25
1517.401078	703.75
1517.918221	698.25
1518.435309	701.5
1518.952342	701.75
1519.469321	701.75
1519.986245	704.75
1520.503114	708.0
1521.019929	695.25
1521.536689	698.75
1522.053395	699.75
1522.570046	697.5
1523.086642	702.5
1523.603184	703.25
1524.119671	700.75
1524.636103	704.0
1525.152481	703.5
1525.668805	704.25
1526.185073	722.5
1526.701288	710.25
1527.217447	704.0
1527.733552	701.25
1528.249603	697.5
1528.765599	697.5
1529.28154	696.0
1529.797427	699.25
1530.313259	701.25
1530.829037	699.25
1531.34476	703.5
1531.860429	701.0
1532.376043	704.25
1532.891602	697.75
1533.407107	699.5
1533.922558	698.5
1534.437954	699.5
1534.953295	701.5
1535.468582	700.5
1535.983815	702.5
1536.498993	697.0
1537.014116	698.0
1537.529185	697.0
1538.044199	699.25
1538.559159	701.5
1539.074064	699.0
1539.588915	700.75
1540.103712	696.5
1540.618454	698.5
1541.133141	697.25
1541.647774	702.75
1542.162353	701.75
1542.676877	696.5
1543.191346	701.0
1543.705761	698.75
1544.220122	698.75
1544.734428	699.5
1545.24868	704.25
1545.762877	700.0
1546.27702	700.25
1546.791109	700.0
1547.305143	708.5
1547.819122	702.0
1548.333047	702.0
1548.846918	698.25
1549.360734	696.0
1549.874496	699.75
1550.388204	700.5
1550.901857	699.25
1551.415455	697.5
1551.929	701.75
1552.442489	702.0
1552.955925	696.75
1553.469306	696.0
1553.982632	703.75
1554.495905	702.75
1555.009123	701.25
1555.522286	701.75
1556.035395	701.0
1556.54845	700.25
1557.06145	699.75
1557.574396	698.0
1558.087288	698.0
1558.600125	704.25
1559.112908	698.25
1559.625637	701.75
1560.138311	703.25
1560.650931	702.5
1561.163497	701.5
1561.676008	703.0
1562.188465	699.0
1562.700867	702.5
1563.213216	701.5
1563.725509	705.25
1564.237749	701.0
1564.749934	703.0
1565.262065	699.75
1565.774142	707.25
1566.286164	702.25
1566.798132	698.5
1567.310046	698.25
1567.821906	701.0
1568.333711	700.5
1568.845462	702.0
1569.357158	703.75
1569.868801	703.0
1570.380389	702.0
1570.891922	708.5
1571.403402	699.75
1571.914827	701.75
1572.426198	703.25
1572.937515	702.5
1573.448777	703.0
1573.959985	699.75
1574.471139	704.0
1574.982239	700.0
1575.493285	701.5
1576.004276	701.5
1576.515213	701.25
1577.026096	702.5
1577.536924	700.0
1578.047698	702.5
1578.558419	698.0
1579.069084	704.0
1579.579696	700.75
1580.090254	703.75
1580.600757	703.5
1581.111206	698.25
1581.621601	704.5
1582.131941	703.0
1582.642228	698.75
1583.15246	699.5
1583.662638	695.0
1584.172762	700.0
1584.682832	700.5
1585.192847	702.75
1585.702809	700.75
1586.212716	700.5
1586.722569	697.75
1587.232368	700.25
1587.742113	703.25
1588.251803	696.25
1588.76144	700.75
1589.271022	698.5
1589.78055	702.5
1590.290024	696.75
1590.799444	700.25
1591.30881	701.0
1591.818121	703.75
1592.327379	695.25
