1042.414189	703.75
1042.980685	700.25
1043.547124	703.5
1044.113505	700.75
1044.679828	701.0
1045.246093	699.75
1045.8123	695.0
1046.378449	698.0
1046.94454	696.75
1047.510573	694.5
1048.076548	694.0
1048.642465	690.0
1049.208325	692.25
1049.774126	693.25
1050.339869	693.5
1050.905555	693.25
1051.471183	692.0
1052.036752	693.5
1052.602264	690.5
1053.167718	697.25
1053.733114	687.0
1054.298452	691.25
1054.863733	691.75
1055.428955	687.25
1055.994119	687.75
1056.559226	686.5
1057.124275	691.25
1057.689266	691.0
1058.254199	687.0
1058.819074	688.0
1059.383891	685.25
1059.94865	688.25
1060.513352	684.25
1061.077996	689.0
1061.642582	686.25
1062.20711	688.5
1062.77158	690.5
1063.335992	686.75
1063.900347	684.75
1064.464643	689.75
1065.028882	685.75
1065.593063	690.5
1066.157187	685.25
1066.721252	681.5
1067.28526	684.25
1067.84921	689.25
1068.413102	685.25
1068.976936	688.25
1069.540713	686.25
1070.104431	698.0
1070.668092	684.25
1071.231696	683.75
1071.795241	685.0
1072.358729	683.75
1072.922159	685.75
1073.485531	689.0
1074.048845	684.75
1074.612102	691.0
1075.175301	686.75
1075.738442	685.0
1076.301525	680.75
1076.864551	687.25
1077.427519	686.0
1077.990429	689.75
1078.553281	687.5
1079.116076	685.0
1079.678813	682.0
1080.241492	685.5
1080.804114	687.0
1081.366678	686.75
1081.929184	684.75
1082.491633	686.0
1083.054024	686.0
1083.616357	686.75
1084.178632	691.0
1084.74085	685.5
1085.30301	686.25
1085.865113	686.75
1086.427158	687.0
1086.989145	688.5
1087.551074	684.0
1088.112946	684.75
1088.67476	685.75
1089.236517	689.0
1089.798216	687.0
1090.359857	686.0
1090.92144	686.25
1091.482966	686.75
1092.044435	689.75
1092.605845	682.5
1093.167199	687.25
1093.728494	685.75
1094.289732	689.0
1094.850912	685.75
1095.412035	695.25
1095.9731	685.25
1096.534107	684.5
1097.095057	695.0
1097.65595	683.75
1098.216784	686.25
1098.777561	685.75
1099.338281	685.75
1099.898943	687.5
1100.459547	684.25
1101.020094	688.0
1101.580584	685.5
1102.141015	683.25
1102.701389	689.5
1103.261706	681.75
1103.821965	688.0
1104.382167	681.75
1104.942311	686.5
1105.502397	684.75
1106.062426	683.25
1106.622398	686.5
1107.182312	686.0
1107.742168	684.5
1108.301967	684.0
1108.861708	684.5
1109.421392	686.5
1109.981019	684.5
1110.540587	685.75
1111.100099	683.75
1111.659553	686.75
1112.218949	685.75
1112.778288	683.25
1113.33757	685.0
1113.896794	683.0
1114.45596	680.25
1115.015069	685.75
1115.574121	688.25
1116.133115	685.0
1116.692052	683.25
1117.250931	684.0
1117.809753	684.75
1118.368517	683.75
1118.927224	684.0
1119.485873	685.75
1120.044465	683.25
1120.603	682.25
1121.161477	680.75
1121.719897	687.0
1122.278259	685.75
1122.836564	687.25
1123.394812	686.25
1123.953002	685.5
1124.511135	688.0
1125.06921	684.25
1125.627228	684.0
1126.185189	687.5
1126.743092	689.75
1127.300938	686.75
1127.858726	683.0
1128.416457	685.75
1128.974131	685.25
1129.531748	683.75
1130.089307	683.75
1130.646808	685.5
1131.204252	680.0
1131.761639	685.5
1132.318969	683.75
1132.876241	687.25
1133.433456	683.0
1133.990614	684.25
1134.547714	685.5
1135.104757	686.5
1135.661743	684.5
1136.218671	685.25
1136.775542	684.5
1137.332356	684.5
1137.889112	684.75
1138.445811	685.5
1139.002453	682.75
1139.559037	683.5
1140.115565	683.75
1140.672035	685.5
1141.228447	683.5
1141.784803	682.5
1142.341101	685.5
1142.897342	684.25
1143.453525	683.25
1144.009651	685.25
1144.565721	688.0
1145.121732	682.25
1145.677687	685.25
1146.233584	688.5
1146.789424	682.5
1147.345207	684.0
1147.900933	683.0
1148.456601	688.25
1149.012212	686.5
1149.567766	687.0
1150.123263	686.25
1150.678702	685.5
1151.234085	690.25
1151.78941	686.25
1152.344678	684.5
1152.899888	686.0
1153.455042	685.25
1154.010138	686.5
1154.565177	683.75
1155.120159	687.25
1155.675084	684.25
1156.229951	691.5
1156.784762	683.0
1157.339515	688.0
1157.894211	685.25
1158.44885	686.25
1159.003432	687.25
1159.557956	687.0
1160.112424	687.75
1160.666834	684.0
1161.221187	687.0
1161.775483	686.75
1162.329722	689.0
1162.883904	688.5
1163.438029	684.5
1163.992096	685.5
1164.546107	680.75
1165.10006	684.0
1165.653956	686.25
1166.207795	684.0
1166.761577	683.0
1167.315302	693.5
1167.86897	684.25
1168.422581	685.5
1168.976134	685.5
1169.529631	688.75
1170.08307	685.25
1170.636453	686.0
1171.189778	684.5
1171.743046	685.25
1172.296257	681.0
1172.849412	685.25
1173.402509	681.5
1173.955549	685.75
1174.508532	686.75
1175.061458	687.0
1175.614327	686.25
1176.167138	686.25
1176.719893	685.75
1177.272591	685.5
1177.825232	685.75
1178.377816	688.0
1178.930342	686.5
1179.482812	683.5
1180.035225	687.5
1180.587581	683.75
1181.139879	686.75
1181.692121	684.0
1182.244306	683.25
1182.796434	684.5
1183.348504	686.25
1183.900518	687.25
1184.452475	686.0
1185.004375	687.0
1185.556218	689.0
1186.108004	684.25
1186.659733	685.0
1187.211405	686.75
1187.76302	687.5
1188.314578	683.5
1188.866079	687.0
1189.417523	685.75
1189.96891	687.5
1190.520241	688.25
1191.071514	687.75
1191.622731	684.5
1192.17389	685.5
1192.724993	682.0
1193.276039	709.25
1193.827027	684.25
1194.377959	684.5
1194.928834	686.0
1195.479653	686.75
1196.030414	689.0
1196.581118	686.0
1197.131766	684.25
1197.682356	685.5
1198.23289	681.75
1198.783367	687.0
1199.333786	690.5
1199.88415	686.5
1200.434456	682.0
1200.984705	684.5
1201.534898	686.25
1202.085033	685.5
1202.635112	686.0
1203.185134	683.5
1203.735099	686.0
1204.285007	684.5
1204.834859	681.75
1205.384653	682.0
1205.934391	682.5
1206.484072	684.75
1207.033696	688.75
1207.583263	689.0
1208.132774	685.75
1208.682228	686.75
1209.231624	681.5
1209.780965	689.5
1210.330248	683.5
1210.879474	685.5
1211.428644	684.0
1211.977757	689.5
1212.526813	686.5
1213.075813	685.5
1213.624755	687.25
1214.173641	686.25
1214.72247	684.0
1215.271242	683.25
1215.819958	684.5
1216.368617	686.25
1216.917219	687.0
1217.465764	686.25
1218.014253	684.75
1218.562685	686.5
1219.11106	681.5
1219.659378	688.0
1220.20764	687.0
1220.755845	691.25
1221.303993	689.75
1221.852085	687.75
1222.400119	686.75
1222.948097	685.0
1223.496019	684.75
1224.043883	688.25
1224.591691	689.25
1225.139443	685.75
1225.687137	690.0
1226.234775	688.5
1226.782357	686.25
1227.329881	688.0
1227.877349	685.75
1228.42476	686.75
1228.972115	684.75
1229.519413	689.0
1230.066654	687.75
1230.613839	684.5
1231.160967	686.75
1231.708038	690.0
1232.255053	687.0
1232.802011	683.5
1233.348912	688.75
1233.895757	684.5
1234.442545	687.25
1234.989277	693.25
1235.535951	685.75
1236.08257	686.75
1236.629131	685.25
1237.175636	689.0
1237.722085	685.25
1238.268477	684.75
1238.814812	684.0
1239.361091	690.75
1239.907313	686.75
1240.453478	689.75
1240.999587	684.75
1241.54564	690.75
1242.091636	685.25
1242.637575	687.75
1243.183457	687.5
1243.729284	688.5
1244.275053	690.75
1244.820766	691.0
1245.366423	688.25
1245.912022	690.5
1246.457566	691.25
1247.003053	686.0
1247.548483	689.5
1248.093857	689.5
1248.639174	686.5
1249.184435	690.0
1249.729639	686.25
1250.274787	689.0
1250.819878	692.0
1251.364912	690.75
1251.909891	687.25
1252.454812	690.0
1252.999677	688.25
1253.544486	689.0
1254.089238	688.25
1254.633934	689.75
1255.178573	690.5
1255.723156	688.5
1256.267682	686.75
1256.812152	697.5
1257.356565	695.25
1257.900922	695.5
1258.445223	700.5
1258.989467	695.0
1259.533654	695.75
1260.077785	705.0
1260.62186	700.0
1261.165878	703.25
1261.70984	704.25
1262.253745	712.25
1262.797594	714.5
1263.341386	716.5
1263.885123	713.0
1264.428802	709.25
1264.972425	702.25
1265.515992	700.5
1266.059503	700.5
1266.602957	699.5
1267.146354	697.0
1267.689696	695.75
1268.23298	697.5
1268.776209	697.25
1269.319381	697.5
1269.862497	690.75
1270.405556	695.75
1270.948559	697.5
1271.491506	696.75
1272.034396	696.5
1272.57723	690.75
1273.120007	695.0
1273.662728	695.75
1274.205393	700.0
1274.748002	697.75
1275.290554	701.75
1275.83305	696.5
1276.375489	699.25
1276.917872	696.25
1277.460199	696.75
1278.00247	704.5
1278.544684	701.25
1279.086842	708.0
1279.628943	709.75
1280.170989	714.75
1280.712978	728.0
1281.25491	758.75
1281.796787	824.75
1282.338607	924.75
1282.880371	1076.0
1283.422078	1140.75
1283.963729	1036.75
1284.505324	898.25
1285.046863	807.0
1285.588345	755.5
1286.129772	721.75
1286.671142	719.25
1287.212455	708.0
1287.753713	706.75
1288.294914	704.5
1288.836059	703.0
1289.377147	696.25
1289.91818	698.25
1290.459156	697.75
1291.000076	698.75
1291.54094	700.75
1292.081747	697.75
1292.622499	701.25
1293.163194	695.5
1293.703833	697.5
1294.244415	694.25
1294.784942	693.25
1295.325412	694.5
1295.865826	692.25
1296.406184	691.25
1296.946486	691.75
1297.486731	692.0
1298.026921	691.5
1298.567054	694.0
1299.107131	689.0
1299.647152	696.25
1300.187116	692.5
1300.727025	694.75
1301.266877	692.0
1301.806673	690.5
1302.346413	696.0
1302.886097	692.5
1303.425725	694.0
1303.965297	696.25
1304.504812	688.5
1305.044272	697.0
1305.583675	691.0
1306.123022	693.5
1306.662313	692.5
1307.201548	691.5
1307.740727	692.0
1308.279849	692.5
1308.818916	691.75
1309.357926	692.75
1309.896881	692.5
1310.435779	692.0
1310.974621	690.0
1311.513407	692.0
1312.052137	692.0
1312.590811	690.0
1313.129429	691.5
1313.667991	693.25
1314.206497	688.25
1314.744946	690.5
1315.28334	694.25
1315.821678	695.25
1316.359959	688.25
1316.898184	689.5
1317.436354	690.75
1317.974467	692.0
1318.512525	692.0
1319.050526	690.75
1319.588471	692.0
1320.12636	688.0
1320.664194	689.5
1321.201971	690.5
1321.739692	692.0
1322.277357	692.5
1322.814967	690.75
1323.35252	692.0
1323.890017	693.5
1324.427458	692.75
1324.964843	694.5
1325.502173	691.0
1326.039446	691.25
1326.576663	688.5
1327.113824	691.0
1327.65093	692.75
1328.187979	689.0
1328.724972	691.75
1329.26191	695.25
1329.798791	690.0
1330.335617	692.0
1330.872386	689.25
1331.4091	687.5
1331.945758	689.5
1332.48236	687.75
1333.018905	691.0
1333.555395	689.25
1334.091829	688.5
1334.628207	692.25
1335.164529	691.5
1335.700796	689.75
1336.237006	690.0
1336.77316	686.25
1337.309259	691.0
1337.845301	694.25
1338.381288	694.75
1338.917219	689.25
1339.453094	691.25
1339.988913	691.25
1340.524676	688.0
1341.060383	689.5
1341.596034	688.25
1342.13163	688.5
1342.66717	692.25
1343.202653	689.5
1343.738081	691.5
1344.273453	692.75
1344.80877	692.25
1345.34403	691.25
1345.879235	687.5
1346.414383	694.25
1346.949476	692.25
1347.484513	692.25
1348.019494	691.25
1348.55442	688.75
1349.089289	690.25
1349.624103	686.5
1350.158861	691.75
1350.693563	690.5
1351.228209	690.5
1351.7628	691.75
1352.297334	689.75
1352.831813	695.5
1353.366236	693.25
1353.900604	696.25
1354.434915	690.5
1354.969171	692.0
1355.503371	689.25
1356.037515	693.25
1356.571604	693.0
1357.105636	694.0
1357.639613	694.5
1358.173535	688.25
1358.7074	699.75
1359.24121	805.0
1360.842304	750.75
1361.375891	690.5
1361.909422	692.0
1362.442897	694.0
1362.976317	695.0
1363.50968	691.25
1364.042989	693.0
1364.576241	693.75
1365.109438	695.5
1365.642579	695.25
1366.175664	694.75
1366.708693	694.0
1367.241667	693.0
1367.774585	695.75
1368.307448	696.0
1368.840255	698.0
1369.373006	702.0
1369.905701	711.0
1370.438341	709.0
1370.970925	700.75
1371.503454	701.0
1372.035926	696.0
1372.568344	693.0
1373.100705	696.75
1373.633011	695.0
1374.165261	696.5
1374.697456	695.25
1375.229595	696.25
1375.761678	696.75
1376.293705	698.75
1376.825677	698.25
1377.357594	698.25
1377.889455	696.5
1378.42126	699.0
1378.953009	697.75
1379.484703	697.0
1380.016342	704.0
1380.547924	706.75
1381.079452	703.75
1381.610923	706.0
1382.142339	708.75
1382.673699	709.75
1383.205004	710.75
1383.736253	719.75
1384.267447	728.75
1384.798585	742.25
1385.329668	767.25
1385.860695	812.75
1386.391666	926.75
1386.922582	1201.0
1387.453442	1563.25
1387.984247	1558.0
1388.514996	1167.0
1389.04569	906.5
1389.576328	791.5
1390.10691	755.75
1390.637437	734.5
1391.167909	725.5
1391.698325	713.75
1392.228685	713.0
1392.75899	707.25
1393.28924	704.5
1393.819434	705.25
1394.349572	702.25
1394.879655	701.5
1395.409683	703.25
1395.939655	696.0
1396.469571	694.25
1396.999432	700.0
1397.529237	697.25
1398.058987	701.0
1398.588682	697.25
1399.118321	696.75
1399.647905	701.25
1400.177433	698.5
1400.706906	695.0
1401.236323	696.75
1401.765685	699.5
1402.294991	695.25
1402.824242	702.75
1403.353437	698.5
1403.882577	697.25
1404.411662	700.5
1404.940691	699.0
1405.469665	701.25
1405.998583	709.0
1406.527446	701.75
1407.056253	709.5
1407.585005	711.25
1408.113702	725.5
1408.642343	732.75
1409.170929	903.5
1409.69946	735.5
1410.227935	726.75
1410.756354	711.5
1411.284719	706.25
1411.813028	707.25
1412.341281	698.5
1412.869479	699.0
1413.397622	692.75
1413.92571	698.75
1414.453742	690.5
1414.981718	694.25
1415.50964	705.75
1416.037506	692.0
1416.565316	688.0
1417.093072	690.25
1417.620772	695.25
1418.148416	694.5
1418.676005	687.75
1419.203539	689.75
1419.731018	694.5
1420.258441	687.5
1420.785809	691.0
1421.313122	694.75
1421.840379	693.25
1422.367582	689.75
1422.894728	691.0
1423.42182	687.75
1423.948856	691.75
1424.475837	690.25
1425.002762	691.75
1425.529633	690.25
1426.056448	689.5
1426.583207	690.0
1427.109912	684.75
1427.636561	690.75
1428.163155	693.75
1428.689694	690.5
1429.216177	688.0
1429.742605	691.25
1430.268978	686.75
1430.795296	689.25
1431.321558	687.75
1431.847765	691.75
1432.373917	690.75
1432.900014	686.75
1433.426056	689.5
1433.952042	690.0
1434.477973	690.75
1435.003849	686.25
1435.529669	687.5
1436.055435	688.0
1436.581145	686.25
1437.1068	687.25
1437.632399	688.5
1438.157944	687.5
1438.683433	686.25
1439.208868	687.5
1439.734247	689.25
1440.25957	683.75
1440.784839	683.5
1441.310053	692.25
1441.835211	689.25
1442.360314	688.25
1442.885362	687.75
1443.410355	687.25
1443.935292	686.5
1444.460175	687.75
1444.985002	678.75
1445.509774	685.5
1446.034491	689.75
1446.559153	688.25
1447.08376	690.25
1447.608312	685.75
1448.132808	685.5
1448.65725	688.0
1449.181636	687.5
1449.705967	683.0
1450.230243	688.0
1450.754464	687.0
1451.27863	687.25
1451.802741	685.25
1452.326797	688.25
1452.850797	688.25
1453.374743	685.5
1453.898633	688.25
1454.422468	688.25
1454.946249	687.75
1455.469974	685.25
1455.993644	684.0
1456.517259	687.5
1457.040819	685.0
1457.564324	685.5
1458.087773	686.25
1458.611168	686.0
1459.134508	688.5
1459.657793	689.75
1460.181022	686.75
1460.704197	688.0
1461.227316	685.5
1461.750381	685.0
1462.27339	690.5
1462.796345	693.0
1463.319244	705.5
1463.842089	693.0
1464.364878	685.25
1464.887613	684.0
1465.410292	683.75
1465.932916	686.25
1466.455486	685.75
1466.978	687.25
1467.50046	690.0
1468.022864	689.25
1468.545214	686.75
1469.067508	683.0
1469.589748	687.5
1470.111932	690.0
1470.634062	685.0
1471.156136	683.25
1471.678156	685.0
1472.20012	685.75
1472.72203	688.75
1473.243885	681.75
1473.765685	687.75
1474.28743	686.5
1474.80912	688.0
1475.330755	682.25
1475.852335	690.25
1476.37386	683.5
1476.89533	685.5
1477.416745	687.0
1477.938106	686.5
1478.459411	688.5
1478.980662	684.25
1479.501857	687.5
1480.022998	686.25
1480.544084	683.25
1481.065115	688.75
1481.586091	685.0
1482.107012	687.75
1482.627878	687.0
1483.14869	683.5
1483.669446	682.5
1484.190148	684.25
1484.710794	685.0
1485.231386	688.0
1485.751923	686.25
1486.272406	688.5
1486.792833	682.75
1487.313205	683.5
1487.833523	685.0
1488.353786	686.75
1488.873994	688.25
1489.394147	686.5
1489.914245	687.0
1490.434288	684.75
1490.954277	685.5
1491.474211	681.25
1491.99409	683.0
1492.513914	685.25
1493.033683	686.25
1493.553398	686.25
1494.073057	688.25
1494.592662	685.75
1495.112212	682.0
1495.631708	681.75
1496.151148	684.25
1496.670534	684.0
1497.189865	680.0
1497.709141	684.5
1498.228362	685.75
1498.747529	685.0
1499.266641	683.75
1499.785698	698.5
1500.3047	687.75
1500.823648	686.0
1501.34254	684.25
1501.861379	682.75
1502.380162	684.25
1502.89889	686.75
1503.417564	685.0
1503.936183	686.25
1504.454748	685.75
1504.973257	685.0
1505.491712	687.0
1506.010112	686.75
1506.528458	686.0
1507.046748	688.25
1507.564984	685.75
1508.083166	687.25
1508.601292	683.5
1509.119364	684.75
1509.637381	684.0
1510.155344	682.75
1510.673252	695.5
1511.191105	684.25
1511.708903	686.5
1512.226647	681.75
1512.744336	686.75
1513.261971	685.0
1513.77955	682.0
1514.297076	683.25
1514.814546	683.25
1515.331962	685.0
1515.849323	688.75
1516.366629	685.75
1516.883881	684.25
1517.401078	683.25
1517.918221	683.0
1518.435309	686.0
1518.952342	683.5
1519.469321	687.5
1519.986245	686.25
1520.503114	682.25
1521.019929	685.5
1521.536689	682.75
1522.053395	681.25
1522.570046	682.5
1523.086642	683.5
1523.603184	684.0
1524.119671	685.75
1524.636103	686.5
1525.152481	682.75
1525.668805	686.5
1526.185073	695.25
1526.701288	690.5
1527.217447	686.0
1527.733552	686.0
1528.249603	685.5
1528.765599	686.0
1529.28154	682.75
1529.797427	686.75
1530.313259	684.0
1530.829037	689.25
1531.34476	683.25
1531.860429	683.75
1532.376043	686.0
1532.891602	688.0
1533.407107	681.25
1533.922558	682.5
1534.437954	684.25
1534.953295	687.5
1535.468582	688.75
1535.983815	686.25
1536.498993	685.0
1537.014116	685.0
1537.529185	684.25
1538.044199	685.5
1538.559159	682.25
1539.074064	685.75
1539.588915	683.75
1540.103712	684.75
1540.618454	685.5
1541.133141	686.5
1541.647774	687.75
1542.162353	681.0
1542.676877	687.0
1543.191346	689.0
1543.705761	683.5
1544.220122	684.25
1544.734428	684.25
1545.24868	685.75
1545.762877	688.0
1546.27702	685.75
1546.791109	684.5
1547.305143	686.5
1547.819122	682.0
1548.333047	682.0
1548.846918	683.75
1549.360734	687.25
1549.874496	683.0
1550.388204	679.75
1550.901857	685.25
1551.415455	684.25
1551.929	684.5
1552.442489	682.75
1552.955925	682.5
1553.469306	684.25
1553.982632	683.5
1554.495905	682.0
1555.009123	687.75
1555.522286	686.5
1556.035395	686.5
1556.54845	685.75
1557.06145	685.5
1557.574396	682.25
1558.087288	685.5
1558.600125	686.75
1559.112908	686.0
1559.625637	686.5
1560.138311	684.25
1560.650931	685.0
1561.163497	682.5
1561.676008	684.25
1562.188465	686.5
1562.700867	685.25
1563.213216	689.5
1563.725509	687.0
1564.237749	684.5
1564.749934	687.0
1565.262065	688.0
1565.774142	681.75
1566.286164	686.75
1566.798132	685.5
1567.310046	685.25
1567.821906	689.0
1568.333711	686.75
1568.845462	683.5
1569.357158	685.25
1569.868801	684.75
1570.380389	685.5
1570.891922	684.25
1571.403402	683.5
1571.914827	688.0
1572.426198	686.25
1572.937515	685.0
1573.448777	684.75
1573.959985	689.5
1574.471139	687.25
1574.982239	686.25
1575.493285	683.0
1576.004276	685.0
1576.515213	685.75
1577.026096	681.75
1577.536924	683.25
1578.047698	682.75
1578.558419	683.0
1579.069084	685.0
1579.579696	684.5
1580.090254	686.25
1580.600757	684.75
1581.111206	682.25
1581.621601	683.25
1582.131941	684.0
1582.642228	685.5
1583.15246	681.5
1583.662638	683.75
1584.172762	680.5
1584.682832	683.5
1585.192847	687.0
1585.702809	683.0
1586.212716	684.25
1586.722569	682.0
1587.232368	683.25
1587.742113	686.25
1588.251803	689.25
1588.76144	681.5
1589.271022	684.25
1589.78055	683.75
1590.290024	683.0
1590.799444	684.0
1591.30881	685.0
1591.818121	686.75
1592.327379	681.0
