1042.414189	720.0
1042.980685	712.25
1043.547124	712.5
1044.113505	710.25
1044.679828	713.25
1045.246093	710.75
1045.8123	709.25
1046.378449	704.25
1046.94454	704.5
1047.510573	707.5
1048.076548	700.5
1048.642465	697.5
1049.208325	700.75
1049.774126	703.5
1050.339869	699.5
1050.905555	697.25
1051.471183	696.75
1052.036752	700.0
1052.602264	698.75
1053.167718	696.5
1053.733114	695.25
1054.298452	694.0
1054.863733	695.75
1055.428955	693.0
1055.994119	692.5
1056.559226	693.25
1057.124275	694.25
1057.689266	690.5
1058.254199	697.0
1058.819074	689.75
1059.383891	691.25
1059.94865	692.5
1060.513352	693.5
1061.077996	686.5
1061.642582	689.0
1062.20711	691.75
1062.77158	691.25
1063.335992	688.25
1063.900347	689.0
1064.464643	686.5
1065.028882	687.0
1065.593063	688.5
1066.157187	687.0
1066.721252	688.5
1067.28526	689.0
1067.84921	688.75
1068.413102	689.75
1068.976936	692.75
1069.540713	683.5
1070.104431	701.5
1070.668092	687.0
1071.231696	685.5
1071.795241	685.5
1072.358729	688.0
1072.922159	684.0
1073.485531	686.5
1074.048845	688.5
1074.612102	685.0
1075.175301	688.75
1075.738442	686.25
1076.301525	686.0
1076.864551	688.5
1077.427519	688.25
1077.990429	683.5
1078.553281	688.5
1079.116076	685.5
1079.678813	685.25
1080.241492	687.5
1080.804114	689.25
1081.366678	687.25
1081.929184	686.0
1082.491633	691.75
1083.054024	684.25
1083.616357	687.0
1084.178632	681.5
1084.74085	685.5
1085.30301	685.25
1085.865113	685.0
1086.427158	690.5
1086.989145	683.25
1087.551074	687.0
1088.112946	685.5
1088.67476	687.25
1089.236517	684.75
1089.798216	685.25
1090.359857	688.5
1090.92144	686.0
1091.482966	687.75
1092.044435	685.75
1092.605845	684.5
1093.167199	687.75
1093.728494	688.0
1094.289732	686.75
1094.850912	685.5
1095.412035	694.0
1095.9731	685.0
1096.534107	687.75
1097.095057	693.25
1097.65595	686.5
1098.216784	682.5
1098.777561	680.75
1099.338281	684.5
1099.898943	686.0
1100.459547	686.5
1101.020094	687.0
1101.580584	689.0
1102.141015	682.75
1102.701389	687.5
1103.261706	686.5
1103.821965	681.5
1104.382167	684.0
1104.942311	681.75
1105.502397	684.0
1106.062426	683.25
1106.622398	682.75
1107.182312	682.75
1107.742168	683.5
1108.301967	683.25
1108.861708	685.25
1109.421392	685.75
1109.981019	682.75
1110.540587	683.5
1111.100099	685.25
1111.659553	683.25
1112.218949	685.5
1112.778288	684.75
1113.33757	678.25
1113.896794	686.0
1114.45596	681.75
1115.015069	681.0
1115.574121	683.75
1116.133115	687.25
1116.692052	688.0
1117.250931	681.25
1117.809753	679.5
1118.368517	684.0
1118.927224	685.5
1119.485873	682.75
1120.044465	682.25
1120.603	682.75
1121.161477	683.5
1121.719897	683.25
1122.278259	683.75
1122.836564	682.0
1123.394812	683.5
1123.953002	683.25
1124.511135	680.0
1125.06921	682.0
1125.627228	684.0
1126.185189	684.0
1126.743092	684.75
1127.300938	685.25
1127.858726	685.5
1128.416457	685.0
1128.974131	687.5
1129.531748	688.0
1130.089307	691.25
1130.646808	690.5
1131.204252	687.5
1131.761639	688.25
1132.318969	688.5
1132.876241	691.5
1133.433456	684.0
1133.990614	681.25
1134.547714	682.25
1135.104757	682.25
1135.661743	683.5
1136.218671	680.5
1136.775542	681.75
1137.332356	680.5
1137.889112	681.25
1138.445811	683.75
1139.002453	681.25
1139.559037	678.5
1140.115565	679.5
1140.672035	684.0
1141.228447	682.0
1141.784803	681.75
1142.341101	681.25
1142.897342	680.0
1143.453525	684.25
1144.009651	683.0
1144.565721	683.5
1145.121732	679.75
1145.677687	685.5
1146.233584	686.0
1146.789424	680.5
1147.345207	682.5
1147.900933	681.75
1148.456601	681.75
1149.012212	681.25
1149.567766	680.5
1150.123263	684.0
1150.678702	682.5
1151.234085	682.0
1151.78941	685.5
1152.344678	683.25
1152.899888	683.0
1153.455042	682.75
1154.010138	683.0
1154.565177	681.5
1155.120159	683.25
1155.675084	681.5
1156.229951	684.75
1156.784762	684.0
1157.339515	683.75
1157.894211	681.25
1158.44885	676.5
1159.003432	681.5
1159.557956	681.5
1160.112424	681.5
1160.666834	679.25
1161.221187	684.0
1161.775483	684.25
1162.329722	683.25
1162.883904	682.25
1163.438029	680.0
1163.992096	683.0
1164.546107	680.0
1165.10006	679.5
1165.653956	679.0
1166.207795	683.0
1166.761577	680.0
1167.315302	681.5
1167.86897	680.25
1168.422581	676.75
1168.976134	681.5
1169.529631	682.0
1170.08307	682.75
1170.636453	682.75
1171.189778	681.75
1171.743046	681.0
1172.296257	678.5
1172.849412	682.75
1173.402509	680.75
1173.955549	682.5
1174.508532	680.25
1175.061458	677.75
1175.614327	682.25
1176.167138	683.0
1176.719893	684.5
1177.272591	679.5
1177.825232	680.5
1178.377816	678.0
1178.930342	680.0
1179.482812	679.5
1180.035225	678.0
1180.587581	678.75
1181.139879	680.25
1181.692121	680.25
1182.244306	676.25
1182.796434	681.0
1183.348504	677.75
1183.900518	680.25
1184.452475	678.0
1185.004375	683.0
1185.556218	683.75
1186.108004	679.75
1186.659733	677.0
1187.211405	680.25
1187.76302	677.75
1188.314578	675.75
1188.866079	678.25
1189.417523	681.25
1189.96891	679.5
1190.520241	679.75
1191.071514	682.0
1191.622731	680.0
1192.17389	680.0
1192.724993	681.0
1193.276039	697.0
1193.827027	682.0
1194.377959	683.5
1194.928834	682.0
1195.479653	683.0
1196.030414	681.25
1196.581118	680.25
1197.131766	682.75
1197.682356	679.75
1198.23289	680.25
1198.783367	681.0
1199.333786	679.25
1199.88415	678.0
1200.434456	680.5
1200.984705	680.5
1201.534898	681.25
1202.085033	679.25
1202.635112	681.25
1203.185134	682.0
1203.735099	680.0
1204.285007	680.0
1204.834859	683.5
1205.384653	681.75
1205.934391	678.25
1206.484072	679.75
1207.033696	682.5
1207.583263	679.5
1208.132774	680.5
1208.682228	682.0
1209.231624	681.75
1209.780965	679.75
1210.330248	680.5
1210.879474	682.25
1211.428644	678.75
1211.977757	679.0
1212.526813	681.75
1213.075813	683.75
1213.624755	678.5
1214.173641	682.0
1214.72247	679.0
1215.271242	679.25
1215.819958	679.25
1216.368617	685.0
1216.917219	678.75
1217.465764	681.5
1218.014253	681.0
1218.562685	678.0
1219.11106	679.5
1219.659378	678.5
1220.20764	682.75
1220.755845	679.75
1221.303993	680.75
1221.852085	682.25
1222.400119	682.0
1222.948097	678.5
1223.496019	677.75
1224.043883	680.75
1224.591691	681.0
1225.139443	676.75
1225.687137	678.5
1226.234775	679.25
1226.782357	679.5
1227.329881	681.75
1227.877349	680.25
1228.42476	679.5
1228.972115	682.5
1229.519413	681.75
1230.066654	679.5
1230.613839	680.5
1231.160967	682.25
1231.708038	682.0
1232.255053	678.5
1232.802011	677.0
1233.348912	680.0
1233.895757	678.75
1234.442545	675.0
1234.989277	682.75
1235.535951	681.0
1236.08257	676.0
1236.629131	682.75
1237.175636	684.75
1237.722085	678.0
1238.268477	676.5
1238.814812	677.0
1239.361091	680.75
1239.907313	679.75
1240.453478	678.0
1240.999587	679.25
1241.54564	679.25
1242.091636	679.5
1242.637575	682.75
1243.183457	677.75
1243.729284	679.75
1244.275053	681.25
1244.820766	679.75
1245.366423	682.25
1245.912022	681.0
1246.457566	676.75
1247.003053	683.25
1247.548483	681.0
1248.093857	683.0
1248.639174	683.25
1249.184435	683.0
1249.729639	680.5
1250.274787	679.75
1250.819878	680.25
1251.364912	681.5
1251.909891	676.75
1252.454812	683.75
1252.999677	678.5
1253.544486	681.25
1254.089238	681.25
1254.633934	681.5
1255.178573	679.5
1255.723156	679.25
1256.267682	679.5
1256.812152	682.5
1257.356565	679.5
1257.900922	679.0
1258.445223	678.75
1258.989467	679.5
1259.533654	686.0
1260.077785	686.0
1260.62186	679.5
1261.165878	675.0
1261.70984	683.0
1262.253745	681.5
1262.797594	682.0
1263.341386	684.0
1263.885123	681.5
1264.428802	688.0
1264.972425	692.0
1265.515992	688.5
1266.059503	684.75
1266.602957	679.25
1267.146354	681.25
1267.689696	682.25
1268.23298	685.75
1268.776209	680.5
1269.319381	681.0
1269.862497	681.75
1270.405556	677.5
1270.948559	679.0
1271.491506	680.0
1272.034396	682.5
1272.57723	679.75
1273.120007	681.25
1273.662728	683.25
1274.205393	682.5
1274.748002	682.5
1275.290554	676.75
1275.83305	684.75
1276.375489	679.75
1276.917872	682.25
1277.460199	682.0
1278.00247	675.75
1278.544684	678.5
1279.086842	677.5
1279.628943	682.75
1280.170989	683.75
1280.712978	677.5
1281.25491	680.5
1281.796787	683.5
1282.338607	682.5
1282.880371	688.5
1283.422078	697.5
1283.963729	716.5
1284.505324	761.5
1285.046863	816.0
1285.588345	810.25
1286.129772	740.25
1286.671142	700.5
1287.212455	686.75
1287.753713	686.5
1288.294914	683.5
1288.836059	683.0
1289.377147	679.5
1289.91818	678.0
1290.459156	678.0
1291.000076	678.25
1291.54094	675.25
1292.081747	680.0
1292.622499	682.5
1293.163194	675.5
1293.703833	679.75
1294.244415	679.25
1294.784942	681.75
1295.325412	676.75
1295.865826	684.5
1296.406184	679.25
1296.946486	682.75
1297.486731	680.5
1298.026921	677.0
1298.567054	679.5
1299.107131	682.25
1299.647152	682.5
1300.187116	679.25
1300.727025	678.75
1301.266877	680.0
1301.806673	676.5
1302.346413	679.0
1302.886097	677.75
1303.425725	679.5
1303.965297	678.0
1304.504812	679.5
1305.044272	675.75
1305.583675	679.75
1306.123022	678.25
1306.662313	681.25
1307.201548	679.0
1307.740727	678.25
1308.279849	677.5
1308.818916	679.5
1309.357926	683.25
1309.896881	681.25
1310.435779	680.75
1310.974621	676.25
1311.513407	683.25
1312.052137	676.75
1312.590811	679.25
1313.129429	680.75
1313.667991	678.75
1314.206497	679.5
1314.744946	677.0
1315.28334	677.75
1315.821678	677.75
1316.359959	680.25
1316.898184	679.5
1317.436354	679.5
1317.974467	679.75
1318.512525	678.75
1319.050526	677.0
1319.588471	681.25
1320.12636	680.5
1320.664194	674.75
1321.201971	678.75
1321.739692	678.0
1322.277357	679.5
1322.814967	680.25
1323.35252	679.25
1323.890017	684.75
1324.427458	678.5
1324.964843	678.0
1325.502173	680.0
1326.039446	678.25
1326.576663	680.5
1327.113824	675.75
1327.65093	678.5
1328.187979	679.75
1328.724972	679.5
1329.26191	678.0
1329.798791	681.25
1330.335617	676.0
1330.872386	681.25
1331.4091	678.75
1331.945758	680.0
1332.48236	677.0
1333.018905	677.75
1333.555395	679.75
1334.091829	679.5
1334.628207	677.0
1335.164529	678.0
1335.700796	676.75
1336.237006	679.25
1336.77316	675.75
1337.309259	678.5
1337.845301	675.75
1338.381288	678.75
1338.917219	680.0
1339.453094	680.5
1339.988913	677.5
1340.524676	678.5
1341.060383	674.0
1341.596034	676.25
1342.13163	678.5
1342.66717	679.5
1343.202653	680.0
1343.738081	682.5
1344.273453	681.0
1344.80877	681.0
1345.34403	679.5
1345.879235	680.0
1346.414383	678.5
1346.949476	680.75
1347.484513	675.0
1348.019494	680.0
1348.55442	677.25
1349.089289	682.5
1349.624103	675.25
1350.158861	679.25
1350.693563	676.75
1351.228209	678.25
1351.7628	678.5
1352.297334	678.75
1352.831813	674.75
1353.366236	677.25
1353.900604	679.5
1354.434915	677.75
1354.969171	679.0
1355.503371	678.75
1356.037515	681.0
1356.571604	679.75
1357.105636	678.75
1357.639613	678.25
1358.173535	677.25
1358.7074	675.5
1359.24121	676.75
1359.774964	679.5
1360.308662	678.5
1360.842304	677.0
1361.375891	679.25
1361.909422	677.25
1362.442897	679.5
1362.976317	680.25
1363.50968	677.0
1364.042989	677.75
1364.576241	678.75
1365.109438	679.5
1365.642579	677.75
1366.175664	679.75
1366.708693	677.75
1367.241667	678.0
1367.774585	678.25
1368.307448	680.0
1368.840255	679.0
1369.373006	679.75
1369.905701	679.75
1370.438341	682.75
1370.970925	680.5
1371.503454	679.0
1372.035926	679.0
1372.568344	678.5
1373.100705	675.5
1373.633011	681.5
1374.165261	681.75
1374.697456	680.5
1375.229595	681.5
1375.761678	677.75
1376.293705	678.25
1376.825677	679.25
1377.357594	678.25
1377.889455	678.0
1378.42126	677.75
1378.953009	676.25
1379.484703	678.5
1380.016342	677.75
1380.547924	681.5
1381.079452	679.25
1381.610923	676.0
1382.142339	683.0
1382.673699	676.5
1383.205004	681.5
1383.736253	684.0
1384.267447	678.75
1384.798585	685.25
1385.329668	684.0
1385.860695	682.75
1386.391666	691.25
1386.922582	700.0
1387.453442	714.75
1387.984247	783.0
1388.514996	924.25
1389.04569	923.25
1389.576328	775.25
1390.10691	706.0
1390.637437	687.5
1391.167909	686.5
1391.698325	683.75
1392.228685	684.0
1392.75899	679.75
1393.28924	681.75
1393.819434	681.75
1394.349572	680.5
1394.879655	679.0
1395.409683	681.25
1395.939655	678.75
1396.469571	678.5
1396.999432	679.25
1397.529237	680.0
1398.058987	679.0
1398.588682	681.75
1399.118321	681.0
1399.647905	677.0
1400.177433	680.25
1400.706906	679.0
1401.236323	679.5
1401.765685	681.25
1402.294991	675.25
1402.824242	679.5
1403.353437	676.75
1403.882577	679.75
1404.411662	679.75
1404.940691	679.75
1405.469665	683.0
1405.998583	677.0
1406.527446	677.0
1407.056253	679.0
1407.585005	677.75
1408.113702	682.75
1408.642343	681.75
1409.170929	689.5
1409.69946	687.5
1410.227935	692.5
1410.756354	689.75
1411.284719	682.5
1411.813028	683.5
1412.341281	678.5
1412.869479	676.25
1413.397622	678.5
1413.92571	679.0
1414.453742	679.0
1414.981718	679.0
1415.50964	694.25
1416.037506	676.25
1416.565316	678.75
1417.093072	675.25
1417.620772	680.5
1418.148416	676.25
1418.676005	674.0
1419.203539	678.75
1419.731018	680.25
1420.258441	678.25
1420.785809	679.0
1421.313122	679.75
1421.840379	676.0
1422.367582	678.25
1422.894728	679.5
1423.42182	676.5
1423.948856	677.25
1424.475837	676.5
1425.002762	680.25
1425.529633	678.25
1426.056448	674.5
1426.583207	679.75
1427.109912	675.75
1427.636561	679.5
1428.163155	676.75
1428.689694	675.75
1429.216177	675.25
1429.742605	677.25
1430.268978	679.5
1430.795296	677.5
1431.321558	674.75
1431.847765	678.25
1432.373917	675.75
1432.900014	675.75
1433.426056	675.25
1433.952042	680.25
1434.477973	676.75
1435.003849	676.75
1435.529669	675.75
1436.055435	679.0
1436.581145	676.5
1437.1068	675.25
1437.632399	677.5
1438.157944	677.5
1438.683433	675.5
1439.208868	677.0
1439.734247	677.75
1440.25957	675.0
1440.784839	678.75
1441.310053	674.5
1441.835211	677.0
1442.360314	676.5
1442.885362	675.25
1443.410355	673.5
1443.935292	678.5
1444.460175	679.0
1444.985002	677.0
1445.509774	678.75
1446.034491	674.5
1446.559153	674.75
1447.08376	677.5
1447.608312	677.75
1448.132808	674.75
1448.65725	679.5
1449.181636	679.0
1449.705967	676.0
1450.230243	674.75
1450.754464	674.75
1451.27863	678.0
1451.802741	679.5
1452.326797	677.0
1452.850797	678.5
1453.374743	678.25
1453.898633	677.5
1454.422468	677.75
1454.946249	677.0
1455.469974	675.5
1455.993644	672.0
1456.517259	676.0
1457.040819	673.25
1457.564324	675.25
1458.087773	678.0
1458.611168	676.5
1459.134508	673.5
1459.657793	675.75
1460.181022	676.0
1460.704197	675.25
1461.227316	675.0
1461.750381	674.5
1462.27339	678.0
1462.796345	677.75
1463.319244	679.5
1463.842089	678.25
1464.364878	673.75
1464.887613	676.75
1465.410292	676.0
1465.932916	674.75
1466.455486	676.0
1466.978	677.25
1467.50046	675.75
1468.022864	674.25
1468.545214	677.25
1469.067508	678.0
1469.589748	676.5
1470.111932	681.5
1470.634062	671.5
1471.156136	679.25
1471.678156	677.0
1472.20012	676.0
1472.72203	674.5
1473.243885	671.75
1473.765685	676.5
1474.28743	675.0
1474.80912	678.75
1475.330755	673.5
1475.852335	678.0
1476.37386	678.0
1476.89533	672.5
1477.416745	674.5
1477.938106	672.75
1478.459411	677.75
1478.980662	680.25
1479.501857	674.0
1480.022998	675.0
1480.544084	675.75
1481.065115	673.75
1481.586091	674.75
1482.107012	675.75
1482.627878	675.0
1483.14869	675.0
1483.669446	674.75
1484.190148	677.75
1484.710794	676.5
1485.231386	674.0
1485.751923	670.5
1486.272406	674.0
1486.792833	673.75
1487.313205	676.25
1487.833523	675.0
1488.353786	676.75
1488.873994	673.25
1489.394147	673.5
1489.914245	675.25
1490.434288	674.75
1490.954277	676.75
1491.474211	676.75
1491.99409	675.0
1492.513914	675.25
1493.033683	675.0
1493.553398	673.0
1494.073057	677.5
1494.592662	671.5
1495.112212	678.0
1495.631708	676.5
1496.151148	674.0
1496.670534	674.75
1497.189865	676.0
1497.709141	672.75
1498.228362	678.25
1498.747529	676.75
1499.266641	673.25
1499.785698	683.0
1500.3047	676.75
1500.823648	675.0
1501.34254	673.0
1501.861379	672.5
1502.380162	675.5
1502.89889	675.5
1503.417564	678.25
1503.936183	676.5
1504.454748	675.25
1504.973257	674.25
1505.491712	672.25
1506.010112	675.0
1506.528458	671.25
1507.046748	676.5
1507.564984	676.0
1508.083166	673.25
1508.601292	677.25
1509.119364	675.0
1509.637381	674.75
1510.155344	674.25
1510.673252	681.75
1511.191105	672.75
1511.708903	677.25
1512.226647	675.0
1512.744336	676.0
1513.261971	673.25
1513.77955	677.0
1514.297076	675.0
1514.814546	680.5
1515.331962	674.75
1515.849323	674.5
1516.366629	676.0
1516.883881	676.0
1517.401078	674.5
1517.918221	673.0
1518.435309	675.25
1518.952342	675.0
1519.469321	677.0
1519.986245	676.5
1520.503114	673.0
1521.019929	674.5
1521.536689	673.5
1522.053395	673.75
1522.570046	674.25
1523.086642	672.75
1523.603184	674.25
1524.119671	672.0
1524.636103	674.75
1525.152481	674.5
1525.668805	673.75
1526.185073	677.25
1526.701288	676.5
1527.217447	675.0
1527.733552	673.75
1528.249603	676.5
1528.765599	677.25
1529.28154	676.25
1529.797427	674.5
1530.313259	672.0
1530.829037	672.75
1531.34476	674.75
1531.860429	674.25
1532.376043	676.0
1532.891602	675.75
1533.407107	677.0
1533.922558	675.75
1534.437954	675.75
1534.953295	675.0
1535.468582	674.25
1535.983815	674.75
1536.498993	675.25
1537.014116	675.0
1537.529185	674.25
1538.044199	673.75
1538.559159	675.5
1539.074064	673.25
1539.588915	676.75
1540.103712	675.5
1540.618454	673.75
1541.133141	675.75
1541.647774	673.0
1542.162353	673.75
1542.676877	674.25
1543.191346	675.25
1543.705761	675.25
1544.220122	672.5
1544.734428	674.0
1545.24868	675.0
1545.762877	679.25
1546.27702	674.0
1546.791109	671.25
1547.305143	672.75
1547.819122	675.75
1548.333047	677.75
1548.846918	677.25
1549.360734	675.0
1549.874496	673.5
1550.388204	675.25
1550.901857	675.25
1551.415455	674.0
1551.929	672.75
1552.442489	675.5
1552.955925	673.5
1553.469306	670.75
1553.982632	677.0
1554.495905	675.25
1555.009123	676.25
1555.522286	675.5
1556.035395	673.25
1556.54845	674.75
1557.06145	674.5
1557.574396	674.25
1558.087288	673.25
1558.600125	675.25
1559.112908	676.25
1559.625637	673.25
1560.138311	674.5
1560.650931	672.0
1561.163497	675.5
1561.676008	674.25
1562.188465	673.0
1562.700867	672.75
1563.213216	675.75
1563.725509	673.5
1564.237749	677.5
1564.749934	674.0
1565.262065	674.0
1565.774142	676.25
1566.286164	673.5
1566.798132	672.75
1567.310046	676.75
1567.821906	676.0
1568.333711	674.5
1568.845462	676.0
1569.357158	676.25
1569.868801	675.75
1570.380389	677.25
1570.891922	674.0
1571.403402	676.5
1571.914827	674.5
1572.426198	672.0
1572.937515	674.0
1573.448777	677.0
1573.959985	674.0
1574.471139	673.75
1574.982239	676.25
1575.493285	672.5
1576.004276	676.75
1576.515213	672.25
1577.026096	674.75
1577.536924	670.75
1578.047698	673.75
1578.558419	675.0
1579.069084	674.25
1579.579696	675.75
1580.090254	674.5
1580.600757	673.5
1581.111206	673.5
1582.642228	684.75
1583.15246	674.5
1583.662638	677.0
1584.172762	672.0
1584.682832	676.5
1585.192847	672.75
1585.702809	675.0
1586.212716	672.5
1586.722569	674.75
1587.232368	675.75
1587.742113	671.0
1588.251803	675.5
1588.76144	671.75
1589.271022	672.5
1589.78055	674.0
1590.290024	672.0
1590.799444	672.75
1591.30881	673.25
1591.818121	673.75
1592.327379	671.0
