1042.414189	799.2000122
1042.980685	789.7999878
1043.547124	795.5999756
1044.113505	795.0
1044.679828	789.5999756
1045.246093	794.2000122
1045.8123	790.7999878
1046.378449	788.2000122
1046.94454	785.5999756
1047.510573	778.7999878
1048.076548	783.5999756
1048.642465	787.2000122
1049.208325	781.5999756
1049.774126	785.5999756
1050.339869	779.5999756
1050.905555	785.5999756
1051.471183	781.2000122
1052.036752	780.5999756
1052.602264	784.2000122
1053.167718	779.0
1053.733114	780.5999756
1054.298452	775.4000244
1054.863733	781.4000244
1055.428955	771.7999878
1055.994119	777.5999756
1056.559226	775.7999878
1057.124275	776.4000244
1057.689266	769.5999756
1058.254199	776.7999878
1058.819074	780.0
1059.383891	775.4000244
1059.94865	776.4000244
1060.513352	775.4000244
1061.077996	777.0
1061.642582	776.7999878
1062.20711	776.7999878
1062.77158	779.2000122
1063.335992	773.4000244
1063.900347	770.0
1064.464643	781.4000244
1065.028882	772.5999756
1065.593063	775.7999878
1066.157187	770.2000122
1066.721252	775.7999878
1067.28526	771.2000122
1067.84921	772.4000244
1068.413102	781.4000244
1068.976936	773.0
1069.540713	776.0
1070.104431	780.5999756
1070.668092	778.4000244
1071.231696	774.4000244
1071.795241	779.0
1072.358729	778.7999878
1072.922159	775.4000244
1073.485531	769.2000122
1074.048845	770.0
1074.612102	777.2000122
1075.175301	774.5999756
1075.738442	771.2000122
1076.301525	777.2000122
1076.864551	772.2000122
1077.427519	773.2000122
1077.990429	777.2000122
1078.553281	777.0
1079.116076	775.5999756
1079.678813	776.7999878
1080.241492	772.0
1080.804114	781.2000122
1081.366678	776.2000122
1081.929184	775.0
1082.491633	770.4000244
1083.054024	776.0
1083.616357	780.5999756
1084.178632	775.0
1084.74085	775.5999756
1085.30301	773.5999756
1085.865113	771.5999756
1086.427158	774.2000122
1086.989145	775.0
1087.551074	780.5999756
1088.112946	779.0
1088.67476	781.4000244
1089.236517	776.4000244
1089.798216	781.4000244
1090.359857	777.2000122
1090.92144	779.5999756
1091.482966	775.5999756
1092.044435	787.2000122
1092.605845	787.2000122
1093.167199	784.0
1093.728494	782.2000122
1094.289732	780.4000244
1094.850912	782.5999756
1095.412035	780.7999878
1095.9731	775.5999756
1096.534107	780.4000244
1097.095057	781.7999878
1097.65595	780.0
1098.216784	777.0
1098.777561	781.5999756
1099.338281	779.4000244
1099.898943	773.2000122
1100.459547	773.2000122
1101.020094	774.4000244
1101.580584	776.5999756
1102.141015	773.5999756
1102.701389	773.4000244
1103.261706	770.5999756
1103.821965	768.2000122
1104.382167	773.7999878
1104.942311	768.4000244
1105.502397	771.0
1106.062426	771.5999756
1106.622398	771.5999756
1107.182312	769.2000122
1107.742168	772.2000122
1108.301967	770.7999878
1108.861708	765.5999756
1109.421392	768.0
1109.981019	770.0
1110.540587	766.5999756
1111.100099	773.7999878
1111.659553	772.2000122
1112.218949	774.7999878
1112.778288	768.5999756
1113.33757	770.4000244
1113.896794	766.7999878
1114.45596	772.7999878
1115.015069	771.0
1115.574121	766.7999878
1116.133115	771.2000122
1116.692052	770.4000244
1117.250931	773.2000122
1117.809753	770.5999756
1118.368517	772.4000244
1118.927224	766.4000244
1119.485873	773.5999756
1120.044465	772.0
1120.603	771.0
1121.161477	767.7999878
1121.719897	767.4000244
1122.278259	766.5999756
1122.836564	766.4000244
1123.394812	769.7999878
1123.953002	769.7999878
1124.511135	770.2000122
1125.06921	767.4000244
1125.627228	766.0
1126.185189	767.7999878
1126.743092	764.7999878
1127.300938	766.7999878
1127.858726	768.5999756
1128.416457	765.7999878
1128.974131	766.2000122
1129.531748	769.2000122
1130.089307	771.0
1130.646808	769.0
1131.204252	769.7999878
1131.761639	768.7999878
1132.318969	766.4000244
1132.876241	767.7999878
1133.433456	768.5999756
1133.990614	771.2000122
1134.547714	771.4000244
1135.104757	770.4000244
1135.661743	771.7999878
1136.218671	769.5999756
1136.775542	768.5999756
1137.332356	772.4000244
1137.889112	773.7999878
1138.445811	769.5999756
1139.002453	765.2000122
1139.559037	767.4000244
1140.115565	774.0
1140.672035	772.0
1141.228447	767.7999878
1141.784803	771.0
1142.341101	774.5999756
1142.897342	773.7999878
1143.453525	770.0
1144.009651	770.4000244
1144.565721	771.7999878
1145.121732	769.7999878
1145.677687	771.4000244
1146.233584	768.2000122
1146.789424	775.0
1147.345207	772.0
1147.900933	775.2000122
1148.456601	771.2000122
1149.012212	773.2000122
1149.567766	769.4000244
1150.123263	773.0
1150.678702	768.2000122
1151.234085	769.2000122
1151.78941	769.7999878
1152.344678	769.0
1152.899888	773.7999878
1153.455042	770.7999878
1154.010138	775.4000244
1154.565177	769.0
1155.120159	777.7999878
1155.675084	769.0
1156.229951	774.0
1156.784762	766.4000244
1157.339515	770.2000122
1157.894211	770.0
1158.44885	772.0
1159.003432	772.5999756
1159.557956	777.2000122
1160.112424	768.5999756
1160.666834	771.7999878
1161.221187	774.2000122
1161.775483	773.5999756
1162.329722	772.5999756
1162.883904	773.4000244
1163.438029	770.7999878
1163.992096	776.0
1164.546107	776.4000244
1165.10006	770.2000122
1165.653956	770.5999756
1166.207795	771.2000122
1166.761577	780.7999878
1167.315302	777.0
1167.86897	767.7999878
1168.422581	772.7999878
1168.976134	771.7999878
1169.529631	775.0
1170.08307	778.7999878
1170.636453	771.2000122
1171.189778	774.4000244
1171.743046	769.4000244
1172.296257	771.4000244
1172.849412	775.7999878
1173.402509	774.7999878
1173.955549	770.2000122
1174.508532	775.4000244
1175.061458	773.2000122
1175.614327	777.7999878
1176.167138	766.5999756
1176.719893	769.5999756
1177.272591	773.0
1177.825232	766.7999878
1178.377816	767.4000244
1178.930342	774.7999878
1179.482812	769.5999756
1180.035225	773.4000244
1180.587581	771.2000122
1181.139879	764.4000244
1181.692121	774.4000244
1182.244306	775.2000122
1182.796434	771.5999756
1183.348504	780.2000122
1183.900518	766.7999878
1184.452475	776.0
1185.004375	773.2000122
1185.556218	773.7999878
1186.108004	771.2000122
1186.659733	773.2000122
1187.211405	767.2000122
1187.76302	774.7999878
1188.314578	773.4000244
1188.866079	774.7999878
1189.417523	771.7999878
1189.96891	776.4000244
1190.520241	775.2000122
1191.071514	769.7999878
1191.622731	771.0
1192.17389	774.2000122
1192.724993	769.5999756
1193.276039	790.5999756
1193.827027	774.0
1194.377959	771.0
1194.928834	771.0
1195.479653	768.7999878
1196.030414	779.5999756
1196.581118	773.0
1197.131766	774.0
1197.682356	774.2000122
1198.23289	769.7999878
1198.783367	772.2000122
1199.333786	776.5999756
1199.88415	771.4000244
1200.434456	774.7999878
1200.984705	768.2000122
1201.534898	771.5999756
1202.085033	774.5999756
1202.635112	771.0
1203.185134	775.2000122
1203.735099	775.4000244
1204.285007	773.7999878
1204.834859	770.5999756
1205.384653	774.5999756
1205.934391	770.7999878
1206.484072	766.7999878
1207.033696	772.5999756
1207.583263	774.5999756
1208.132774	773.2000122
1208.682228	768.5999756
1209.231624	769.0
1209.780965	771.5999756
1210.330248	776.7999878
1210.879474	776.2000122
1211.428644	772.5999756
1211.977757	767.7999878
1212.526813	777.2000122
1213.075813	778.5999756
1213.624755	775.2000122
1214.173641	772.0
1214.72247	775.4000244
1215.271242	777.4000244
1215.819958	773.4000244
1216.368617	779.2000122
1216.917219	770.7999878
1217.465764	773.0
1218.014253	777.4000244
1218.562685	770.5999756
1219.11106	770.2000122
1219.659378	769.4000244
1220.20764	776.0
1220.755845	770.7999878
1221.303993	771.0
1221.852085	770.4000244
1222.400119	771.0
1222.948097	774.4000244
1223.496019	773.0
1224.043883	776.4000244
1224.591691	773.4000244
1225.139443	775.2000122
1225.687137	769.5999756
1226.234775	775.4000244
1226.782357	766.7999878
1227.329881	773.5999756
1227.877349	777.5999756
1228.42476	777.5999756
1228.972115	776.2000122
1229.519413	774.4000244
1230.066654	772.7999878
1230.613839	775.0
1231.160967	775.7999878
1231.708038	779.7999878
1232.255053	777.5999756
1232.802011	776.5999756
1233.348912	775.4000244
1233.895757	779.2000122
1234.442545	776.5999756
1234.989277	777.4000244
1235.535951	778.0
1236.08257	781.4000244
1236.629131	773.5999756
1237.175636	772.5999756
1237.722085	774.7999878
1238.268477	776.2000122
1238.814812	770.0
1239.361091	773.0
1239.907313	776.0
1240.453478	767.2000122
1240.999587	780.0
1241.54564	772.7999878
1242.091636	776.5999756
1242.637575	776.5999756
1243.183457	776.7999878
1243.729284	774.5999756
1244.275053	778.7999878
1244.820766	774.7999878
1245.366423	772.5999756
1245.912022	771.2000122
1246.457566	774.7999878
1247.003053	776.7999878
1247.548483	779.0
1248.093857	778.4000244
1248.639174	779.5999756
1249.184435	776.2000122
1249.729639	776.4000244
1250.274787	781.0
1250.819878	780.5999756
1251.364912	771.5999756
1251.909891	775.0
1252.454812	779.5999756
1252.999677	773.5999756
1253.544486	775.7999878
1254.089238	774.5999756
1254.633934	778.5999756
1255.178573	778.7999878
1255.723156	779.7999878
1256.267682	777.4000244
1256.812152	776.4000244
1257.356565	784.7999878
1257.900922	781.4000244
1258.445223	790.0
1258.989467	783.2000122
1259.533654	783.2000122
1260.077785	789.4000244
1260.62186	788.5999756
1261.165878	790.5999756
1261.70984	794.2000122
1262.253745	799.4000244
1262.797594	804.4000244
1263.341386	797.0
1263.885123	797.4000244
1264.428802	788.7999878
1264.972425	789.0
1265.515992	788.4000244
1266.059503	786.2000122
1266.602957	786.7999878
1267.146354	780.2000122
1267.689696	781.2000122
1268.23298	783.4000244
1268.776209	778.4000244
1269.319381	781.2000122
1269.862497	782.2000122
1270.405556	784.7999878
1270.948559	780.2000122
1271.491506	783.4000244
1272.034396	787.4000244
1272.57723	786.5999756
1273.120007	789.0
1273.662728	783.7999878
1274.205393	785.0
1274.748002	784.7999878
1275.290554	783.2000122
1275.83305	784.7999878
1276.375489	789.7999878
1276.917872	779.4000244
1277.460199	786.0
1278.00247	792.0
1278.544684	797.7999878
1279.086842	800.0
1279.628943	799.7999878
1280.170989	816.2000122
1280.712978	834.5999756
1281.25491	878.5999756
1281.796787	978.0
1282.338607	1133.400024
1282.880371	1248.400024
1283.422078	1163.199951
1283.963729	1005.799988
1284.505324	894.4000244
1285.046863	847.5999756
1285.588345	816.0
1286.129772	808.2000122
1286.671142	796.7999878
1287.212455	799.2000122
1287.753713	791.0
1288.294914	796.7999878
1288.836059	786.5999756
1289.377147	786.2000122
1289.91818	780.4000244
1290.459156	782.5999756
1291.000076	784.7999878
1291.54094	786.5999756
1292.081747	785.0
1292.622499	783.0
1293.163194	785.7999878
1293.703833	781.5999756
1294.244415	780.7999878
1294.784942	783.2000122
1295.325412	783.7999878
1295.865826	784.2000122
1296.406184	785.5999756
1296.946486	787.0
1297.486731	780.0
1298.026921	784.5999756
1298.567054	780.4000244
1299.107131	779.5999756
1299.647152	775.0
1300.187116	777.5999756
1300.727025	782.2000122
1301.266877	779.0
1301.806673	774.5999756
1302.346413	783.5999756
1302.886097	776.7999878
1303.425725	783.4000244
1303.965297	781.2000122
1304.504812	777.5999756
1305.044272	776.5999756
1305.583675	777.2000122
1306.123022	781.0
1306.662313	779.7999878
1307.201548	774.4000244
1307.740727	782.5999756
1308.279849	780.2000122
1308.818916	781.4000244
1309.357926	778.4000244
1309.896881	783.7999878
1310.435779	778.4000244
1310.974621	778.5999756
1311.513407	777.0
1312.052137	777.7999878
1312.590811	778.4000244
1313.129429	784.0
1313.667991	776.4000244
1314.206497	774.4000244
1314.744946	778.7999878
1315.28334	769.7999878
1315.821678	772.5999756
1316.359959	778.5999756
1316.898184	776.5999756
1317.436354	769.7999878
1317.974467	777.2000122
1318.512525	776.0
1319.050526	779.5999756
1319.588471	775.4000244
1320.12636	779.5999756
1320.664194	777.0
1321.201971	774.5999756
1321.739692	778.2000122
1322.277357	779.7999878
1322.814967	778.5999756
1323.35252	771.0
1323.890017	776.7999878
1324.427458	768.7999878
1324.964843	776.5999756
1325.502173	781.0
1326.039446	780.4000244
1326.576663	780.4000244
1327.113824	775.2000122
1327.65093	775.4000244
1328.187979	782.0
1328.724972	775.4000244
1329.26191	781.5999756
1329.798791	773.2000122
1330.335617	775.0
1330.872386	773.5999756
1331.4091	777.7999878
1331.945758	777.0
1332.48236	777.5999756
1333.018905	779.0
1333.555395	775.2000122
1334.091829	777.5999756
1334.628207	774.2000122
1335.164529	774.4000244
1335.700796	778.0
1336.237006	779.0
1336.77316	773.4000244
1337.309259	777.5999756
1337.845301	779.4000244
1338.381288	777.4000244
1338.917219	777.0
1339.453094	779.4000244
1339.988913	772.7999878
1340.524676	778.4000244
1341.060383	772.7999878
1341.596034	779.0
1342.13163	773.5999756
1342.66717	776.5999756
1343.202653	776.4000244
1343.738081	780.2000122
1344.273453	781.5999756
1344.80877	779.4000244
1345.34403	779.0
1345.879235	781.5999756
1346.414383	779.4000244
1346.949476	777.4000244
1347.484513	780.4000244
1348.019494	779.2000122
1348.55442	777.2000122
1349.089289	775.5999756
1349.624103	776.2000122
1350.158861	781.7999878
1350.693563	776.5999756
1351.228209	776.2000122
1351.7628	783.0
1352.297334	776.0
1352.831813	783.0
1353.366236	775.0
1353.900604	779.7999878
1354.434915	777.0
1354.969171	777.4000244
1355.503371	779.5999756
1356.037515	775.5999756
1356.571604	786.4000244
1357.105636	775.5999756
1357.639613	779.2000122
1358.173535	780.4000244
1358.7074	774.5999756
1359.24121	772.4000244
1359.774964	778.4000244
1360.308662	781.0
1360.842304	779.7999878
1361.375891	775.4000244
1361.909422	776.5999756
1362.442897	785.7999878
1362.976317	780.0
1363.50968	781.4000244
1364.042989	777.0
1364.576241	785.7999878
1365.109438	783.0
1365.642579	783.0
1366.175664	779.7999878
1366.708693	781.4000244
1367.241667	781.5999756
1367.774585	781.7999878
1368.307448	782.2000122
1368.840255	784.2000122
1369.373006	789.5999756
1369.905701	798.5999756
1370.438341	792.4000244
1370.970925	782.7999878
1371.503454	788.7999878
1372.035926	781.5999756
1372.568344	782.5999756
1373.100705	779.2000122
1373.633011	783.5999756
1374.165261	782.7999878
1374.697456	785.4000244
1375.229595	783.4000244
1375.761678	783.4000244
1376.293705	784.2000122
1376.825677	789.7999878
1377.357594	788.5999756
1377.889455	790.4000244
1378.42126	789.0
1378.953009	785.5999756
1379.484703	784.7999878
1380.016342	789.7999878
1380.547924	789.4000244
1381.079452	791.0
1381.610923	793.4000244
1382.142339	797.7999878
1382.673699	800.0
1383.205004	804.7999878
1383.736253	813.7999878
1384.267447	817.7999878
1384.798585	848.2000122
1385.329668	873.7999878
1385.860695	950.2000122
1386.391666	1106.800049
1386.922582	1461.400024
1387.453442	1724.0
1387.984247	1495.400024
1388.514996	1126.800049
1389.04569	950.0
1389.576328	872.4000244
1390.10691	833.2000122
1390.637437	818.2000122
1391.167909	814.0
1391.698325	809.5999756
1392.228685	797.0
1392.75899	799.5999756
1393.28924	790.4000244
1393.819434	791.4000244
1394.349572	786.0
1394.879655	785.0
1395.409683	790.4000244
1395.939655	782.4000244
1396.469571	793.0
1396.999432	787.7999878
1397.529237	792.5999756
1398.058987	784.4000244
1398.588682	792.5999756
1399.118321	788.2000122
1399.647905	785.4000244
1400.177433	787.5999756
1400.706906	789.7999878
1401.236323	789.4000244
1401.765685	791.2000122
1402.294991	786.0
1402.824242	786.0
1403.353437	781.0
1403.882577	782.0
1404.411662	790.0
1404.940691	791.7999878
1405.469665	794.5999756
1405.998583	791.4000244
1406.527446	793.5999756
1407.056253	803.0
1407.585005	804.4000244
1408.113702	814.2000122
1408.642343	814.4000244
1409.170929	823.0
1409.69946	824.4000244
1410.227935	809.7999878
1410.756354	800.4000244
1411.284719	794.4000244
1411.813028	792.2000122
1412.341281	784.4000244
1412.869479	780.7999878
1413.397622	785.0
1413.92571	782.2000122
1414.453742	784.0
1414.981718	779.0
1415.50964	787.2000122
1416.037506	780.2000122
1416.565316	780.5999756
1417.093072	780.7999878
1417.620772	786.5999756
1418.148416	773.7999878
1418.676005	777.2000122
1419.203539	781.0
1419.731018	780.0
1420.258441	780.2000122
1420.785809	774.4000244
1421.313122	777.4000244
1421.840379	780.0
1422.367582	778.2000122
1422.894728	776.7999878
1423.42182	775.5999756
1423.948856	774.4000244
1424.475837	774.0
1425.002762	775.0
1425.529633	773.0
1426.056448	774.0
1426.583207	774.4000244
1427.109912	783.5999756
1427.636561	780.2000122
1428.163155	780.5999756
1428.689694	782.7999878
1429.216177	780.7999878
1429.742605	775.4000244
1430.268978	774.0
1430.795296	773.7999878
1431.321558	776.7999878
1431.847765	781.0
1432.373917	775.5999756
1432.900014	776.0
1433.426056	777.0
1433.952042	774.2000122
1434.477973	777.7999878
1435.003849	775.2000122
1435.529669	778.7999878
1436.055435	774.0
1436.581145	774.5999756
1437.1068	776.4000244
1437.632399	777.5999756
1438.157944	776.7999878
1438.683433	780.4000244
1439.208868	777.4000244
1439.734247	776.0
1440.25957	778.4000244
1440.784839	775.5999756
1441.310053	770.7999878
1441.835211	780.7999878
1442.360314	771.5999756
1442.885362	777.5999756
1443.410355	773.7999878
1443.935292	779.5999756
1444.460175	772.4000244
1444.985002	771.7999878
1445.509774	779.0
1446.034491	769.5999756
1446.559153	772.4000244
1447.08376	778.0
1447.608312	772.2000122
1448.132808	770.0
1448.65725	778.5999756
1449.181636	770.4000244
1449.705967	777.4000244
1450.230243	776.7999878
1450.754464	776.7999878
1451.27863	781.7999878
1451.802741	779.2000122
1452.326797	775.7999878
1452.850797	775.2000122
1453.374743	778.7999878
1453.898633	782.5999756
1454.422468	780.0
1454.946249	777.4000244
1455.469974	769.5999756
1455.993644	774.0
1456.517259	776.4000244
1457.040819	767.0
1457.564324	775.0
1458.087773	773.4000244
1458.611168	774.4000244
1459.134508	779.7999878
1459.657793	775.4000244
1460.181022	780.4000244
1460.704197	771.2000122
1461.227316	776.7999878
1461.750381	766.2000122
1462.27339	776.5999756
1462.796345	796.0
1463.842089	785.0
1464.364878	772.2000122
1464.887613	768.7999878
1465.410292	774.7999878
1465.932916	776.2000122
1466.455486	777.5999756
1466.978	780.2000122
1467.50046	775.2000122
1468.022864	771.4000244
1468.545214	775.7999878
1469.067508	771.0
1469.589748	772.4000244
1470.111932	772.7999878
1470.634062	776.5999756
1471.156136	777.5999756
1471.678156	777.0
1472.20012	772.0
1472.72203	770.4000244
1473.243885	781.0
1473.765685	773.4000244
1474.28743	777.2000122
1474.80912	768.4000244
1475.330755	771.0
1475.852335	774.5999756
1476.37386	772.0
1476.89533	775.7999878
1477.416745	773.7999878
1477.938106	775.2000122
1478.459411	773.4000244
1478.980662	779.4000244
1479.501857	775.4000244
1480.022998	772.0
1480.544084	772.4000244
1481.065115	776.0
1481.586091	772.0
1482.107012	775.5999756
1482.627878	777.0
1483.14869	775.0
1483.669446	772.7999878
1484.190148	770.4000244
1484.710794	775.7999878
1485.231386	777.4000244
1485.751923	772.2000122
1486.272406	769.5999756
1486.792833	771.5999756
1487.313205	770.7999878
1487.833523	775.7999878
1488.353786	775.0
1488.873994	769.4000244
1489.394147	770.7999878
1489.914245	770.4000244
1490.434288	771.4000244
1490.954277	773.2000122
1491.474211	776.7999878
1491.99409	770.5999756
1492.513914	773.2000122
1493.033683	779.2000122
1493.553398	775.4000244
1494.073057	775.4000244
1494.592662	774.4000244
1495.112212	769.2000122
1495.631708	771.0
1496.151148	776.5999756
1496.670534	769.5999756
1497.189865	776.5999756
1497.709141	774.0
1498.228362	769.7999878
1498.747529	774.5999756
1499.266641	777.5999756
1499.785698	779.2000122
1500.3047	772.4000244
1500.823648	774.0
1501.34254	771.7999878
1501.861379	771.2000122
1502.380162	777.2000122
1502.89889	773.5999756
1503.417564	773.4000244
1503.936183	773.0
1504.454748	774.2000122
1504.973257	771.2000122
1505.491712	769.0
1506.010112	778.0
1506.528458	777.2000122
1507.046748	779.2000122
1507.564984	767.2000122
1508.083166	777.4000244
1508.601292	773.0
1509.119364	775.2000122
1509.637381	771.5999756
1510.155344	772.7999878
1510.673252	776.5999756
1511.191105	771.0
1511.708903	774.2000122
1512.226647	774.2000122
1512.744336	775.7999878
1513.261971	766.0
1513.77955	775.5999756
1514.297076	774.0
1514.814546	773.4000244
1515.331962	773.7999878
1515.849323	772.2000122
1516.366629	774.4000244
1516.883881	773.2000122
1517.401078	772.2000122
1517.918221	775.7999878
1518.435309	768.7999878
1518.952342	771.5999756
1519.469321	772.7999878
1519.986245	772.0
1520.503114	771.5999756
1521.019929	766.0
1521.536689	773.0
1522.053395	774.4000244
1522.570046	772.4000244
1523.086642	769.5999756
1523.603184	767.0
1524.119671	770.7999878
1524.636103	767.4000244
1525.152481	776.4000244
1525.668805	776.7999878
1526.701288	791.4000244
1527.217447	778.2000122
1527.733552	772.2000122
1528.249603	773.2000122
1528.765599	770.7999878
1529.28154	769.0
1529.797427	774.0
1530.313259	770.7999878
1530.829037	773.5999756
1531.34476	772.4000244
1531.860429	765.2000122
1532.376043	767.5999756
1532.891602	770.0
1533.407107	770.2000122
1533.922558	771.7999878
1534.437954	774.0
1534.953295	774.0
1535.468582	769.5999756
1535.983815	774.4000244
1536.498993	768.7999878
1537.014116	774.7999878
1537.529185	775.5999756
1538.044199	776.2000122
1538.559159	778.2000122
1539.074064	773.2000122
1539.588915	779.4000244
1540.103712	775.5999756
1540.618454	779.5999756
1541.133141	775.5999756
1541.647774	774.4000244
1542.162353	770.5999756
1542.676877	775.5999756
1543.191346	770.7999878
1543.705761	779.7999878
1544.220122	773.5999756
1544.734428	775.0
1545.24868	767.0
1545.762877	773.7999878
1546.27702	779.4000244
1546.791109	781.0
1547.305143	775.4000244
1547.819122	772.0
1548.333047	767.0
1548.846918	772.2000122
1549.360734	774.5999756
1549.874496	777.4000244
1550.388204	771.4000244
1550.901857	773.4000244
1551.415455	769.5999756
1551.929	776.7999878
1552.442489	775.7999878
1552.955925	779.5999756
1553.469306	779.5999756
1553.982632	776.4000244
1554.495905	773.2000122
1555.009123	776.4000244
1555.522286	771.4000244
1556.035395	777.0
1556.54845	777.5999756
1557.06145	771.0
1557.574396	773.4000244
1558.087288	775.0
1558.600125	775.5999756
1559.112908	778.4000244
1559.625637	776.2000122
1560.138311	773.5999756
1560.650931	778.2000122
1561.163497	775.0
1561.676008	770.0
1562.188465	775.5999756
1562.700867	778.0
1563.213216	778.2000122
1563.725509	777.7999878
1564.237749	774.7999878
1564.749934	787.0
1565.262065	769.2000122
1565.774142	775.5999756
1566.286164	777.2000122
1566.798132	779.4000244
1567.310046	779.0
1567.821906	783.7999878
1568.333711	778.7999878
1568.845462	778.4000244
1569.357158	776.5999756
1569.868801	775.0
1570.380389	780.2000122
1570.891922	776.4000244
1571.403402	775.0
1571.914827	775.0
1572.426198	776.5999756
1572.937515	771.0
1573.448777	778.2000122
1573.959985	773.7999878
1574.471139	775.0
1574.982239	772.0
1575.493285	774.0
1576.004276	783.5999756
1576.515213	768.4000244
1577.026096	777.0
1577.536924	775.5999756
1578.047698	777.2000122
1578.558419	774.2000122
1579.069084	775.2000122
1579.579696	780.2000122
1580.090254	774.5999756
1580.600757	775.7999878
1581.111206	777.5999756
1581.621601	774.5999756
1582.131941	775.2000122
1582.642228	779.5999756
1583.15246	781.0
1583.662638	769.4000244
1584.172762	776.0
1584.682832	773.7999878
1585.192847	768.7999878
1585.702809	778.5999756
1586.212716	772.7999878
1586.722569	776.5999756
1587.232368	773.7999878
1587.742113	774.2000122
1588.251803	770.4000244
1588.76144	781.0
1589.271022	771.2000122
1589.78055	772.5999756
1590.290024	776.2000122
1590.799444	773.4000244
1591.30881	772.0
1591.818121	769.2000122
1592.327379	768.4000244
