1042.414189	690.0
1042.980685	690.0
1043.547124	689.2000122
1044.113505	687.7999878
1044.679828	687.5999756
1045.246093	684.7999878
1045.8123	680.7999878
1046.378449	687.0
1046.94454	680.5999756
1047.510573	681.0
1048.076548	680.7999878
1048.642465	679.4000244
1049.208325	681.2000122
1049.774126	680.4000244
1050.339869	680.7999878
1050.905555	685.7999878
1051.471183	678.4000244
1052.036752	679.0
1052.602264	678.7999878
1053.167718	679.0
1053.733114	677.4000244
1054.298452	677.0
1054.863733	676.4000244
1055.428955	678.7999878
1055.994119	677.7999878
1056.559226	679.0
1057.124275	676.2000122
1057.689266	676.0
1058.254199	676.5999756
1058.819074	672.5999756
1059.383891	671.0
1059.94865	673.7999878
1060.513352	674.0
1061.077996	674.2000122
1061.642582	677.0
1062.20711	674.0
1062.77158	674.2000122
1063.335992	675.7999878
1063.900347	673.2000122
1064.464643	671.7999878
1065.028882	671.7999878
1065.593063	674.4000244
1066.157187	674.2000122
1066.721252	673.4000244
1067.28526	672.4000244
1067.84921	673.2000122
1068.413102	674.5999756
1068.976936	671.2000122
1069.540713	675.4000244
1070.104431	683.4000244
1070.668092	673.7999878
1071.231696	672.4000244
1071.795241	673.4000244
1072.358729	668.4000244
1072.922159	671.5999756
1073.485531	673.0
1074.048845	674.0
1074.612102	674.5999756
1075.175301	669.4000244
1075.738442	671.4000244
1076.301525	672.7999878
1076.864551	673.0
1077.427519	673.4000244
1077.990429	673.0
1078.553281	672.5999756
1079.116076	671.2000122
1079.678813	671.5999756
1080.241492	673.0
1080.804114	672.2000122
1081.366678	671.2000122
1081.929184	670.5999756
1082.491633	672.5999756
1083.054024	672.0
1083.616357	673.5999756
1084.178632	672.5999756
1084.74085	670.5999756
1085.30301	673.4000244
1085.865113	671.4000244
1086.427158	672.7999878
1086.989145	668.4000244
1087.551074	674.0
1088.112946	672.5999756
1088.67476	673.0
1089.236517	673.0
1089.798216	674.2000122
1090.359857	672.7999878
1090.92144	673.7999878
1091.482966	673.5999756
1092.044435	672.2000122
1092.605845	671.0
1093.167199	674.2000122
1093.728494	674.2000122
1094.289732	673.7999878
1094.850912	674.0
1095.412035	682.7999878
1095.9731	675.2000122
1096.534107	674.7999878
1097.095057	680.7999878
1097.65595	671.4000244
1098.216784	671.2000122
1098.777561	672.7999878
1099.338281	670.2000122
1099.898943	674.7999878
1100.459547	669.7999878
1101.020094	673.2000122
1101.580584	670.0
1102.141015	673.0
1102.701389	672.2000122
1103.261706	671.5999756
1103.821965	671.7999878
1104.382167	674.2000122
1104.942311	670.0
1105.502397	671.2000122
1106.062426	672.4000244
1106.622398	669.7999878
1107.182312	674.2000122
1107.742168	673.5999756
1108.301967	673.7999878
1108.861708	669.5999756
1109.421392	674.4000244
1109.981019	671.4000244
1110.540587	669.5999756
1111.100099	671.4000244
1111.659553	671.7999878
1112.218949	671.2000122
1112.778288	669.5999756
1113.33757	669.7999878
1113.896794	669.0
1114.45596	670.5999756
1115.015069	670.0
1115.574121	671.0
1116.133115	672.2000122
1116.692052	672.2000122
1117.250931	669.0
1117.809753	671.5999756
1118.368517	670.7999878
1118.927224	672.2000122
1119.485873	671.4000244
1120.044465	669.5999756
1120.603	672.4000244
1121.161477	670.7999878
1121.719897	670.5999756
1122.278259	669.5999756
1122.836564	670.5999756
1123.394812	671.0
1123.953002	669.5999756
1124.511135	673.7999878
1125.06921	669.5999756
1125.627228	669.2000122
1126.185189	671.5999756
1126.743092	669.2000122
1127.300938	673.0
1127.858726	669.7999878
1128.416457	669.2000122
1128.974131	667.7999878
1129.531748	671.5999756
1130.089307	671.0
1130.646808	672.0
1131.204252	671.4000244
1131.761639	669.4000244
1132.318969	672.4000244
1132.876241	668.0
1133.433456	670.7999878
1133.990614	669.7999878
1134.547714	670.4000244
1135.104757	670.4000244
1135.661743	671.0
1136.218671	672.2000122
1136.775542	668.4000244
1137.332356	669.4000244
1137.889112	669.4000244
1138.445811	670.2000122
1139.002453	666.7999878
1139.559037	668.0
1140.115565	670.0
1140.672035	670.4000244
1141.228447	669.4000244
1141.784803	671.4000244
1142.341101	670.7999878
1142.897342	671.4000244
1143.453525	669.0
1144.009651	669.2000122
1144.565721	672.7999878
1145.121732	670.0
1145.677687	667.7999878
1146.233584	667.5999756
1146.789424	670.4000244
1147.345207	667.7999878
1147.900933	670.4000244
1148.456601	668.5999756
1149.012212	668.5999756
1149.567766	669.7999878
1150.123263	670.4000244
1150.678702	670.0
1151.234085	670.7999878
1151.78941	673.4000244
1152.344678	670.0
1152.899888	672.4000244
1153.455042	668.7999878
1154.010138	670.4000244
1154.565177	669.2000122
1155.120159	670.5999756
1155.675084	667.7999878
1156.229951	673.4000244
1156.784762	670.4000244
1157.339515	670.4000244
1157.894211	670.0
1158.44885	671.7999878
1159.003432	667.7999878
1159.557956	670.7999878
1160.112424	671.2000122
1160.666834	668.5999756
1161.221187	671.5999756
1161.775483	668.5999756
1162.329722	670.2000122
1162.883904	671.5999756
1163.438029	669.0
1163.992096	671.2000122
1164.546107	670.2000122
1165.10006	670.7999878
1165.653956	669.7999878
1166.207795	671.0
1166.761577	671.7999878
1167.315302	669.7999878
1167.86897	668.7999878
1168.422581	670.5999756
1168.976134	669.5999756
1169.529631	673.0
1170.08307	671.7999878
1170.636453	667.2000122
1171.189778	669.5999756
1171.743046	671.5999756
1172.296257	668.5999756
1172.849412	670.5999756
1173.402509	669.0
1173.955549	669.4000244
1174.508532	669.2000122
1175.061458	673.5999756
1175.614327	671.0
1176.167138	671.5999756
1176.719893	668.5999756
1177.272591	670.0
1177.825232	672.2000122
1178.377816	670.4000244
1178.930342	670.0
1179.482812	671.0
1180.035225	668.0
1180.587581	669.5999756
1181.139879	670.4000244
1181.692121	672.5999756
1182.244306	671.4000244
1182.796434	672.2000122
1183.348504	669.0
1183.900518	668.7999878
1184.452475	669.5999756
1185.004375	671.2000122
1185.556218	669.5999756
1186.108004	671.7999878
1186.659733	667.4000244
1187.211405	670.4000244
1187.76302	669.4000244
1188.314578	667.4000244
1188.866079	671.0
1189.417523	670.0
1189.96891	673.4000244
1190.520241	667.4000244
1191.071514	671.2000122
1191.622731	669.5999756
1192.17389	667.4000244
1192.724993	670.7999878
1193.276039	690.2000122
1193.827027	671.0
1194.377959	670.5999756
1194.928834	670.5999756
1195.479653	669.4000244
1196.030414	671.2000122
1196.581118	670.0
1197.131766	669.7999878
1197.682356	671.4000244
1198.23289	671.4000244
1198.783367	671.7999878
1199.333786	670.7999878
1199.88415	669.2000122
1200.434456	666.4000244
1200.984705	671.0
1201.534898	669.0
1202.085033	672.7999878
1202.635112	670.2000122
1203.185134	666.4000244
1203.735099	669.7999878
1204.285007	671.5999756
1204.834859	670.5999756
1205.384653	671.5999756
1205.934391	670.4000244
1206.484072	670.7999878
1207.033696	670.5999756
1207.583263	667.5999756
1208.132774	668.4000244
1208.682228	670.2000122
1209.231624	671.2000122
1209.780965	669.4000244
1210.330248	672.4000244
1210.879474	668.0
1211.428644	672.4000244
1211.977757	674.4000244
1212.526813	670.2000122
1213.075813	671.7999878
1213.624755	671.4000244
1214.173641	669.5999756
1214.72247	669.5999756
1215.271242	671.7999878
1215.819958	674.2000122
1216.368617	669.5999756
1216.917219	668.2000122
1217.465764	671.7999878
1218.014253	670.4000244
1218.562685	668.5999756
1219.11106	673.7999878
1219.659378	667.5999756
1220.20764	673.4000244
1220.755845	672.4000244
1221.303993	670.4000244
1221.852085	669.4000244
1222.400119	670.5999756
1222.948097	668.2000122
1223.496019	675.5999756
1224.043883	670.2000122
1224.591691	673.0
1225.139443	669.7999878
1225.687137	670.2000122
1226.234775	670.2000122
1226.782357	671.4000244
1227.329881	671.5999756
1227.877349	673.5999756
1228.42476	670.7999878
1228.972115	670.7999878
1229.519413	673.2000122
1230.066654	669.7999878
1230.613839	670.5999756
1231.160967	673.0
1231.708038	672.5999756
1232.255053	670.7999878
1232.802011	670.2000122
1233.348912	672.0
1233.895757	672.0
1234.442545	670.7999878
1234.989277	672.4000244
1235.535951	672.0
1236.08257	672.2000122
1236.629131	672.7999878
1237.175636	670.7999878
1237.722085	672.7999878
1238.268477	673.2000122
1238.814812	672.4000244
1239.361091	674.0
1239.907313	670.7999878
1240.453478	671.4000244
1240.999587	669.4000244
1241.54564	673.7999878
1242.091636	674.5999756
1242.637575	671.4000244
1243.183457	671.5999756
1243.729284	673.0
1244.275053	670.7999878
1244.820766	672.7999878
1245.366423	671.4000244
1245.912022	672.2000122
1246.457566	672.4000244
1247.003053	672.4000244
1247.548483	672.0
1248.093857	673.0
1248.639174	670.5999756
1249.184435	676.2000122
1249.729639	670.7999878
1250.274787	674.0
1250.819878	671.7999878
1251.364912	675.0
1251.909891	675.2000122
1252.454812	672.4000244
1252.999677	674.0
1253.544486	673.4000244
1254.089238	674.4000244
1254.633934	673.4000244
1255.178573	673.0
1255.723156	675.4000244
1256.267682	674.5999756
1256.812152	674.4000244
1257.356565	676.2000122
1257.900922	676.2000122
1258.445223	679.7999878
1258.989467	678.5999756
1259.533654	673.7999878
1260.077785	684.2000122
1260.62186	679.7999878
1261.165878	682.2000122
1261.70984	686.4000244
1262.253745	685.2000122
1262.797594	690.7999878
1263.341386	693.2000122
1263.885123	692.0
1264.428802	688.2000122
1264.972425	687.5999756
1265.515992	682.5999756
1266.059503	677.5999756
1266.602957	678.5999756
1267.146354	676.7999878
1267.689696	678.7999878
1268.23298	680.2000122
1268.776209	677.5999756
1269.319381	674.7999878
1269.862497	677.2000122
1270.405556	675.7999878
1270.948559	676.4000244
1271.491506	675.5999756
1272.034396	674.5999756
1272.57723	679.0
1273.120007	677.7999878
1273.662728	676.2000122
1274.205393	676.2000122
1274.748002	675.7999878
1275.290554	676.0
1275.83305	679.0
1276.375489	676.2000122
1276.917872	681.2000122
1277.460199	680.7999878
1278.00247	680.4000244
1278.544684	679.5999756
1279.086842	685.0
1279.628943	687.4000244
1280.170989	694.0
1280.712978	710.5999756
1281.25491	732.2000122
1281.796787	788.0
1282.338607	892.7999878
1282.880371	1022.400024
1283.422078	1051.400024
1283.963729	962.7999878
1284.505324	844.7999878
1285.046863	764.0
1285.588345	720.2000122
1286.129772	702.4000244
1286.671142	694.0
1287.212455	689.4000244
1287.753713	683.0
1288.294914	683.2000122
1288.836059	682.0
1289.377147	680.5999756
1289.91818	680.4000244
1290.459156	677.4000244
1291.000076	676.0
1291.54094	679.2000122
1292.081747	675.4000244
1292.622499	678.5999756
1293.163194	677.2000122
1293.703833	678.4000244
1294.244415	673.2000122
1294.784942	676.2000122
1295.325412	677.0
1295.865826	675.0
1296.406184	674.5999756
1296.946486	672.2000122
1297.486731	673.2000122
1298.026921	670.7999878
1298.567054	675.5999756
1299.107131	675.2000122
1299.647152	671.2000122
1300.187116	676.5999756
1300.727025	673.7999878
1301.266877	674.4000244
1301.806673	673.2000122
1302.346413	671.4000244
1302.886097	673.5999756
1303.425725	672.4000244
1303.965297	674.4000244
1304.504812	670.2000122
1305.044272	672.2000122
1305.583675	672.2000122
1306.123022	671.4000244
1306.662313	671.4000244
1307.201548	672.0
1307.740727	672.4000244
1308.279849	674.4000244
1308.818916	671.4000244
1309.357926	671.7999878
1309.896881	673.2000122
1310.435779	672.4000244
1310.974621	672.5999756
1311.513407	670.7999878
1312.052137	672.2000122
1312.590811	672.7999878
1313.129429	670.2000122
1313.667991	674.7999878
1314.206497	672.7999878
1314.744946	669.5999756
1315.28334	673.4000244
1315.821678	671.7999878
1316.359959	671.4000244
1316.898184	670.7999878
1317.436354	671.0
1317.974467	672.5999756
1318.512525	670.2000122
1319.050526	675.5999756
1319.588471	669.2000122
1320.12636	674.7999878
1320.664194	671.2000122
1321.201971	671.5999756
1321.739692	671.2000122
1322.277357	672.7999878
1322.814967	672.0
1323.35252	669.0
1323.890017	679.4000244
1324.427458	670.4000244
1324.964843	671.5999756
1325.502173	671.4000244
1326.039446	673.4000244
1326.576663	673.7999878
1327.113824	671.2000122
1327.65093	673.4000244
1328.187979	673.2000122
1328.724972	668.7999878
1329.26191	671.7999878
1329.798791	670.7999878
1330.335617	671.5999756
1330.872386	671.2000122
1331.4091	670.5999756
1331.945758	672.7999878
1332.48236	672.2000122
1333.018905	669.2000122
1333.555395	673.0
1334.091829	671.5999756
1334.628207	674.0
1335.164529	669.7999878
1335.700796	671.0
1336.237006	671.5999756
1336.77316	672.5999756
1337.309259	671.7999878
1337.845301	669.4000244
1338.381288	671.7999878
1338.917219	669.5999756
1339.453094	669.5999756
1339.988913	674.4000244
1340.524676	672.5999756
1341.060383	671.4000244
1341.596034	671.7999878
1342.13163	672.0
1342.66717	673.2000122
1343.202653	672.0
1343.738081	672.7999878
1344.273453	670.7999878
1344.80877	673.2000122
1345.34403	671.2000122
1345.879235	674.7999878
1346.414383	674.2000122
1346.949476	673.5999756
1347.484513	673.7999878
1348.019494	669.7999878
1348.55442	671.2000122
1349.089289	669.5999756
1349.624103	672.0
1350.158861	671.7999878
1350.693563	666.7999878
1351.228209	668.7999878
1351.7628	673.4000244
1352.297334	672.5999756
1352.831813	669.5999756
1353.366236	671.5999756
1353.900604	671.7999878
1354.434915	671.7999878
1354.969171	674.7999878
1355.503371	674.5999756
1356.037515	671.2000122
1356.571604	672.4000244
1357.105636	671.5999756
1357.639613	670.7999878
1358.173535	674.5999756
1358.7074	677.0
1359.24121	675.4000244
1359.774964	674.5999756
1360.308662	671.2000122
1360.842304	672.7999878
1361.375891	669.7999878
1361.909422	674.0
1362.442897	673.4000244
1362.976317	675.7999878
1363.50968	674.7999878
1364.042989	673.7999878
1364.576241	674.5999756
1365.109438	673.5999756
1365.642579	675.0
1366.175664	673.4000244
1366.708693	673.0
1367.241667	677.0
1367.774585	673.7999878
1368.307448	679.2000122
1368.840255	678.7999878
1369.373006	683.0
1369.905701	690.2000122
1370.438341	681.0
1370.970925	679.0
1371.503454	673.0
1372.035926	673.5999756
1372.568344	673.7999878
1373.100705	675.2000122
1373.633011	675.7999878
1374.165261	674.7999878
1374.697456	676.5999756
1375.229595	678.0
1375.761678	680.0
1376.293705	678.0
1376.825677	679.5999756
1377.357594	679.2000122
1377.889455	680.2000122
1378.42126	680.7999878
1378.953009	677.7999878
1379.484703	683.2000122
1380.016342	683.7999878
1380.547924	680.5999756
1381.079452	685.5999756
1381.610923	684.7999878
1382.142339	686.7999878
1382.673699	693.0
1383.205004	688.5999756
1383.736253	697.5999756
1384.267447	706.7999878
1384.798585	716.5999756
1385.329668	743.5999756
1385.860695	788.2000122
1386.391666	887.2000122
1386.922582	1124.199951
1387.453442	1443.0
1387.984247	1402.800049
1388.514996	1046.800049
1389.04569	844.0
1389.576328	762.4000244
1390.10691	724.4000244
1390.637437	707.5999756
1391.167909	698.2000122
1391.698325	691.7999878
1392.228685	693.0
1392.75899	686.4000244
1393.28924	686.4000244
1393.819434	681.0
1394.349572	677.7999878
1394.879655	678.5999756
1395.409683	680.4000244
1395.939655	678.7999878
1396.469571	679.2000122
1396.999432	680.7999878
1397.529237	678.7999878
1398.058987	679.4000244
1398.588682	679.2000122
1399.118321	676.7999878
1399.647905	678.2000122
1400.177433	681.0
1400.706906	679.4000244
1401.236323	674.4000244
1401.765685	677.5999756
1402.294991	679.7999878
1402.824242	678.7999878
1403.353437	676.0
1403.882577	681.2000122
1404.411662	675.7999878
1404.940691	680.0
1405.469665	681.4000244
1405.998583	683.4000244
1406.527446	684.4000244
1407.056253	687.5999756
1407.585005	694.4000244
1408.113702	701.5999756
1408.642343	704.0
1409.170929	708.4000244
1409.69946	706.5999756
1410.227935	699.0
1410.756354	692.2000122
1411.284719	687.7999878
1411.813028	680.7999878
1412.341281	677.0
1412.869479	677.7999878
1413.397622	676.2000122
1413.92571	674.7999878
1414.453742	672.4000244
1414.981718	674.5999756
1415.50964	683.0
1416.037506	675.7999878
1416.565316	673.7999878
1417.093072	672.7999878
1417.620772	670.4000244
1418.148416	672.5999756
1418.676005	672.0
1419.203539	672.7999878
1419.731018	672.2000122
1420.258441	674.0
1420.785809	673.4000244
1421.313122	668.5999756
1421.840379	671.0
1422.367582	673.7999878
1422.894728	670.4000244
1423.42182	672.0
1423.948856	671.4000244
1424.475837	669.0
1425.002762	668.0
1425.529633	672.2000122
1426.056448	673.0
1426.583207	670.7999878
1427.109912	672.4000244
1427.636561	671.7999878
1428.163155	671.7999878
1428.689694	669.4000244
1429.216177	674.0
1429.742605	669.2000122
1430.268978	671.5999756
1430.795296	672.5999756
1431.321558	671.2000122
1431.847765	668.5999756
1432.373917	671.5999756
1432.900014	669.7999878
1433.426056	669.0
1433.952042	667.5999756
1434.477973	673.7999878
1435.003849	670.4000244
1435.529669	667.7999878
1436.055435	671.5999756
1436.581145	670.0
1437.1068	670.5999756
1437.632399	668.4000244
1438.157944	669.2000122
1438.683433	671.2000122
1439.208868	666.5999756
1439.734247	667.4000244
1440.25957	670.7999878
1440.784839	671.4000244
1441.310053	668.5999756
1441.835211	668.5999756
1442.360314	668.5999756
1442.885362	668.7999878
1443.410355	668.7999878
1443.935292	669.0
1444.460175	670.7999878
1444.985002	669.4000244
1445.509774	670.0
1446.034491	669.4000244
1446.559153	666.2000122
1447.08376	670.2000122
1447.608312	670.4000244
1448.132808	670.7999878
1448.65725	668.4000244
1449.181636	668.0
1449.705967	668.7999878
1450.230243	670.7999878
1450.754464	668.2000122
1451.27863	667.5999756
1451.802741	668.4000244
1452.326797	669.2000122
1452.850797	668.7999878
1453.374743	668.0
1453.898633	669.7999878
1454.422468	666.5999756
1454.946249	667.4000244
1455.469974	668.7999878
1455.993644	665.4000244
1456.517259	669.4000244
1457.040819	668.7999878
1457.564324	666.5999756
1458.087773	666.4000244
1458.611168	667.4000244
1459.134508	667.7999878
1459.657793	669.7999878
1460.181022	668.2000122
1460.704197	668.5999756
1461.227316	668.5999756
1461.750381	668.2000122
1462.27339	667.4000244
1462.796345	669.7999878
1463.319244	670.4000244
1463.842089	671.5999756
1464.364878	670.0
1464.887613	664.5999756
1465.410292	666.4000244
1465.932916	667.0
1466.455486	665.2000122
1466.978	668.2000122
1467.50046	669.4000244
1468.022864	666.4000244
1468.545214	668.2000122
1469.067508	671.5999756
1469.589748	668.7999878
1470.111932	669.5999756
1470.634062	668.5999756
1471.156136	668.7999878
1471.678156	667.0
1472.20012	670.0
1472.72203	670.2000122
1473.243885	667.5999756
1473.765685	668.2000122
1474.28743	668.4000244
1474.80912	665.4000244
1475.330755	668.0
1475.852335	666.0
1476.37386	667.7999878
1476.89533	667.7999878
1477.416745	668.2000122
1477.938106	668.4000244
1478.459411	668.0
1478.980662	674.4000244
1480.022998	669.0
1480.544084	665.5999756
1481.065115	667.5999756
1481.586091	670.4000244
1482.107012	669.2000122
1482.627878	667.0
1483.14869	667.2000122
1483.669446	667.4000244
1484.190148	666.2000122
1484.710794	665.5999756
1485.231386	666.5999756
1485.751923	668.0
1486.272406	665.4000244
1486.792833	670.0
1487.313205	668.7999878
1487.833523	668.5999756
1488.353786	666.5999756
1488.873994	665.5999756
1489.394147	667.5999756
1489.914245	665.4000244
1490.434288	669.0
1490.954277	665.0
1491.474211	667.7999878
1491.99409	668.0
1492.513914	667.0
1493.033683	668.7999878
1493.553398	669.4000244
1494.073057	666.2000122
1494.592662	670.7999878
1495.112212	667.2000122
1495.631708	666.0
1496.151148	665.4000244
1496.670534	667.5999756
1497.189865	670.0
1497.709141	668.5999756
1498.228362	666.5999756
1498.747529	667.7999878
1499.266641	666.5999756
1499.785698	678.5999756
1500.3047	668.7999878
1500.823648	668.4000244
1501.34254	667.5999756
1501.861379	666.0
1502.380162	669.2000122
1502.89889	667.5999756
1503.417564	664.7999878
1503.936183	667.2000122
1504.454748	666.0
1504.973257	669.0
1505.491712	668.7999878
1506.010112	666.0
1506.528458	666.4000244
1507.046748	667.5999756
1507.564984	667.4000244
1508.083166	668.2000122
1508.601292	666.2000122
1509.119364	665.7999878
1509.637381	670.0
1510.155344	666.2000122
1510.673252	674.4000244
1511.191105	666.5999756
1511.708903	667.0
1512.226647	670.0
1512.744336	666.2000122
1513.261971	667.0
1513.77955	665.0
1514.297076	667.4000244
1514.814546	667.7999878
1515.331962	665.5999756
1515.849323	665.7999878
1516.366629	666.7999878
1516.883881	667.7999878
1517.401078	666.4000244
1517.918221	667.7999878
1518.435309	669.4000244
1518.952342	665.2000122
1519.469321	666.0
1519.986245	666.4000244
1520.503114	667.0
1521.019929	665.5999756
1521.536689	666.2000122
1522.053395	667.2000122
1522.570046	669.2000122
1523.086642	666.7999878
1523.603184	667.2000122
1524.119671	664.7999878
1524.636103	668.0
1525.152481	667.2000122
1525.668805	670.4000244
1526.185073	670.0
1526.701288	670.0
1527.217447	667.2000122
1527.733552	664.7999878
1528.249603	663.7999878
1528.765599	667.0
1529.28154	667.0
1529.797427	668.2000122
1530.313259	663.5999756
1530.829037	669.2000122
1531.34476	668.0
1531.860429	664.7999878
1532.376043	669.2000122
1532.891602	667.0
1533.407107	666.5999756
1533.922558	666.5999756
1534.437954	665.2000122
1534.953295	666.4000244
1535.468582	666.2000122
1535.983815	668.7999878
1536.498993	667.2000122
1537.014116	666.4000244
1537.529185	666.7999878
1538.044199	668.2000122
1538.559159	666.5999756
1539.074064	666.2000122
1539.588915	667.7999878
1540.103712	668.4000244
1540.618454	665.0
1541.133141	665.2000122
1541.647774	665.7999878
1542.162353	667.5999756
1542.676877	663.2000122
1543.191346	665.0
1543.705761	666.5999756
1544.220122	665.5999756
1544.734428	665.7999878
1545.24868	667.7999878
1545.762877	669.0
1546.27702	665.4000244
1546.791109	667.5999756
1547.305143	665.4000244
1547.819122	666.5999756
1548.333047	668.5999756
1548.846918	666.2000122
1549.360734	667.0
1549.874496	665.5999756
1550.388204	666.0
1550.901857	664.7999878
1551.415455	665.0
1551.929	665.5999756
1552.442489	666.4000244
1552.955925	665.4000244
1553.469306	668.4000244
1553.982632	668.4000244
1554.495905	667.5999756
1555.009123	671.4000244
1555.522286	663.4000244
1556.035395	666.2000122
1556.54845	665.7999878
1557.06145	668.0
1557.574396	667.0
1558.087288	669.7999878
1558.600125	663.4000244
1559.112908	668.5999756
1559.625637	667.2000122
1560.138311	665.4000244
1560.650931	666.7999878
1561.163497	666.5999756
1561.676008	666.5999756
1562.188465	665.7999878
1562.700867	664.4000244
1563.213216	666.5999756
1563.725509	668.7999878
1564.237749	667.7999878
1564.749934	664.4000244
1565.262065	667.7999878
1565.774142	665.2000122
1566.286164	665.7999878
1566.798132	666.5999756
1567.310046	665.7999878
1567.821906	666.0
1568.333711	666.4000244
1568.845462	665.5999756
1569.357158	666.5999756
1569.868801	667.4000244
1570.380389	667.5999756
1570.891922	666.4000244
1571.403402	667.5999756
1571.914827	667.0
1572.426198	666.2000122
1572.937515	666.7999878
1573.448777	667.4000244
1573.959985	667.5999756
1574.471139	664.7999878
1574.982239	666.4000244
1575.493285	665.7999878
1576.004276	664.5999756
1576.515213	665.4000244
1577.026096	665.2000122
1577.536924	663.7999878
1578.047698	667.2000122
1578.558419	666.0
1579.069084	664.0
1579.579696	667.4000244
1580.090254	665.5999756
1580.600757	666.5999756
1581.111206	664.2000122
1581.621601	667.0
1582.131941	664.5999756
1582.642228	666.5999756
1583.15246	663.2000122
1583.662638	665.5999756
1584.172762	667.0
1584.682832	667.0
1585.192847	665.5999756
1585.702809	667.5999756
1586.212716	663.7999878
1586.722569	668.5999756
1587.232368	666.2000122
1587.742113	665.2000122
1588.251803	666.7999878
1588.76144	665.7999878
1589.271022	666.2000122
1589.78055	664.7999878
1590.290024	669.4000244
1590.799444	666.7999878
1591.30881	664.5999756
1591.818121	665.5999756
1592.327379	664.7999878
