1042.414189	696.4000244
1042.980685	702.5999756
1043.547124	695.2000122
1044.113505	701.0
1044.679828	697.2000122
1045.246093	695.7999878
1045.8123	694.0
1046.378449	696.2000122
1046.94454	695.4000244
1047.510573	698.5999756
1048.076548	694.0
1048.642465	691.4000244
1049.208325	693.5999756
1049.774126	693.2000122
1050.339869	695.2000122
1050.905555	692.5999756
1051.471183	691.4000244
1052.036752	688.7999878
1052.602264	692.7999878
1053.167718	691.4000244
1053.733114	689.7999878
1054.298452	691.0
1054.863733	689.0
1055.428955	689.7999878
1055.994119	688.0
1056.559226	690.5999756
1057.124275	690.5999756
1057.689266	689.7999878
1058.254199	687.5999756
1058.819074	689.5999756
1059.383891	691.4000244
1059.94865	688.0
1060.513352	685.7999878
1061.077996	688.0
1061.642582	687.0
1062.20711	685.0
1062.77158	688.4000244
1063.335992	689.2000122
1063.900347	687.2000122
1064.464643	688.0
1065.028882	686.5999756
1065.593063	685.4000244
1066.157187	690.7999878
1066.721252	688.7999878
1067.28526	688.0
1067.84921	687.7999878
1068.413102	688.2000122
1068.976936	688.5999756
1069.540713	689.2000122
1070.104431	691.0
1070.668092	688.2000122
1071.231696	688.4000244
1071.795241	687.7999878
1072.358729	685.4000244
1072.922159	690.0
1073.485531	691.0
1074.048845	689.4000244
1074.612102	685.4000244
1075.175301	689.2000122
1075.738442	687.7999878
1076.301525	682.4000244
1076.864551	689.5999756
1077.427519	688.5999756
1077.990429	692.4000244
1078.553281	687.7999878
1079.116076	685.4000244
1079.678813	685.4000244
1080.241492	687.5999756
1080.804114	689.4000244
1081.366678	690.5999756
1081.929184	690.4000244
1082.491633	689.0
1083.054024	689.7999878
1083.616357	688.5999756
1084.178632	689.7999878
1084.74085	689.4000244
1085.30301	684.5999756
1085.865113	692.2000122
1086.427158	687.4000244
1086.989145	690.2000122
1087.551074	686.2000122
1088.112946	690.2000122
1088.67476	687.2000122
1089.236517	690.4000244
1089.798216	688.4000244
1090.359857	689.2000122
1090.92144	689.7999878
1091.482966	693.0
1092.044435	692.5999756
1092.605845	689.5999756
1093.167199	687.4000244
1093.728494	691.5999756
1094.289732	689.4000244
1094.850912	692.0
1095.412035	701.5999756
1095.9731	689.4000244
1096.534107	691.4000244
1097.095057	692.2000122
1097.65595	686.2000122
1098.216784	688.5999756
1098.777561	691.5999756
1099.338281	688.7999878
1099.898943	683.7999878
1100.459547	687.7999878
1101.020094	682.4000244
1101.580584	688.5999756
1102.141015	689.0
1102.701389	686.7999878
1103.261706	689.4000244
1103.821965	690.4000244
1104.382167	687.5999756
1104.942311	688.4000244
1105.502397	688.0
1106.062426	688.7999878
1106.622398	688.0
1107.182312	684.5999756
1107.742168	689.0
1108.301967	686.4000244
1108.861708	684.4000244
1109.421392	682.5999756
1109.981019	687.2000122
1110.540587	685.4000244
1111.100099	685.7999878
1111.659553	686.5999756
1112.218949	689.2000122
1112.778288	689.2000122
1113.33757	686.7999878
1113.896794	686.0
1114.45596	690.5999756
1115.015069	684.5999756
1115.574121	688.2000122
1116.133115	688.7999878
1116.692052	686.5999756
1117.250931	685.7999878
1117.809753	686.5999756
1118.368517	691.0
1118.927224	687.0
1119.485873	685.5999756
1120.044465	686.2000122
1120.603	688.2000122
1121.161477	684.7999878
1121.719897	687.7999878
1122.278259	689.2000122
1122.836564	688.7999878
1123.394812	686.5999756
1123.953002	692.0
1124.511135	688.0
1125.06921	690.7999878
1125.627228	687.5999756
1126.185189	684.7999878
1126.743092	687.5999756
1127.300938	687.4000244
1127.858726	690.4000244
1128.416457	685.0
1128.974131	683.2000122
1129.531748	684.7999878
1130.089307	688.5999756
1130.646808	689.5999756
1131.204252	687.2000122
1131.761639	687.0
1132.318969	691.5999756
1132.876241	684.2000122
1133.433456	686.5999756
1133.990614	689.4000244
1134.547714	684.7999878
1135.104757	685.4000244
1135.661743	689.5999756
1136.218671	690.5999756
1136.775542	689.5999756
1137.332356	686.5999756
1137.889112	687.5999756
1138.445811	688.4000244
1139.002453	683.0
1139.559037	689.4000244
1140.115565	683.2000122
1140.672035	688.4000244
1141.228447	685.5999756
1141.784803	687.7999878
1142.341101	689.2000122
1142.897342	689.7999878
1143.453525	689.0
1144.009651	690.5999756
1144.565721	687.7999878
1145.121732	686.0
1145.677687	687.7999878
1146.233584	687.2000122
1146.789424	685.7999878
1147.345207	685.2000122
1147.900933	685.0
1148.456601	686.5999756
1149.012212	688.0
1149.567766	690.0
1150.123263	690.4000244
1150.678702	687.0
1151.234085	688.0
1151.78941	690.0
1152.344678	688.0
1152.899888	685.4000244
1153.455042	688.4000244
1154.010138	685.7999878
1154.565177	690.7999878
1155.120159	692.0
1155.675084	687.2000122
1156.229951	687.5999756
1156.784762	692.0
1157.339515	687.4000244
1157.894211	687.5999756
1158.44885	690.0
1159.003432	684.5999756
1159.557956	687.4000244
1160.112424	686.2000122
1160.666834	686.0
1161.221187	689.0
1161.775483	686.2000122
1162.329722	687.5999756
1162.883904	689.0
1163.438029	690.0
1163.992096	687.0
1164.546107	687.7999878
1165.10006	688.7999878
1165.653956	688.2000122
1166.207795	690.2000122
1166.761577	687.2000122
1167.315302	690.5999756
1167.86897	688.2000122
1168.422581	689.7999878
1168.976134	691.0
1169.529631	688.5999756
1170.08307	689.0
1170.636453	687.5999756
1171.189778	688.7999878
1171.743046	690.4000244
1172.296257	690.0
1172.849412	691.0
1173.402509	688.7999878
1173.955549	688.0
1174.508532	687.5999756
1175.061458	685.2000122
1175.614327	686.0
1176.167138	689.7999878
1176.719893	689.2000122
1177.272591	687.7999878
1177.825232	689.4000244
1178.377816	691.4000244
1178.930342	689.4000244
1179.482812	686.5999756
1180.035225	690.5999756
1180.587581	686.4000244
1181.139879	690.0
1181.692121	686.2000122
1182.244306	685.7999878
1182.796434	687.5999756
1183.348504	690.0
1183.900518	690.0
1184.452475	689.2000122
1185.004375	689.2000122
1185.556218	691.4000244
1186.108004	685.2000122
1186.659733	686.4000244
1187.211405	686.7999878
1187.76302	684.0
1188.314578	687.2000122
1188.866079	687.7999878
1189.417523	688.2000122
1189.96891	690.0
1190.520241	691.0
1191.071514	687.4000244
1191.622731	690.4000244
1192.17389	687.4000244
1192.724993	687.5999756
1193.276039	707.4000244
1193.827027	689.5999756
1194.377959	686.7999878
1194.928834	688.7999878
1195.479653	691.4000244
1196.030414	689.2000122
1196.581118	690.4000244
1197.131766	688.4000244
1197.682356	687.5999756
1198.23289	682.2000122
1198.783367	689.2000122
1199.333786	690.5999756
1199.88415	689.5999756
1200.434456	690.2000122
1200.984705	687.5999756
1201.534898	688.5999756
1202.085033	689.0
1202.635112	686.7999878
1203.185134	690.7999878
1203.735099	693.2000122
1204.285007	689.7999878
1204.834859	696.4000244
1205.384653	690.2000122
1205.934391	690.0
1206.484072	690.4000244
1207.033696	689.5999756
1207.583263	690.4000244
1208.132774	690.7999878
1208.682228	687.0
1209.231624	690.0
1209.780965	690.0
1210.330248	686.4000244
1210.879474	687.7999878
1211.428644	688.7999878
1211.977757	688.2000122
1212.526813	687.0
1213.075813	690.0
1213.624755	689.7999878
1214.173641	692.7999878
1214.72247	691.5999756
1215.271242	693.7999878
1215.819958	693.0
1216.368617	691.2000122
1216.917219	689.0
1217.465764	690.7999878
1218.014253	689.5999756
1218.562685	687.2000122
1219.11106	688.5999756
1219.659378	690.0
1220.20764	692.7999878
1220.755845	690.0
1221.303993	691.0
1221.852085	691.7999878
1222.400119	692.7999878
1222.948097	692.4000244
1223.496019	691.4000244
1224.043883	690.4000244
1224.591691	689.0
1225.139443	692.4000244
1225.687137	691.2000122
1226.234775	687.2000122
1226.782357	687.5999756
1227.329881	692.0
1227.877349	691.5999756
1228.42476	690.5999756
1228.972115	688.7999878
1229.519413	691.2000122
1230.066654	692.4000244
1230.613839	690.5999756
1231.160967	690.5999756
1231.708038	694.0
1232.255053	689.2000122
1232.802011	686.5999756
1233.348912	692.0
1233.895757	693.2000122
1234.442545	693.4000244
1234.989277	694.4000244
1235.535951	688.4000244
1236.08257	694.2000122
1236.629131	692.5999756
1237.175636	694.0
1237.722085	694.7999878
1238.268477	693.7999878
1238.814812	688.7999878
1239.361091	689.2000122
1239.907313	686.7999878
1240.453478	686.5999756
1240.999587	692.5999756
1241.54564	689.7999878
1242.091636	692.4000244
1242.637575	695.0
1243.183457	690.7999878
1243.729284	692.7999878
1244.275053	691.7999878
1244.820766	692.5999756
1245.366423	694.2000122
1245.912022	694.2000122
1246.457566	694.2000122
1247.003053	692.4000244
1247.548483	696.5999756
1248.093857	692.4000244
1248.639174	692.5999756
1249.184435	695.5999756
1250.819878	697.0
1251.364912	695.2000122
1251.909891	697.5999756
1252.454812	693.7999878
1252.999677	697.4000244
1253.544486	695.0
1254.089238	695.0
1254.633934	698.7999878
1255.178573	695.0
1255.723156	698.5999756
1256.267682	700.2000122
1256.812152	701.7999878
1257.356565	705.0
1257.900922	706.7999878
1258.445223	701.5999756
1258.989467	707.4000244
1259.533654	713.0
1260.077785	726.5999756
1260.62186	715.7999878
1261.165878	720.5999756
1261.70984	725.0
1262.253745	732.4000244
1262.797594	732.2000122
1263.341386	733.7999878
1263.885123	722.7999878
1264.428802	723.5999756
1264.972425	717.4000244
1265.515992	711.5999756
1266.059503	710.7999878
1266.602957	710.0
1267.146354	706.4000244
1267.689696	699.4000244
1268.23298	710.7999878
1268.776209	702.4000244
1269.319381	704.7999878
1269.862497	708.5999756
1270.405556	706.5999756
1270.948559	705.2000122
1271.491506	702.4000244
1272.034396	704.7999878
1272.57723	705.0
1273.120007	705.0
1273.662728	707.2000122
1274.205393	702.5999756
1274.748002	707.2000122
1275.290554	709.0
1275.83305	708.7999878
1276.375489	708.2000122
1276.917872	714.7999878
1277.460199	717.5999756
1278.00247	713.0
1278.544684	727.0
1279.086842	730.2000122
1279.628943	745.2000122
1280.170989	776.2000122
1280.712978	809.7999878
1281.25491	909.4000244
1281.796787	1117.400024
1282.338607	1407.599976
1282.880371	1507.800049
1283.422078	1270.199951
1283.963729	1007.799988
1284.505324	863.7999878
1285.046863	786.7999878
1285.588345	762.2000122
1286.129772	744.5999756
1286.671142	730.5999756
1287.212455	722.7999878
1287.753713	724.5999756
1288.294914	718.0
1288.836059	712.2000122
1289.377147	709.4000244
1289.91818	708.5999756
1290.459156	710.7999878
1291.000076	708.2000122
1291.54094	707.2000122
1292.081747	704.2000122
1292.622499	701.5999756
1293.163194	701.2000122
1293.703833	705.5999756
1294.244415	701.4000244
1294.784942	702.5999756
1295.325412	701.2000122
1295.865826	703.5999756
1296.406184	702.7999878
1296.946486	705.0
1297.486731	702.7999878
1298.026921	699.4000244
1298.567054	699.2000122
1299.107131	700.5999756
1299.647152	699.2000122
1300.187116	704.2000122
1300.727025	701.0
1301.266877	698.4000244
1301.806673	700.0
1302.346413	698.7999878
1302.886097	699.2000122
1303.425725	699.7999878
1303.965297	699.0
1304.504812	701.2000122
1305.044272	698.4000244
1305.583675	702.7999878
1306.123022	699.0
1306.662313	703.5999756
1307.201548	695.0
1307.740727	700.5999756
1308.279849	694.7999878
1308.818916	698.2000122
1309.357926	700.5999756
1309.896881	696.4000244
1310.435779	699.2000122
1310.974621	698.2000122
1311.513407	699.2000122
1312.052137	699.0
1312.590811	699.4000244
1313.129429	699.5999756
1313.667991	694.5999756
1314.206497	698.5999756
1314.744946	699.4000244
1315.28334	695.7999878
1315.821678	697.0
1316.359959	699.5999756
1316.898184	700.2000122
1317.974467	693.7999878
1318.512525	696.0
1319.050526	696.0
1319.588471	697.2000122
1320.12636	698.4000244
1320.664194	691.4000244
1321.201971	694.2000122
1321.739692	696.2000122
1322.277357	697.0
1322.814967	697.2000122
1323.35252	696.2000122
1323.890017	698.4000244
1324.427458	695.0
1324.964843	694.2000122
1325.502173	695.2000122
1326.039446	701.0
1326.576663	691.4000244
1327.113824	694.7999878
1327.65093	695.0
1328.187979	700.0
1328.724972	696.7999878
1329.26191	695.4000244
1329.798791	695.0
1330.335617	695.4000244
1330.872386	692.4000244
1331.4091	694.0
1331.945758	694.2000122
1332.48236	698.0
1333.018905	696.2000122
1333.555395	697.7999878
1334.091829	693.5999756
1334.628207	698.4000244
1335.164529	696.0
1335.700796	692.7999878
1336.237006	697.5999756
1336.77316	695.5999756
1337.309259	698.4000244
1337.845301	696.0
1338.381288	695.5999756
1338.917219	698.7999878
1339.453094	696.7999878
1339.988913	698.7999878
1340.524676	694.0
1341.060383	692.5999756
1341.596034	694.5999756
1342.13163	695.7999878
1342.66717	690.4000244
1343.202653	693.2000122
1343.738081	698.2000122
1344.273453	696.4000244
1344.80877	691.2000122
1345.34403	695.5999756
1345.879235	693.4000244
1346.414383	695.0
1346.949476	698.4000244
1347.484513	696.4000244
1348.019494	698.7999878
1348.55442	696.2000122
1349.089289	691.2000122
1349.624103	696.5999756
1350.158861	692.7999878
1350.693563	698.4000244
1351.228209	695.4000244
1351.7628	698.7999878
1352.297334	695.7999878
1352.831813	700.7999878
1353.366236	693.5999756
1353.900604	692.2000122
1354.434915	695.0
1354.969171	695.4000244
1355.503371	697.7999878
1356.037515	698.2000122
1356.571604	697.0
1357.105636	698.7999878
1357.639613	696.7999878
1358.173535	700.4000244
1358.7074	695.2000122
1359.24121	697.2000122
1359.774964	701.5999756
1360.308662	698.0
1360.842304	696.5999756
1361.375891	698.4000244
1361.909422	703.0
1362.442897	702.5999756
1362.976317	698.2000122
1363.50968	702.4000244
1364.042989	700.4000244
1364.576241	703.4000244
1365.109438	703.4000244
1365.642579	697.5999756
1366.175664	699.4000244
1366.708693	701.0
1367.241667	701.0
1367.774585	700.2000122
1368.307448	702.5999756
1368.840255	714.5999756
1369.373006	729.7999878
1369.905701	730.7999878
1370.438341	709.4000244
1370.970925	704.7999878
1371.503454	703.0
1372.035926	705.0
1372.568344	709.5999756
1373.100705	703.4000244
1373.633011	704.4000244
1374.165261	703.7999878
1374.697456	706.4000244
1375.229595	706.7999878
1375.761678	707.2000122
1376.293705	710.5999756
1376.825677	712.4000244
1377.357594	709.5999756
1377.889455	709.4000244
1378.42126	708.7999878
1378.953009	712.4000244
1379.484703	711.0
1380.016342	716.0
1380.547924	717.2000122
1381.079452	722.5999756
1381.610923	727.5999756
1382.142339	729.0
1382.673699	739.7999878
1383.205004	744.7999878
1383.736253	763.0
1384.267447	781.5999756
1384.798585	817.4000244
1385.329668	886.2000122
1385.860695	1034.800049
1386.391666	1402.800049
1386.922582	2035.199951
1387.453442	2304.600098
1387.984247	1705.199951
1388.514996	1161.0
1389.04569	930.4000244
1389.576328	833.0
1390.10691	790.4000244
1390.637437	766.0
1391.167909	747.5999756
1391.698325	734.7999878
1392.228685	729.4000244
1392.75899	727.7999878
1393.28924	719.4000244
1393.819434	718.4000244
1394.349572	721.0
1394.879655	714.4000244
1395.409683	713.0
1395.939655	715.2000122
1396.469571	713.4000244
1396.999432	711.2000122
1397.529237	707.7999878
1398.058987	710.2000122
1398.588682	706.2000122
1399.118321	711.4000244
1399.647905	709.0
1400.177433	706.4000244
1400.706906	711.4000244
1401.236323	711.2000122
1401.765685	710.7999878
1402.294991	710.7999878
1402.824242	709.5999756
1403.353437	711.0
1403.882577	708.4000244
1404.411662	713.5999756
1404.940691	719.4000244
1405.469665	720.4000244
1405.998583	723.4000244
1406.527446	726.4000244
1407.056253	737.0
1407.585005	751.2000122
1408.113702	754.2000122
1408.642343	767.7999878
1409.170929	767.4000244
1409.69946	754.4000244
1410.227935	746.0
1410.756354	731.4000244
1411.284719	719.5999756
1411.813028	713.4000244
1412.341281	707.4000244
1412.869479	708.4000244
1413.397622	709.0
1413.92571	701.2000122
1414.453742	702.5999756
1414.981718	699.0
1415.50964	704.7999878
1416.037506	699.0
1416.565316	697.2000122
1417.093072	692.7999878
1417.620772	697.0
1418.148416	700.0
1418.676005	697.7999878
1419.203539	697.2000122
1419.731018	693.2000122
1420.258441	695.4000244
1420.785809	696.5999756
1421.313122	695.4000244
1421.840379	694.5999756
1422.367582	696.7999878
1422.894728	698.7999878
1423.42182	696.7999878
1423.948856	693.2000122
1424.475837	697.2000122
1425.002762	697.4000244
1425.529633	695.2000122
1426.056448	696.4000244
1426.583207	695.7999878
1427.109912	694.4000244
1427.636561	696.5999756
1428.163155	697.0
1428.689694	691.5999756
1429.216177	689.2000122
1429.742605	695.4000244
1430.268978	693.7999878
1430.795296	688.5999756
1431.321558	694.4000244
1431.847765	693.0
1432.373917	689.5999756
1432.900014	691.0
1433.426056	688.0
1433.952042	692.4000244
1434.477973	692.2000122
1435.003849	692.7999878
1435.529669	693.2000122
1436.055435	690.0
1436.581145	691.0
1437.1068	690.4000244
1437.632399	693.7999878
1438.157944	690.7999878
1438.683433	689.4000244
1439.208868	691.0
1439.734247	688.5999756
1440.25957	692.5999756
1440.784839	692.5999756
1441.310053	688.5999756
1441.835211	691.0
1442.360314	690.7999878
1442.885362	688.2000122
1443.410355	688.7999878
1443.935292	694.7999878
1444.460175	689.5999756
1444.985002	692.2000122
1445.509774	692.4000244
1446.034491	690.7999878
1446.559153	691.0
1447.08376	689.5999756
1447.608312	693.0
1448.132808	687.5999756
1448.65725	690.2000122
1449.181636	691.7999878
1449.705967	689.4000244
1450.230243	689.0
1450.754464	691.7999878
1451.27863	689.2000122
1451.802741	692.4000244
1452.326797	689.0
1452.850797	689.2000122
1453.374743	693.4000244
1453.898633	691.0
1454.422468	691.7999878
1454.946249	690.7999878
1455.469974	687.7999878
1455.993644	690.7999878
1456.517259	689.7999878
1457.040819	687.0
1457.564324	691.0
1458.087773	690.2000122
1458.611168	689.5999756
1459.134508	687.4000244
1459.657793	691.0
1460.181022	687.0
1460.704197	689.2000122
1461.227316	691.2000122
1461.750381	688.4000244
1462.27339	692.5999756
1462.796345	706.0
1463.319244	700.2000122
1463.842089	692.2000122
1464.364878	688.0
1464.887613	690.2000122
1465.410292	689.0
1465.932916	691.2000122
1466.455486	686.4000244
1466.978	688.4000244
1467.50046	690.0
1468.022864	688.2000122
1468.545214	686.0
1469.067508	691.2000122
1469.589748	687.7999878
1470.111932	690.7999878
1470.634062	687.7999878
1471.156136	687.5999756
1471.678156	688.4000244
1472.20012	687.0
1472.72203	687.2000122
1473.243885	688.7999878
1473.765685	690.7999878
1474.28743	689.2000122
1474.80912	687.2000122
1475.330755	687.4000244
1475.852335	685.0
1476.37386	688.5999756
1476.89533	685.7999878
1477.416745	687.5999756
1477.938106	684.5999756
1478.459411	686.5999756
1478.980662	688.2000122
1479.501857	688.5999756
1480.022998	690.4000244
1480.544084	686.5999756
1481.065115	687.5999756
1481.586091	686.7999878
1482.107012	689.4000244
1482.627878	690.5999756
1483.14869	688.4000244
1483.669446	688.7999878
1484.190148	689.2000122
1484.710794	686.4000244
1485.231386	685.2000122
1485.751923	690.0
1486.272406	688.0
1486.792833	686.2000122
1487.313205	684.0
1487.833523	688.0
1488.353786	686.0
1488.873994	684.5999756
1489.394147	683.4000244
1489.914245	685.7999878
1490.434288	688.4000244
1490.954277	691.5999756
1491.474211	691.5999756
1491.99409	687.5999756
1492.513914	685.7999878
1493.033683	690.7999878
1493.553398	686.4000244
1494.073057	692.5999756
1494.592662	690.4000244
1495.112212	687.5999756
1495.631708	686.5999756
1496.151148	689.7999878
1496.670534	687.2000122
1497.189865	687.5999756
1497.709141	683.4000244
1498.228362	690.2000122
1498.747529	686.5999756
1499.266641	684.4000244
1499.785698	692.0
1500.3047	683.7999878
1500.823648	685.4000244
1501.34254	683.0
1501.861379	687.0
1502.380162	685.4000244
1502.89889	684.7999878
1503.417564	684.2000122
1503.936183	688.0
1504.454748	688.5999756
1504.973257	684.4000244
1505.491712	686.7999878
1506.010112	688.4000244
1506.528458	685.2000122
1507.046748	685.7999878
1507.564984	685.5999756
1508.083166	687.4000244
1508.601292	688.2000122
1509.119364	689.2000122
1509.637381	684.0
1510.155344	686.7999878
1510.673252	694.5999756
1511.191105	683.4000244
1511.708903	688.0
1512.226647	683.5999756
1512.744336	685.0
1513.261971	688.7999878
1513.77955	689.2000122
1514.297076	688.5999756
1514.814546	688.4000244
1515.331962	684.0
1515.849323	689.2000122
1516.366629	685.2000122
1516.883881	686.4000244
1517.401078	684.2000122
1517.918221	682.5999756
1518.435309	688.7999878
1518.952342	684.4000244
1519.469321	688.5999756
1519.986245	687.0
1520.503114	683.2000122
1521.019929	684.5999756
1521.536689	683.5999756
1522.053395	689.5999756
1522.570046	685.2000122
1523.086642	687.5999756
1523.603184	686.2000122
1524.119671	688.5999756
1524.636103	686.7999878
1525.152481	687.7999878
1525.668805	695.7999878
1526.185073	698.7999878
1526.701288	691.2000122
1527.217447	683.7999878
1527.733552	682.5999756
1528.249603	686.0
1528.765599	686.0
1529.28154	686.0
1529.797427	685.5999756
1530.313259	685.7999878
1530.829037	689.0
1531.34476	687.2000122
1531.860429	687.5999756
1532.376043	685.5999756
1532.891602	684.0
1533.407107	688.5999756
1533.922558	686.7999878
1534.437954	683.4000244
1534.953295	689.5999756
1535.468582	685.5999756
1535.983815	687.0
1536.498993	682.4000244
1537.014116	686.2000122
1537.529185	686.0
1538.044199	691.4000244
1538.559159	687.7999878
1539.074064	686.7999878
1539.588915	687.5999756
1540.103712	686.5999756
1540.618454	684.7999878
1541.133141	683.7999878
1541.647774	685.4000244
1542.162353	689.2000122
1542.676877	686.4000244
1543.191346	690.7999878
1543.705761	689.5999756
1544.220122	686.2000122
1544.734428	687.5999756
1545.24868	691.0
1545.762877	688.4000244
1546.27702	688.2000122
1546.791109	688.0
1547.305143	688.2000122
1547.819122	684.7999878
1548.333047	688.0
1548.846918	683.7999878
1549.360734	687.2000122
1549.874496	687.4000244
1550.388204	685.7999878
1550.901857	689.2000122
1551.415455	686.4000244
1551.929	690.0
1552.442489	690.2000122
1552.955925	683.7999878
1553.469306	690.7999878
1553.982632	686.5999756
1554.495905	687.2000122
1555.009123	687.0
1555.522286	687.2000122
1556.035395	688.5999756
1556.54845	689.5999756
1557.06145	687.2000122
1557.574396	687.5999756
1558.087288	685.4000244
1558.600125	689.2000122
1559.112908	689.5999756
1559.625637	686.2000122
1560.138311	686.4000244
1560.650931	686.7999878
1561.163497	691.2000122
1561.676008	687.0
1562.188465	687.4000244
1562.700867	686.5999756
1563.213216	685.5999756
1563.725509	687.0
1564.237749	689.0
1564.749934	685.5999756
1565.262065	689.7999878
1565.774142	691.4000244
1566.286164	689.5999756
1566.798132	686.7999878
1567.310046	685.4000244
1567.821906	691.2000122
1568.333711	687.4000244
1568.845462	688.7999878
1569.357158	690.2000122
1569.868801	688.0
1570.380389	687.7999878
1570.891922	689.2000122
1571.403402	688.7999878
1571.914827	689.0
1572.426198	686.5999756
1572.937515	685.4000244
1573.448777	684.2000122
1573.959985	687.0
1574.471139	686.4000244
1574.982239	685.4000244
1575.493285	686.7999878
1576.004276	689.2000122
1576.515213	688.7999878
1577.026096	684.4000244
1577.536924	691.2000122
1578.047698	687.5999756
1578.558419	691.2000122
1579.069084	687.7999878
1579.579696	686.2000122
1580.090254	690.2000122
1580.600757	690.4000244
1581.111206	685.2000122
1581.621601	687.2000122
1582.131941	687.0
1582.642228	689.4000244
1583.15246	691.0
1583.662638	690.5999756
1584.172762	689.2000122
1584.682832	688.0
1585.192847	686.5999756
1585.702809	689.2000122
1586.212716	687.7999878
1586.722569	686.5999756
1587.232368	690.4000244
1587.742113	688.7999878
1588.251803	687.2000122
1588.76144	688.7999878
1589.271022	683.4000244
1589.78055	687.5999756
1590.290024	691.4000244
1590.799444	688.7999878
1591.30881	684.2000122
1591.818121	684.4000244
1592.327379	685.4000244
