1042.414189	681.5
1042.980685	680.5
1043.547124	681.5
1044.113505	678.0
1044.679828	679.25
1045.246093	676.25
1045.8123	672.75
1046.378449	674.25
1046.94454	672.0
1047.510573	674.0
1048.076548	674.5
1048.642465	676.25
1049.208325	672.5
1049.774126	674.25
1050.339869	671.75
1050.905555	675.5
1051.471183	671.75
1052.036752	672.0
1052.602264	673.0
1053.167718	671.25
1053.733114	672.75
1054.298452	670.5
1054.863733	669.25
1055.428955	672.25
1055.994119	671.25
1056.559226	670.75
1057.124275	670.0
1057.689266	670.75
1058.254199	668.25
1058.819074	669.25
1059.383891	669.25
1059.94865	672.25
1060.513352	668.0
1061.077996	671.0
1061.642582	670.75
1062.20711	667.75
1062.77158	667.75
1063.335992	669.5
1063.900347	670.0
1064.464643	667.25
1065.028882	668.0
1065.593063	669.5
1066.157187	669.75
1066.721252	671.25
1067.28526	669.0
1067.84921	668.0
1068.413102	668.25
1068.976936	670.0
1069.540713	670.75
1070.104431	676.25
1070.668092	669.5
1071.231696	671.25
1071.795241	674.0
1072.358729	669.25
1072.922159	668.25
1073.485531	667.75
1074.048845	669.0
1074.612102	666.75
1075.175301	668.5
1075.738442	669.25
1076.301525	668.75
1076.864551	668.25
1077.427519	666.0
1077.990429	665.5
1078.553281	670.75
1079.116076	665.25
1079.678813	668.25
1080.241492	669.5
1080.804114	665.0
1081.366678	666.0
1081.929184	668.25
1082.491633	670.0
1083.054024	666.0
1083.616357	669.0
1084.178632	668.75
1084.74085	670.0
1085.30301	669.75
1085.865113	669.5
1086.427158	667.5
1086.989145	666.75
1087.551074	666.0
1088.112946	669.25
1088.67476	664.75
1089.236517	670.0
1089.798216	668.0
1090.359857	669.25
1090.92144	671.0
1091.482966	665.75
1092.044435	665.0
1092.605845	666.0
1093.167199	668.75
1093.728494	667.25
1094.289732	668.0
1094.850912	666.25
1095.412035	686.0
1095.9731	668.75
1096.534107	668.0
1097.095057	672.75
1097.65595	664.5
1098.216784	667.0
1098.777561	665.25
1099.338281	666.0
1099.898943	669.0
1100.459547	668.5
1101.020094	669.0
1101.580584	665.5
1102.141015	670.5
1102.701389	663.75
1103.261706	668.75
1103.821965	667.5
1104.382167	666.5
1104.942311	664.5
1105.502397	667.25
1106.062426	665.0
1106.622398	669.5
1107.182312	668.5
1107.742168	667.0
1108.301967	664.75
1108.861708	665.75
1109.421392	667.0
1109.981019	668.75
1110.540587	667.75
1111.100099	666.0
1111.659553	667.75
1112.218949	667.0
1112.778288	666.75
1113.33757	667.0
1113.896794	662.5
1114.45596	668.25
1115.015069	666.25
1115.574121	668.75
1116.133115	667.25
1116.692052	667.75
1117.250931	668.5
1117.809753	666.25
1118.368517	666.25
1118.927224	666.0
1119.485873	666.5
1120.044465	667.25
1120.603	669.5
1121.161477	664.75
1121.719897	666.25
1122.278259	665.75
1122.836564	665.5
1123.394812	668.5
1123.953002	668.0
1124.511135	666.25
1125.06921	666.5
1125.627228	667.75
1126.185189	665.0
1126.743092	666.25
1127.300938	665.0
1127.858726	666.25
1128.416457	666.0
1128.974131	667.0
1129.531748	664.0
1130.089307	668.25
1130.646808	668.25
1131.204252	668.5
1131.761639	665.5
1132.318969	666.0
1132.876241	665.0
1133.433456	666.75
1133.990614	664.75
1134.547714	666.5
1135.104757	668.75
1135.661743	668.5
1136.218671	665.5
1136.775542	668.0
1137.332356	667.5
1137.889112	669.25
1138.445811	668.75
1139.002453	667.25
1139.559037	666.75
1140.115565	666.5
1140.672035	666.75
1141.228447	665.0
1141.784803	667.5
1142.341101	668.5
1142.897342	666.0
1143.453525	670.0
1144.009651	667.25
1144.565721	669.0
1145.121732	670.25
1145.677687	664.25
1146.233584	669.5
1146.789424	667.25
1147.345207	668.5
1147.900933	663.5
1148.456601	668.25
1149.012212	666.5
1149.567766	666.5
1150.123263	666.25
1150.678702	666.25
1151.234085	667.5
1151.78941	665.0
1152.344678	667.5
1152.899888	669.0
1153.455042	665.5
1154.010138	667.75
1154.565177	668.75
1155.120159	671.75
1155.675084	666.25
1156.229951	666.5
1156.784762	665.0
1157.339515	669.25
1157.894211	666.5
1158.44885	666.0
1159.003432	665.25
1159.557956	667.25
1160.112424	669.0
1160.666834	665.5
1161.221187	668.5
1161.775483	669.0
1162.329722	670.25
1162.883904	665.75
1163.438029	666.0
1163.992096	666.75
1164.546107	667.75
1165.10006	662.25
1165.653956	664.75
1166.207795	667.5
1166.761577	665.0
1167.315302	667.75
1167.86897	667.5
1168.422581	665.75
1168.976134	666.75
1169.529631	667.0
1170.08307	666.75
1170.636453	665.75
1171.189778	663.5
1171.743046	666.0
1172.296257	666.0
1172.849412	662.0
1173.402509	665.5
1173.955549	665.5
1174.508532	665.75
1175.061458	666.75
1175.614327	664.75
1176.167138	666.5
1176.719893	662.75
1177.272591	666.25
1177.825232	664.0
1178.377816	665.5
1178.930342	665.75
1179.482812	666.5
1180.035225	663.5
1180.587581	666.75
1181.139879	663.75
1181.692121	666.0
1182.244306	666.5
1182.796434	665.25
1183.348504	668.25
1183.900518	670.0
1184.452475	667.75
1185.004375	667.75
1185.556218	668.0
1186.108004	664.25
1186.659733	667.75
1187.211405	666.75
1187.76302	666.75
1188.314578	668.5
1188.866079	667.0
1189.417523	668.75
1189.96891	664.0
1190.520241	667.5
1191.071514	666.75
1191.622731	663.0
1192.17389	666.0
1192.724993	668.25
1193.276039	688.75
1193.827027	665.75
1194.377959	665.0
1194.928834	663.75
1195.479653	667.25
1196.030414	661.75
1196.581118	664.75
1197.131766	666.25
1197.682356	668.75
1198.23289	668.25
1198.783367	668.5
1199.333786	668.5
1199.88415	668.5
1200.434456	664.25
1200.984705	665.5
1201.534898	665.75
1202.085033	665.5
1202.635112	665.0
1203.185134	667.75
1203.735099	664.5
1204.285007	666.25
1204.834859	666.5
1205.384653	665.5
1205.934391	666.25
1206.484072	665.5
1207.033696	666.0
1207.583263	664.75
1208.132774	666.0
1208.682228	667.5
1209.231624	667.0
1209.780965	665.5
1210.330248	664.75
1210.879474	666.0
1211.428644	666.25
1211.977757	665.75
1212.526813	666.5
1213.075813	666.0
1213.624755	670.5
1214.173641	665.5
1214.72247	664.5
1215.271242	666.25
1215.819958	662.5
1216.368617	667.0
1216.917219	669.25
1217.465764	665.5
1218.014253	665.5
1218.562685	665.75
1219.11106	666.0
1219.659378	668.5
1220.20764	661.5
1220.755845	667.0
1221.303993	668.0
1221.852085	665.0
1222.400119	666.75
1222.948097	666.0
1223.496019	667.75
1224.043883	663.75
1224.591691	663.5
1225.139443	663.5
1225.687137	666.75
1226.234775	667.0
1226.782357	664.25
1227.329881	665.25
1227.877349	664.75
1228.42476	665.0
1228.972115	664.75
1229.519413	664.75
1230.066654	664.25
1230.613839	664.0
1231.160967	666.5
1231.708038	668.25
1232.255053	666.0
1232.802011	665.75
1233.348912	669.0
1233.895757	665.75
1234.442545	668.5
1234.989277	667.0
1235.535951	667.5
1236.08257	668.0
1236.629131	666.0
1237.175636	665.25
1237.722085	666.5
1238.268477	666.0
1238.814812	665.75
1239.361091	665.5
1239.907313	662.0
1240.453478	669.0
1240.999587	665.0
1241.54564	664.0
1242.091636	664.5
1242.637575	666.25
1243.183457	665.25
1243.729284	663.25
1244.275053	666.25
1244.820766	666.0
1245.366423	666.25
1245.912022	665.75
1246.457566	664.25
1247.003053	662.5
1247.548483	664.5
1248.093857	665.5
1248.639174	666.25
1249.184435	664.5
1249.729639	666.5
1250.274787	664.5
1250.819878	666.25
1251.364912	665.0
1251.909891	666.0
1252.454812	663.0
1252.999677	665.0
1253.544486	663.25
1254.089238	666.0
1254.633934	666.25
1255.178573	668.25
1255.723156	666.5
1256.267682	664.75
1256.812152	664.75
1257.356565	666.5
1257.900922	665.25
1258.445223	665.25
1258.989467	665.5
1259.533654	668.0
1260.077785	681.5
1260.62186	665.0
1261.165878	664.25
1261.70984	664.75
1262.253745	664.25
1262.797594	666.0
1263.341386	668.0
1263.885123	667.5
1264.428802	667.5
1264.972425	671.25
1265.515992	673.75
1266.059503	669.75
1266.602957	664.0
1267.146354	667.25
1267.689696	666.5
1268.23298	666.0
1268.776209	665.75
1269.319381	663.5
1269.862497	663.0
1270.405556	666.5
1270.948559	665.5
1271.491506	663.75
1272.034396	661.25
1272.57723	664.0
1273.120007	665.0
1273.662728	664.75
1274.205393	665.5
1274.748002	666.0
1275.290554	663.75
1275.83305	667.5
1276.375489	662.75
1276.917872	664.0
1277.460199	666.25
1278.00247	660.75
1278.544684	666.25
1279.086842	664.75
1279.628943	665.75
1280.170989	663.5
1280.712978	666.0
1281.25491	667.0
1281.796787	669.0
1282.338607	666.0
1282.880371	668.0
1283.422078	674.25
1283.963729	679.5
1284.505324	706.5
1285.046863	767.5
1285.588345	782.75
1286.129772	716.25
1286.671142	682.0
1287.212455	670.75
1287.753713	668.75
1288.294914	663.75
1288.836059	666.5
1289.377147	665.0
1289.91818	665.0
1290.459156	665.75
1291.000076	665.25
1291.54094	663.0
1292.081747	664.25
1292.622499	664.25
1293.163194	664.5
1293.703833	665.25
1294.244415	666.25
1294.784942	662.75
1295.325412	662.75
1295.865826	662.75
1296.406184	666.0
1296.946486	666.0
1297.486731	664.75
1298.026921	664.75
1298.567054	667.75
1299.107131	663.5
1299.647152	664.75
1300.187116	662.25
1300.727025	665.25
1301.266877	666.25
1301.806673	665.5
1302.346413	665.25
1302.886097	665.5
1303.425725	665.5
1303.965297	664.5
1304.504812	665.25
1305.044272	666.0
1305.583675	665.25
1306.123022	663.0
1306.662313	667.75
1307.201548	663.25
1307.740727	664.0
1308.279849	666.25
1308.818916	662.75
1309.357926	665.0
1309.896881	662.75
1310.435779	662.25
1310.974621	665.25
1311.513407	666.0
1312.052137	663.5
1312.590811	663.25
1313.129429	664.5
1313.667991	663.0
1314.206497	663.25
1314.744946	663.0
1315.28334	666.0
1315.821678	665.0
1316.359959	665.0
1316.898184	665.75
1317.436354	665.25
1317.974467	662.0
1318.512525	665.25
1319.050526	664.5
1319.588471	662.75
1320.12636	662.5
1320.664194	662.5
1321.201971	664.75
1321.739692	662.75
1322.277357	663.25
1322.814967	663.5
1323.35252	662.5
1323.890017	670.5
1324.427458	663.5
1324.964843	665.5
1325.502173	663.75
1326.039446	666.0
1326.576663	665.25
1327.113824	663.25
1327.65093	666.5
1328.187979	666.25
1328.724972	663.25
1329.26191	663.5
1329.798791	662.75
1330.335617	662.75
1330.872386	665.75
1331.4091	661.25
1331.945758	662.75
1332.48236	664.75
1333.018905	663.5
1333.555395	665.25
1334.091829	664.0
1334.628207	664.5
1335.164529	664.25
1335.700796	663.75
1336.237006	663.0
1336.77316	664.0
1337.309259	666.0
1338.917219	663.25
1339.453094	665.0
1339.988913	667.0
1340.524676	663.75
1341.060383	662.0
1341.596034	665.75
1342.13163	662.5
1342.66717	664.25
1343.202653	664.0
1343.738081	667.5
1344.273453	663.0
1344.80877	664.25
1345.34403	666.5
1345.879235	664.5
1346.414383	663.25
1346.949476	666.25
1347.484513	665.0
1348.019494	665.75
1348.55442	665.5
1349.089289	662.5
1349.624103	665.5
1350.158861	662.75
1350.693563	666.75
1351.228209	663.25
1351.7628	664.5
1352.297334	663.75
1352.831813	664.25
1353.366236	664.0
1353.900604	662.5
1354.434915	666.75
1354.969171	666.25
1355.503371	665.25
1356.037515	662.75
1356.571604	663.5
1357.105636	668.75
1357.639613	667.25
1358.173535	665.75
1358.7074	664.25
1359.24121	665.0
1359.774964	665.25
1360.308662	664.25
1360.842304	666.25
1361.375891	664.0
1361.909422	661.5
1362.442897	666.25
1362.976317	667.0
1363.50968	662.5
1364.042989	666.5
1364.576241	663.5
1365.109438	665.25
1365.642579	663.0
1366.175664	665.75
1366.708693	665.5
1367.241667	662.25
1367.774585	663.75
1368.307448	667.25
1368.840255	664.5
1369.373006	663.75
1369.905701	666.0
1370.438341	667.75
1370.970925	669.25
1371.503454	667.0
1372.035926	663.25
1372.568344	663.5
1373.100705	665.75
1373.633011	661.25
1374.165261	664.5
1374.697456	663.25
1375.229595	664.5
1375.761678	664.5
1376.293705	664.75
1376.825677	665.25
1377.357594	664.5
1377.889455	663.0
1378.42126	666.5
1378.953009	661.25
1379.484703	662.5
1380.016342	667.25
1380.547924	662.75
1381.079452	666.25
1381.610923	664.5
1382.142339	663.75
1382.673699	663.75
1383.205004	665.5
1383.736253	664.75
1384.267447	664.75
1384.798585	665.25
1385.329668	666.0
1385.860695	667.0
1386.391666	673.0
1386.922582	669.75
1387.453442	683.75
1387.984247	723.25
1388.514996	859.25
1389.04569	859.0
1389.576328	722.0
1390.10691	679.0
1390.637437	668.5
1391.167909	668.25
1391.698325	667.75
1392.228685	666.75
1392.75899	666.75
1393.28924	666.0
1393.819434	669.25
1394.349572	665.25
1394.879655	663.0
1395.409683	665.75
1395.939655	665.0
1396.469571	664.0
1396.999432	667.0
1397.529237	667.5
1398.058987	665.25
1398.588682	662.75
1399.118321	665.25
1399.647905	664.5
1400.177433	662.75
1400.706906	665.5
1401.236323	664.5
1401.765685	662.25
1402.294991	665.0
1402.824242	664.75
1403.353437	663.25
1403.882577	663.75
1404.411662	664.0
1404.940691	666.5
1405.469665	666.75
1405.998583	661.75
1406.527446	662.75
1407.056253	664.0
1407.585005	663.0
1408.113702	666.5
1408.642343	666.5
1409.170929	667.75
1409.69946	676.75
1410.227935	681.25
1410.756354	672.25
1411.284719	670.25
1411.813028	668.25
1412.341281	662.5
1412.869479	664.0
1413.397622	667.0
1413.92571	664.5
1414.453742	664.0
1414.981718	663.5
1415.50964	679.75
1416.037506	666.0
1416.565316	662.0
1417.093072	663.5
1417.620772	661.5
1418.148416	662.75
1418.676005	664.5
1419.203539	663.5
1419.731018	663.25
1420.258441	662.5
1420.785809	664.75
1421.313122	664.0
1421.840379	666.25
1422.367582	662.0
1422.894728	662.75
1423.42182	663.0
1423.948856	665.5
1424.475837	664.0
1425.002762	664.75
1425.529633	662.75
1426.056448	664.5
1426.583207	666.0
1427.109912	665.5
1427.636561	663.5
1428.163155	662.0
1428.689694	666.0
1429.216177	663.25
1429.742605	665.5
1430.268978	664.0
1430.795296	661.0
1431.321558	662.25
1431.847765	664.0
1432.373917	661.25
1432.900014	665.25
1433.426056	664.0
1433.952042	664.25
1434.477973	663.5
1435.003849	664.5
1435.529669	664.25
1436.055435	665.25
1436.581145	663.5
1437.1068	664.0
1437.632399	664.25
1438.157944	662.75
1438.683433	664.75
1439.208868	662.5
1439.734247	666.0
1440.25957	665.5
1440.784839	661.25
1441.310053	663.5
1441.835211	661.0
1442.360314	665.5
1442.885362	664.0
1443.410355	661.25
1443.935292	662.5
1444.460175	661.5
1444.985002	664.75
1445.509774	662.5
1446.034491	665.5
1446.559153	661.5
1447.08376	665.5
1447.608312	662.75
1448.132808	664.25
1448.65725	662.75
1449.181636	663.75
1449.705967	663.0
1450.230243	664.0
1450.754464	665.0
1451.27863	663.75
1451.802741	664.0
1452.326797	661.0
1452.850797	663.0
1453.374743	662.25
1453.898633	663.75
1454.422468	661.5
1454.946249	665.25
1455.469974	662.5
1455.993644	663.25
1456.517259	665.25
1457.040819	662.25
1457.564324	661.0
1458.087773	664.75
1458.611168	664.5
1459.134508	663.75
1459.657793	665.25
1460.181022	666.25
1460.704197	663.25
1461.227316	663.75
1461.750381	660.75
1462.27339	667.5
1462.796345	667.25
1463.319244	668.25
1463.842089	663.0
1464.364878	662.25
1464.887613	663.75
1465.410292	666.0
1465.932916	661.75
1466.455486	665.25
1466.978	663.25
1467.50046	664.75
1468.022864	664.75
1468.545214	665.5
1469.067508	663.75
1469.589748	663.25
1470.111932	664.5
1470.634062	664.5
1471.156136	662.25
1471.678156	663.0
1472.20012	665.75
1472.72203	660.75
1473.243885	664.25
1473.765685	663.25
1474.28743	663.5
1474.80912	664.0
1475.330755	664.5
1475.852335	666.0
1476.37386	663.25
1476.89533	663.0
1477.416745	661.75
1477.938106	662.0
1478.459411	663.0
1478.980662	663.5
1479.501857	661.25
1480.022998	664.0
1480.544084	665.0
1481.065115	667.75
1481.586091	663.5
1482.107012	661.75
1482.627878	663.75
1483.14869	664.5
1483.669446	665.0
1484.190148	664.5
1484.710794	663.0
1485.231386	664.5
1485.751923	665.5
1486.272406	662.75
1486.792833	660.0
1487.313205	662.5
1487.833523	661.5
1488.353786	662.25
1488.873994	662.75
1489.394147	664.75
1489.914245	662.75
1490.434288	663.5
1490.954277	662.0
1491.474211	661.5
1491.99409	661.0
1492.513914	661.75
1493.033683	663.75
1493.553398	664.25
1494.073057	664.0
1494.592662	661.0
1495.112212	664.75
1495.631708	660.5
1496.151148	663.5
1496.670534	664.25
1497.189865	661.25
1497.709141	665.0
1498.228362	663.25
1498.747529	661.25
1499.266641	661.75
1499.785698	672.75
1500.3047	665.0
1500.823648	664.0
1501.34254	664.5
1501.861379	662.0
1502.380162	661.5
1502.89889	662.25
1503.417564	662.5
1503.936183	661.75
1504.454748	665.0
1504.973257	662.0
1505.491712	664.0
1506.010112	662.75
1506.528458	660.75
1507.046748	664.25
1507.564984	664.0
1508.083166	662.0
1508.601292	664.25
1509.119364	664.75
1509.637381	662.5
1510.155344	664.75
1510.673252	670.75
1511.191105	660.25
1511.708903	663.75
1512.226647	662.0
1512.744336	663.75
1513.261971	663.75
1513.77955	662.25
1514.297076	663.75
1514.814546	662.0
1515.331962	657.25
1515.849323	663.75
1516.366629	662.25
1516.883881	662.5
1517.401078	663.25
1517.918221	665.0
1518.435309	661.75
1518.952342	661.5
1519.469321	661.25
1519.986245	660.25
1520.503114	660.5
1521.019929	664.75
1521.536689	664.0
1522.053395	662.25
1522.570046	662.75
1523.086642	663.0
1523.603184	663.5
1524.119671	663.0
1524.636103	664.5
1525.152481	662.25
1525.668805	665.5
1526.185073	665.75
1526.701288	664.25
1527.217447	664.0
1527.733552	663.5
1528.249603	662.0
1528.765599	662.5
1529.28154	665.25
1529.797427	664.0
1530.313259	659.25
1530.829037	661.25
1531.34476	661.25
1531.860429	661.25
1532.376043	660.25
1532.891602	662.25
1533.407107	660.25
1533.922558	662.5
1534.437954	662.75
1534.953295	663.0
1535.468582	660.0
1535.983815	664.0
1536.498993	662.25
1537.014116	658.75
1537.529185	662.25
1538.044199	663.0
1538.559159	664.5
1539.074064	660.5
1539.588915	661.5
1540.103712	663.25
1540.618454	659.0
1541.133141	662.0
1541.647774	660.5
1542.162353	665.75
1542.676877	659.25
1543.191346	661.25
1543.705761	664.5
1544.220122	661.0
1544.734428	660.25
1545.24868	661.25
1545.762877	663.75
1546.27702	661.0
1546.791109	663.0
1547.305143	662.75
1547.819122	660.5
1548.333047	663.75
1548.846918	664.0
1549.360734	662.25
1549.874496	659.25
1550.388204	661.5
1550.901857	662.5
1551.415455	660.25
1551.929	663.5
1552.442489	664.25
1552.955925	662.0
1553.469306	661.0
1553.982632	662.0
1554.495905	663.0
1555.009123	664.75
1555.522286	662.25
1556.035395	662.5
1556.54845	662.25
1557.06145	660.25
1557.574396	663.0
1558.087288	662.0
1558.600125	662.5
1559.112908	663.25
1559.625637	660.5
1560.138311	660.0
1560.650931	661.5
1561.163497	664.0
1561.676008	663.0
1562.188465	664.0
1562.700867	664.75
1563.213216	663.25
1563.725509	659.25
1564.237749	663.25
1564.749934	661.25
1565.262065	660.75
1565.774142	661.25
1566.286164	664.0
1566.798132	659.75
1567.310046	663.25
1567.821906	664.25
1568.333711	661.75
1568.845462	662.75
1569.357158	663.5
1569.868801	660.25
1570.380389	663.0
1570.891922	659.75
1571.403402	663.0
1571.914827	661.75
1572.426198	661.75
1572.937515	660.0
1573.448777	663.0
1573.959985	663.0
1574.471139	663.0
1574.982239	663.0
1575.493285	660.25
1576.004276	662.0
1576.515213	661.0
1577.026096	662.0
1577.536924	663.0
1578.047698	662.25
1578.558419	663.5
1579.069084	664.75
1579.579696	660.75
1580.090254	662.5
1580.600757	664.75
1581.111206	661.5
1581.621601	661.5
1582.131941	665.0
1582.642228	662.75
1583.15246	662.25
1583.662638	662.75
1584.172762	660.5
1584.682832	662.0
1585.192847	661.0
1585.702809	662.25
1586.212716	662.25
1586.722569	662.5
1587.232368	662.25
1587.742113	662.5
1588.251803	661.75
1588.76144	663.5
1589.271022	659.75
1589.78055	661.5
1590.290024	664.5
1590.799444	663.0
1591.30881	661.75
1591.818121	661.25
1592.327379	659.75
