1042.414189	717.75
1042.980685	716.0
1043.547124	711.0
1044.113505	712.0
1044.679828	717.5
1045.246093	709.75
1045.8123	707.0
1046.378449	707.75
1046.94454	715.5
1047.510573	708.0
1048.076548	708.0
1048.642465	704.0
1049.208325	707.5
1049.774126	706.25
1050.339869	704.5
1050.905555	702.5
1051.471183	701.0
1052.036752	701.75
1052.602264	707.5
1053.167718	706.25
1053.733114	702.75
1054.298452	703.25
1054.863733	699.75
1055.428955	699.0
1055.994119	702.5
1056.559226	702.75
1057.124275	705.25
1057.689266	705.5
1058.254199	706.5
1058.819074	696.0
1059.383891	700.0
1059.94865	704.0
1060.513352	702.0
1061.077996	700.0
1061.642582	696.0
1062.20711	702.25
1062.77158	698.0
1063.335992	705.0
1063.900347	699.5
1064.464643	691.25
1065.028882	698.0
1065.593063	700.5
1066.157187	703.75
1066.721252	699.0
1067.28526	698.5
1067.84921	695.25
1068.413102	703.5
1068.976936	700.25
1069.540713	697.5
1070.104431	706.25
1070.668092	704.0
1071.231696	696.25
1071.795241	699.0
1072.358729	700.5
1072.922159	700.5
1073.485531	699.5
1074.048845	698.75
1074.612102	694.5
1075.175301	698.5
1075.738442	697.75
1076.301525	698.0
1076.864551	701.0
1077.427519	701.25
1077.990429	700.25
1078.553281	699.25
1079.116076	698.5
1079.678813	695.0
1080.241492	701.5
1080.804114	696.25
1081.366678	701.25
1081.929184	703.25
1082.491633	706.75
1083.054024	699.5
1083.616357	699.75
1084.178632	702.5
1084.74085	700.75
1085.30301	699.5
1085.865113	701.5
1086.427158	701.5
1086.989145	701.75
1087.551074	702.25
1088.112946	697.5
1088.67476	701.25
1089.236517	699.75
1089.798216	706.25
1090.359857	698.25
1090.92144	700.25
1091.482966	698.5
1092.044435	698.0
1092.605845	695.75
1093.167199	694.75
1093.728494	699.5
1094.289732	699.75
1094.850912	698.25
1095.412035	717.5
1095.9731	699.5
1096.534107	697.75
1097.095057	706.0
1097.65595	699.25
1098.216784	696.75
1098.777561	697.5
1099.338281	698.5
1099.898943	698.75
1100.459547	700.5
1101.020094	699.5
1101.580584	697.0
1102.141015	703.0
1102.701389	698.75
1103.261706	700.0
1103.821965	705.0
1104.382167	696.25
1104.942311	701.5
1105.502397	708.75
1106.062426	701.25
1106.622398	705.75
1107.182312	710.25
1107.742168	704.75
1108.301967	710.5
1108.861708	710.75
1109.421392	707.5
1109.981019	714.25
1110.540587	709.75
1111.100099	710.0
1111.659553	715.0
1112.218949	711.0
1112.778288	715.5
1113.33757	713.0
1113.896794	713.75
1114.45596	717.0
1115.015069	713.25
1115.574121	705.0
1116.133115	712.5
1116.692052	705.75
1117.250931	704.5
1117.809753	706.0
1118.368517	703.5
1118.927224	705.25
1119.485873	703.25
1120.044465	702.75
1120.603	702.25
1121.161477	698.0
1121.719897	701.5
1122.278259	703.0
1122.836564	699.25
1123.394812	703.0
1123.953002	708.75
1124.511135	702.0
1125.06921	701.0
1125.627228	695.5
1126.185189	699.25
1126.743092	701.75
1127.300938	700.25
1127.858726	696.5
1128.416457	696.25
1128.974131	698.5
1129.531748	701.75
1130.089307	698.0
1130.646808	697.5
1131.204252	703.0
1131.761639	698.75
1132.318969	697.75
1132.876241	698.0
1133.433456	696.5
1133.990614	697.75
1134.547714	699.25
1135.104757	697.5
1135.661743	696.75
1136.218671	701.5
1136.775542	697.0
1137.332356	699.0
1137.889112	699.0
1138.445811	700.0
1139.002453	697.25
1139.559037	696.0
1140.115565	697.5
1140.672035	698.5
1141.228447	696.25
1141.784803	695.0
1142.341101	699.75
1142.897342	701.5
1143.453525	697.5
1144.009651	704.0
1144.565721	700.75
1145.121732	697.25
1145.677687	695.5
1146.233584	700.75
1146.789424	704.5
1147.345207	701.25
1147.900933	702.0
1148.456601	699.75
1149.012212	704.5
1149.567766	710.0
1150.123263	730.25
1150.678702	712.25
1151.234085	701.5
1151.78941	696.75
1152.344678	699.25
1152.899888	697.25
1153.455042	698.25
1154.010138	702.0
1154.565177	697.5
1155.120159	706.0
1155.675084	700.0
1156.229951	699.25
1156.784762	696.5
1157.339515	698.25
1157.894211	695.25
1158.44885	697.0
1159.003432	697.75
1159.557956	698.5
1160.112424	699.25
1160.666834	693.25
1161.221187	696.75
1161.775483	696.75
1162.329722	699.5
1162.883904	703.0
1163.438029	697.25
1163.992096	693.75
1164.546107	697.0
1165.10006	697.0
1165.653956	699.5
1166.207795	698.0
1166.761577	697.75
1167.315302	697.25
1167.86897	693.75
1168.422581	696.75
1168.976134	696.25
1169.529631	700.0
1170.08307	696.0
1170.636453	696.75
1171.189778	697.75
1171.743046	703.75
1172.296257	845.25
1172.849412	696.25
1173.402509	695.75
1173.955549	698.5
1174.508532	697.5
1175.061458	697.75
1175.614327	697.25
1176.167138	698.5
1176.719893	694.25
1177.272591	698.75
1177.825232	701.25
1178.377816	701.25
1178.930342	699.0
1179.482812	705.75
1180.035225	701.25
1180.587581	702.0
1181.139879	703.25
1181.692121	701.25
1182.244306	706.0
1182.796434	702.0
1183.348504	702.5
1183.900518	704.5
1184.452475	703.5
1185.004375	709.5
1185.556218	708.5
1186.108004	708.75
1186.659733	705.75
1187.211405	711.25
1187.76302	707.25
1188.314578	703.75
1188.866079	704.5
1189.417523	702.25
1189.96891	703.75
1190.520241	702.75
1191.071514	701.25
1191.622731	703.75
1192.17389	698.75
1192.724993	701.0
1193.276039	723.25
1193.827027	701.75
1194.377959	698.75
1194.928834	701.75
1195.479653	696.25
1196.030414	695.25
1196.581118	699.75
1197.131766	700.0
1197.682356	700.25
1198.23289	699.5
1198.783367	694.0
1199.333786	694.5
1199.88415	697.5
1200.434456	696.75
1200.984705	692.75
1201.534898	694.5
1202.085033	694.25
1202.635112	696.75
1203.185134	696.25
1203.735099	695.75
1204.285007	696.5
1204.834859	693.25
1205.384653	694.5
1205.934391	697.25
1206.484072	695.75
1207.033696	697.0
1207.583263	700.25
1208.132774	697.5
1208.682228	697.75
1209.231624	699.25
1209.780965	698.75
1210.330248	696.5
1210.879474	698.0
1211.428644	698.5
1211.977757	698.25
1212.526813	700.25
1213.075813	699.0
1213.624755	699.75
1214.173641	704.25
1214.72247	703.5
1215.271242	703.25
1215.819958	704.0
1216.368617	696.25
1216.917219	701.25
1217.465764	698.5
1218.014253	704.5
1218.562685	698.0
1219.11106	707.0
1219.659378	703.5
1220.20764	702.5
1220.755845	698.75
1221.303993	699.0
1221.852085	703.0
1222.400119	701.25
1222.948097	705.75
1223.496019	707.25
1224.043883	705.25
1224.591691	704.0
1225.139443	699.25
1225.687137	702.0
1226.234775	706.75
1226.782357	701.75
1227.329881	704.5
1227.877349	708.0
1228.42476	702.75
1228.972115	707.25
1229.519413	707.5
1230.066654	705.5
1230.613839	704.5
1231.160967	706.5
1231.708038	709.25
1232.255053	702.75
1232.802011	703.0
1233.348912	708.5
1233.895757	702.75
1234.442545	707.75
1234.989277	701.5
1235.535951	702.5
1236.08257	704.0
1236.629131	703.0
1237.175636	703.0
1237.722085	702.25
1238.268477	706.5
1238.814812	707.5
1239.361091	704.5
1239.907313	709.75
1240.453478	705.0
1240.999587	700.25
1241.54564	702.25
1242.091636	701.75
1242.637575	706.75
1243.183457	701.25
1243.729284	704.0
1244.275053	698.0
1244.820766	705.0
1245.366423	707.25
1245.912022	707.0
1246.457566	705.75
1247.003053	704.0
1247.548483	704.75
1248.093857	704.0
1248.639174	707.75
1249.184435	705.5
1249.729639	706.0
1250.274787	705.5
1250.819878	704.75
1251.364912	706.75
1251.909891	705.0
1252.454812	702.75
1252.999677	706.0
1253.544486	706.75
1254.089238	706.25
1254.633934	706.5
1255.178573	705.75
1255.723156	705.75
1256.267682	706.75
1256.812152	709.5
1257.356565	708.25
1257.900922	706.5
1258.445223	719.0
1258.989467	708.5
1259.533654	711.25
1260.077785	727.75
1260.62186	715.25
1261.165878	714.75
1261.70984	718.5
1262.253745	726.5
1262.797594	723.5
1263.341386	730.25
1263.885123	737.25
1264.428802	725.25
1264.972425	726.0
1265.515992	720.0
1266.059503	715.5
1266.602957	709.75
1267.146354	712.75
1267.689696	706.25
1268.23298	709.5
1268.776209	708.5
1269.319381	704.0
1269.862497	705.5
1270.405556	705.0
1270.948559	710.0
1271.491506	703.0
1272.034396	708.0
1272.57723	708.0
1273.120007	703.75
1273.662728	702.5
1274.205393	705.25
1274.748002	707.25
1275.290554	706.25
1275.83305	710.75
1276.375489	706.0
1276.917872	706.75
1277.460199	709.25
1278.00247	711.75
1278.544684	711.75
1279.086842	716.0
1279.628943	719.25
1280.170989	724.0
1280.712978	734.75
1281.25491	753.25
1281.796787	793.5
1282.338607	881.0
1282.880371	1024.0
1283.422078	1160.75
1283.963729	1170.75
1284.505324	1042.25
1285.046863	888.75
1285.588345	794.5
1286.129772	757.75
1286.671142	739.5
1287.212455	728.0
1287.753713	719.25
1288.294914	719.75
1288.836059	718.5
1289.377147	711.0
1289.91818	710.75
1290.459156	712.75
1291.000076	711.0
1291.54094	710.25
1292.081747	715.75
1292.622499	708.5
1293.163194	709.5
1293.703833	711.25
1294.244415	709.5
1294.784942	712.5
1295.325412	711.25
1295.865826	710.25
1296.406184	709.5
1296.946486	713.25
1297.486731	710.25
1298.026921	711.25
1298.567054	708.75
1299.107131	709.5
1299.647152	705.5
1300.187116	712.25
1300.727025	706.75
1301.266877	706.5
1301.806673	704.5
1302.346413	712.25
1302.886097	710.0
1303.425725	707.5
1303.965297	702.25
1304.504812	705.25
1305.044272	709.5
1305.583675	705.5
1306.123022	705.25
1306.662313	704.25
1307.201548	704.75
1307.740727	709.5
1308.279849	703.25
1308.818916	708.25
1309.357926	703.5
1309.896881	705.0
1310.435779	707.75
1310.974621	702.75
1311.513407	703.75
1312.052137	700.75
1312.590811	707.75
1313.129429	703.0
1313.667991	699.25
1314.206497	701.5
1314.744946	706.5
1315.28334	700.75
1315.821678	698.5
1316.359959	700.5
1316.898184	703.25
1317.436354	704.5
1317.974467	700.0
1318.512525	700.0
1319.050526	700.75
1319.588471	701.25
1320.12636	700.75
1320.664194	699.5
1321.201971	702.0
1321.739692	700.75
1322.277357	699.5
1322.814967	699.25
1323.35252	708.25
1323.890017	702.75
1324.427458	699.25
1324.964843	702.5
1325.502173	700.0
1326.039446	701.75
1326.576663	701.0
1327.113824	699.25
1327.65093	705.25
1328.187979	698.25
1328.724972	699.0
1329.26191	701.0
1329.798791	698.75
1330.335617	696.25
1330.872386	698.5
1331.4091	697.25
1331.945758	702.0
1332.48236	700.75
1333.018905	700.25
1333.555395	699.0
1334.091829	702.5
1334.628207	701.25
1335.164529	702.0
1335.700796	697.75
1336.237006	697.5
1336.77316	697.5
1337.309259	701.25
1337.845301	701.25
1338.381288	700.75
1338.917219	696.25
1339.453094	699.25
1339.988913	695.25
1340.524676	699.75
1341.060383	698.5
1341.596034	701.75
1342.13163	701.5
1342.66717	699.5
1343.202653	700.75
1343.738081	701.0
1344.273453	700.25
1344.80877	696.5
1345.34403	700.0
1345.879235	695.0
1346.414383	701.5
1346.949476	697.75
1347.484513	699.5
1348.019494	698.0
1348.55442	702.75
1349.089289	697.25
1349.624103	703.75
1350.158861	701.0
1350.693563	697.25
1351.228209	701.5
1351.7628	698.0
1352.297334	697.5
1352.831813	702.0
1353.366236	701.25
1353.900604	697.0
1354.434915	698.5
1354.969171	697.0
1355.503371	699.75
1356.037515	701.0
1356.571604	699.5
1357.105636	702.25
1357.639613	697.75
1358.173535	698.75
1358.7074	700.25
1359.24121	702.5
1359.774964	702.75
1360.308662	699.25
1360.842304	704.75
1361.375891	697.5
1361.909422	699.75
1362.442897	698.25
1362.976317	699.75
1363.50968	700.5
1364.042989	698.75
1364.576241	701.75
1365.109438	705.25
1365.642579	704.25
1366.175664	704.25
1366.708693	703.75
1367.241667	703.5
1367.774585	696.75
1368.307448	703.5
1368.840255	706.75
1369.373006	711.75
1369.905701	719.5
1370.438341	712.5
1370.970925	704.0
1371.503454	700.5
1372.035926	706.25
1372.568344	702.75
1373.100705	706.25
1373.633011	703.0
1374.165261	703.0
1374.697456	708.25
1375.229595	700.25
1375.761678	704.25
1376.293705	705.0
1376.825677	707.25
1377.357594	707.75
1377.889455	710.5
1378.42126	705.25
1378.953009	711.25
1379.484703	704.5
1380.016342	710.5
1380.547924	712.75
1381.079452	715.25
1381.610923	710.5
1382.142339	714.5
1382.673699	715.5
1383.205004	728.25
1383.736253	723.75
1384.267447	730.0
1384.798585	749.75
1385.329668	762.25
1385.860695	810.5
1386.391666	910.0
1386.922582	1145.25
1387.453442	1570.75
1387.984247	1719.0
1388.514996	1302.75
1389.04569	951.0
1389.576328	818.75
1390.10691	772.75
1390.637437	743.5
1391.167909	733.0
1391.698325	728.5
1392.228685	715.75
1392.75899	713.5
1393.28924	713.25
1393.819434	713.5
1394.349572	710.25
1394.879655	713.5
1395.409683	714.75
1395.939655	704.5
1396.469571	710.25
1396.999432	706.5
1397.529237	705.25
1398.058987	708.0
1398.588682	704.0
1399.118321	704.25
1399.647905	708.5
1400.177433	708.0
1400.706906	707.75
1401.236323	706.0
1401.765685	702.5
1402.294991	705.5
1402.824242	707.75
1403.353437	702.5
1403.882577	706.25
1404.411662	712.25
1404.940691	711.0
1405.469665	711.0
1405.998583	706.25
1406.527446	714.25
1407.056253	720.0
1407.585005	727.0
1408.113702	735.0
1408.642343	739.0
1409.170929	746.0
1409.69946	750.5
1410.227935	742.25
1410.756354	728.75
1411.284719	716.5
1411.813028	709.0
1412.341281	710.25
1412.869479	709.25
1413.397622	704.25
1413.92571	701.5
1414.453742	703.0
1414.981718	698.5
1415.50964	712.25
1416.037506	701.75
1416.565316	696.25
1417.093072	699.75
1417.620772	696.25
1418.148416	702.0
1418.676005	698.0
1419.203539	702.75
1419.731018	699.75
1420.258441	702.25
1420.785809	702.25
1421.313122	697.25
1421.840379	698.5
1422.367582	698.5
1422.894728	699.25
1423.42182	701.0
1423.948856	696.25
1424.475837	701.75
1425.002762	701.5
1425.529633	695.5
1426.056448	698.5
1426.583207	698.25
1427.109912	696.0
1427.636561	701.25
1428.163155	695.75
1428.689694	699.0
1429.216177	697.75
1429.742605	696.25
1430.268978	696.75
1430.795296	694.0
1431.321558	697.5
1431.847765	700.5
1432.373917	696.75
1432.900014	698.75
1433.426056	696.75
1433.952042	702.25
1434.477973	697.75
1435.003849	697.0
1435.529669	697.5
1436.055435	698.75
1436.581145	696.5
1437.1068	697.5
1437.632399	697.5
1438.157944	697.0
1438.683433	698.5
1439.208868	696.75
1439.734247	703.0
1440.25957	700.0
1440.784839	700.5
1441.310053	706.25
1441.835211	703.75
1442.360314	693.0
1442.885362	703.0
1443.410355	702.25
1443.935292	702.0
1444.460175	699.25
1444.985002	696.75
1445.509774	698.75
1446.034491	696.5
1446.559153	699.5
1447.08376	699.25
1447.608312	701.25
1448.132808	702.0
1448.65725	698.75
1449.181636	698.75
1449.705967	699.75
1450.230243	699.5
1450.754464	696.5
1451.27863	699.25
1451.802741	702.0
1452.326797	697.5
1452.850797	697.0
1453.374743	695.5
1453.898633	699.5
1454.422468	697.75
1454.946249	699.25
1455.469974	699.0
1455.993644	701.0
1456.517259	697.25
1457.040819	701.25
1457.564324	696.25
1458.087773	699.0
1458.611168	697.25
1459.134508	695.5
1459.657793	702.0
1460.181022	699.5
1460.704197	699.5
1461.227316	697.25
1461.750381	699.5
1462.27339	704.5
1463.319244	719.0
1463.842089	698.75
1464.364878	697.75
1464.887613	698.5
1465.410292	702.25
1465.932916	694.5
1466.455486	697.75
1466.978	700.5
1467.50046	697.5
1468.022864	699.25
1468.545214	698.5
1469.067508	699.25
1469.589748	700.0
1470.111932	698.75
1470.634062	694.5
1471.156136	701.25
1471.678156	695.75
1472.20012	695.25
1472.72203	697.75
1473.243885	695.0
1473.765685	693.0
1474.28743	695.5
1474.80912	694.25
1475.330755	693.0
1475.852335	694.5
1476.37386	695.0
1476.89533	698.25
1477.416745	691.0
1477.938106	690.0
1478.459411	691.0
1478.980662	694.25
1479.501857	693.25
1480.022998	689.5
1480.544084	690.25
1481.065115	693.5
1481.586091	693.0
1482.107012	691.0
1482.627878	690.5
1483.14869	691.25
1483.669446	694.75
1484.190148	691.25
1484.710794	691.75
1485.231386	695.25
1485.751923	693.0
1486.272406	696.0
1486.792833	691.25
1487.313205	694.5
1487.833523	693.75
1488.353786	693.25
1488.873994	692.5
1489.394147	688.75
1489.914245	692.75
1490.434288	691.5
1490.954277	693.75
1491.474211	694.25
1491.99409	688.75
1492.513914	694.0
1493.033683	692.5
1493.553398	692.75
1494.073057	688.5
1494.592662	688.0
1495.112212	691.25
1495.631708	688.75
1496.151148	691.25
1496.670534	689.5
1497.189865	692.0
1497.709141	689.25
1498.228362	692.75
1498.747529	690.5
1499.266641	693.5
1499.785698	698.0
1500.3047	692.25
1500.823648	693.75
1501.34254	692.0
1501.861379	690.75
1502.380162	691.0
1502.89889	688.0
1503.417564	693.25
1503.936183	688.25
1504.454748	692.5
1504.973257	690.75
1505.491712	694.75
1506.010112	692.75
1506.528458	693.0
1507.046748	691.25
1507.564984	689.0
1508.083166	689.25
1508.601292	693.5
1509.119364	690.0
1509.637381	687.0
1510.155344	691.25
1510.673252	693.5
1511.191105	693.25
1511.708903	690.0
1512.226647	690.0
1512.744336	692.0
1513.261971	691.0
1513.77955	691.75
1514.297076	690.25
1514.814546	688.75
1515.331962	695.5
1515.849323	688.75
1516.366629	691.75
1516.883881	690.5
1517.401078	688.0
1517.918221	688.25
1518.435309	690.25
1518.952342	689.75
1519.469321	689.0
1519.986245	685.75
1520.503114	689.5
1521.019929	689.5
1521.536689	687.75
1522.053395	690.0
1522.570046	690.0
1523.086642	685.25
1523.603184	687.5
1524.119671	689.75
1524.636103	693.0
1525.152481	694.0
1525.668805	708.5
1526.185073	717.5
1526.701288	693.0
1527.217447	691.0
1527.733552	691.25
1528.249603	689.75
1528.765599	690.0
1529.28154	693.0
1529.797427	691.5
1530.313259	688.0
1530.829037	691.25
1531.34476	689.75
1531.860429	692.5
1532.376043	689.0
1532.891602	688.75
1533.407107	691.25
1533.922558	690.5
1534.437954	688.75
1534.953295	688.25
1535.468582	690.75
1535.983815	690.25
1536.498993	690.5
1537.014116	685.25
1537.529185	691.0
1538.044199	689.0
1538.559159	694.25
1539.074064	693.25
1539.588915	690.75
1540.103712	688.75
1540.618454	690.0
1541.133141	691.25
1541.647774	687.5
1542.162353	694.75
1542.676877	687.75
1543.191346	687.5
1543.705761	689.25
1544.220122	688.5
1544.734428	692.5
1545.24868	690.5
1545.762877	688.75
1546.27702	692.5
1546.791109	691.5
1547.305143	690.25
1547.819122	690.75
1548.333047	692.5
1548.846918	690.5
1549.360734	688.5
1549.874496	693.5
1550.388204	690.5
1550.901857	691.5
1551.415455	687.0
1551.929	692.0
1552.442489	687.25
1552.955925	693.25
1553.469306	689.75
1553.982632	691.5
1554.495905	690.75
1555.009123	687.75
1555.522286	693.5
1556.035395	690.5
1556.54845	690.5
1557.06145	691.0
1557.574396	690.75
1558.087288	692.75
1558.600125	691.5
1559.112908	691.0
1559.625637	690.25
1560.138311	690.25
1560.650931	691.25
1561.163497	695.25
1561.676008	685.75
1562.188465	690.75
1562.700867	691.75
1563.213216	692.75
1563.725509	688.0
1564.237749	693.75
1564.749934	689.75
1565.262065	696.75
1565.774142	694.75
1566.286164	694.5
1566.798132	698.0
1567.310046	695.5
1567.821906	694.25
1568.333711	693.5
1568.845462	688.25
1569.357158	693.5
1569.868801	692.5
1570.380389	693.5
1570.891922	694.25
1571.403402	691.5
1571.914827	688.75
1572.426198	691.5
1572.937515	690.25
1573.448777	693.0
1573.959985	690.75
1574.471139	690.25
1574.982239	692.25
1575.493285	691.5
1576.004276	694.5
1576.515213	691.0
1577.026096	690.5
1577.536924	691.5
1578.047698	690.0
1578.558419	691.75
1579.069084	690.0
1579.579696	688.25
1580.090254	696.25
1580.600757	692.5
1581.111206	692.5
1581.621601	689.25
1582.131941	693.5
1582.642228	691.5
1583.15246	695.5
1583.662638	694.75
1584.172762	689.0
1584.682832	689.0
1585.192847	698.0
1585.702809	692.5
1586.212716	697.0
1586.722569	696.25
1587.232368	690.5
1587.742113	689.25
1588.251803	688.5
1588.76144	691.0
1589.271022	688.25
1589.78055	688.75
1590.290024	687.75
1590.799444	689.5
1591.30881	690.25
1591.818121	694.5
1592.327379	692.5
