1042.414189	705.75
1042.980685	703.75
1043.547124	700.0
1044.113505	698.0
1044.679828	695.75
1045.246093	695.0
1045.8123	694.5
1046.378449	696.75
1046.94454	695.0
1047.510573	694.25
1048.076548	695.0
1048.642465	694.0
1049.208325	695.0
1049.774126	690.25
1050.339869	695.0
1050.905555	691.75
1051.471183	690.0
1052.036752	689.0
1052.602264	687.75
1053.167718	690.25
1053.733114	689.75
1054.298452	689.75
1054.863733	690.0
1055.428955	690.25
1055.994119	689.5
1056.559226	690.0
1057.124275	686.0
1057.689266	690.0
1058.254199	690.5
1058.819074	688.25
1059.383891	685.5
1059.94865	686.25
1060.513352	683.75
1061.077996	688.0
1061.642582	686.75
1062.20711	684.5
1062.77158	688.0
1063.335992	687.75
1063.900347	683.0
1064.464643	683.5
1065.028882	687.75
1065.593063	683.0
1066.157187	689.75
1066.721252	683.0
1067.28526	686.75
1067.84921	687.0
1068.413102	683.5
1068.976936	686.25
1069.540713	686.0
1070.104431	695.0
1070.668092	685.0
1071.231696	683.5
1071.795241	686.0
1072.358729	686.5
1072.922159	684.25
1073.485531	682.25
1074.048845	686.25
1074.612102	681.0
1075.175301	683.0
1075.738442	685.0
1076.301525	685.25
1076.864551	686.25
1077.427519	682.25
1077.990429	682.0
1078.553281	688.5
1079.116076	684.25
1079.678813	684.75
1080.241492	684.0
1080.804114	685.75
1081.366678	684.5
1081.929184	686.75
1082.491633	687.5
1083.054024	684.0
1083.616357	683.0
1084.178632	687.25
1084.74085	687.0
1085.30301	686.75
1085.865113	685.75
1086.427158	681.25
1086.989145	680.5
1087.551074	682.75
1088.112946	683.0
1088.67476	682.5
1089.236517	687.75
1089.798216	685.75
1090.359857	684.25
1090.92144	686.5
1091.482966	689.5
1092.044435	682.5
1092.605845	681.75
1093.167199	682.25
1093.728494	683.5
1094.289732	685.5
1094.850912	684.5
1095.412035	700.0
1095.9731	683.75
1096.534107	682.75
1097.095057	690.0
1097.65595	683.75
1098.216784	683.25
1098.777561	685.0
1099.338281	680.0
1099.898943	686.5
1100.459547	685.75
1101.020094	681.75
1101.580584	684.0
1102.141015	687.0
1102.701389	684.0
1103.261706	682.25
1103.821965	684.75
1104.382167	687.25
1104.942311	686.5
1105.502397	683.5
1106.062426	688.25
1106.622398	682.75
1107.182312	684.75
1107.742168	689.5
1108.301967	687.25
1108.861708	690.0
1109.421392	688.75
1109.981019	691.75
1110.540587	693.0
1111.100099	688.5
1111.659553	691.5
1112.218949	693.25
1112.778288	695.0
1113.33757	690.75
1113.896794	692.25
1114.45596	697.75
1115.015069	690.0
1115.574121	692.75
1116.133115	694.75
1116.692052	694.0
1117.250931	693.25
1117.809753	687.0
1118.368517	691.0
1118.927224	686.0
1119.485873	690.25
1120.044465	685.5
1120.603	684.0
1121.161477	686.25
1121.719897	684.75
1122.278259	685.5
1122.836564	685.25
1123.394812	683.5
1123.953002	684.25
1124.511135	680.75
1125.06921	683.75
1125.627228	683.0
1126.185189	686.0
1126.743092	686.25
1127.300938	685.25
1127.858726	679.75
1128.416457	689.0
1128.974131	685.5
1129.531748	685.25
1130.089307	687.0
1130.646808	681.75
1131.204252	684.25
1131.761639	683.0
1132.318969	686.5
1132.876241	679.5
1133.433456	683.75
1133.990614	686.5
1134.547714	683.75
1135.104757	680.25
1135.661743	686.25
1136.218671	684.5
1136.775542	682.25
1137.332356	680.75
1137.889112	686.0
1138.445811	686.0
1139.002453	682.5
1139.559037	685.25
1140.115565	682.25
1140.672035	684.0
1141.228447	682.5
1141.784803	684.75
1142.341101	682.75
1142.897342	686.0
1143.453525	684.5
1144.009651	686.75
1144.565721	686.0
1145.121732	682.0
1145.677687	684.5
1146.233584	684.5
1146.789424	682.25
1147.345207	682.0
1147.900933	682.5
1148.456601	686.25
1149.012212	685.0
1149.567766	686.5
1150.123263	683.75
1150.678702	681.75
1151.234085	680.75
1151.78941	684.25
1152.344678	683.25
1152.899888	686.25
1153.455042	686.75
1154.010138	681.5
1154.565177	685.5
1155.120159	683.75
1155.675084	681.5
1156.229951	681.25
1156.784762	682.5
1157.339515	681.5
1157.894211	678.75
1158.44885	682.5
1159.003432	683.5
1159.557956	682.0
1160.112424	684.0
1160.666834	684.5
1161.221187	680.75
1161.775483	682.0
1162.329722	684.75
1162.883904	683.5
1163.438029	683.5
1163.992096	682.5
1164.546107	685.75
1165.10006	683.75
1165.653956	681.75
1166.207795	681.5
1166.761577	685.75
1167.315302	680.75
1167.86897	680.75
1168.422581	686.0
1168.976134	683.75
1169.529631	680.25
1170.08307	683.0
1170.636453	681.25
1171.189778	684.0
1171.743046	681.75
1172.296257	684.25
1172.849412	680.75
1173.402509	684.25
1173.955549	683.0
1174.508532	683.25
1175.061458	683.5
1175.614327	682.0
1176.167138	683.5
1176.719893	684.25
1177.272591	684.75
1177.825232	683.75
1178.377816	685.25
1178.930342	686.25
1179.482812	686.0
1180.035225	687.5
1180.587581	686.5
1181.139879	687.0
1181.692121	684.75
1182.244306	686.0
1182.796434	685.5
1183.348504	688.75
1183.900518	687.0
1184.452475	687.25
1185.004375	688.5
1185.556218	691.25
1186.108004	688.25
1186.659733	688.5
1187.211405	683.25
1187.76302	684.75
1188.314578	691.25
1188.866079	687.0
1189.417523	688.25
1189.96891	684.5
1190.520241	686.75
1191.071514	681.25
1191.622731	685.75
1192.17389	682.75
1192.724993	686.5
1193.276039	710.0
1193.827027	684.0
1194.377959	685.5
1194.928834	686.5
1195.479653	683.0
1196.030414	687.25
1196.581118	680.0
1197.131766	682.75
1197.682356	684.0
1198.23289	681.5
1198.783367	683.25
1199.333786	681.25
1199.88415	679.0
1200.434456	681.5
1200.984705	683.75
1201.534898	683.5
1202.085033	680.75
1202.635112	686.0
1203.185134	686.5
1203.735099	685.75
1204.285007	682.75
1204.834859	682.25
1205.384653	681.75
1205.934391	687.25
1206.484072	685.25
1207.033696	684.5
1207.583263	685.0
1208.132774	682.25
1208.682228	686.0
1209.231624	684.75
1209.780965	687.0
1210.330248	682.0
1210.879474	685.75
1211.428644	684.75
1211.977757	685.25
1212.526813	687.0
1213.075813	685.25
1213.624755	685.25
1214.173641	686.0
1214.72247	687.0
1215.271242	682.75
1215.819958	683.0
1216.368617	685.25
1216.917219	686.0
1217.465764	683.25
1218.014253	684.5
1218.562685	686.75
1219.11106	690.25
1219.659378	687.0
1220.20764	684.5
1220.755845	689.75
1221.303993	682.25
1221.852085	688.75
1222.400119	687.0
1222.948097	685.75
1223.496019	687.25
1224.043883	690.0
1224.591691	687.5
1225.139443	686.5
1225.687137	688.0
1226.234775	684.75
1226.782357	686.0
1227.329881	688.25
1227.877349	685.75
1228.42476	686.0
1228.972115	689.75
1229.519413	685.5
1230.066654	691.75
1230.613839	687.25
1231.160967	687.0
1231.708038	691.25
1232.255053	687.5
1232.802011	686.5
1233.348912	687.75
1233.895757	682.75
1234.442545	687.75
1234.989277	686.0
1235.535951	685.25
1236.08257	691.0
1236.629131	688.75
1237.175636	686.0
1237.722085	689.5
1238.268477	684.75
1238.814812	687.0
1239.361091	686.75
1239.907313	684.75
1240.453478	684.5
1240.999587	685.5
1241.54564	684.0
1242.091636	685.75
1242.637575	690.25
1243.183457	686.75
1243.729284	685.75
1244.275053	685.5
1244.820766	689.0
1245.366423	688.25
1245.912022	686.5
1246.457566	686.5
1248.093857	756.5
1248.639174	685.5
1249.184435	689.25
1249.729639	690.5
1250.274787	691.75
1250.819878	690.25
1251.364912	687.0
1251.909891	687.5
1252.454812	690.75
1252.999677	690.25
1253.544486	688.0
1254.089238	690.0
1254.633934	693.0
1255.178573	688.0
1255.723156	688.75
1256.267682	688.5
1256.812152	688.5
1257.356565	684.75
1257.900922	690.5
1258.445223	687.5
1258.989467	692.5
1259.533654	696.75
1260.077785	703.0
1260.62186	687.25
1261.165878	690.25
1261.70984	694.25
1262.253745	693.75
1262.797594	697.75
1263.341386	695.5
1263.885123	711.75
1264.428802	717.25
1264.972425	719.0
1265.515992	715.5
1266.059503	707.75
1266.602957	699.5
1267.146354	695.75
1267.689696	694.75
1268.23298	692.25
1268.776209	690.5
1269.319381	692.0
1269.862497	687.25
1270.405556	686.75
1270.948559	689.5
1271.491506	690.0
1272.034396	690.0
1272.57723	687.25
1273.120007	688.0
1273.662728	687.5
1274.205393	687.5
1274.748002	685.25
1275.290554	689.75
1275.83305	688.75
1276.375489	690.0
1276.917872	688.25
1277.460199	690.5
1278.00247	688.25
1278.544684	693.5
1279.086842	688.0
1279.628943	689.5
1280.170989	692.25
1280.712978	697.0
1281.25491	691.5
1281.796787	698.25
1282.338607	711.0
1282.880371	732.5
1283.422078	769.0
1283.963729	869.75
1284.505324	1069.25
1285.046863	1265.25
1285.588345	1114.25
1286.129772	857.0
1286.671142	754.0
1287.212455	717.5
1287.753713	709.0
1288.294914	702.25
1288.836059	702.25
1289.377147	694.75
1289.91818	689.0
1290.459156	690.5
1291.000076	692.75
1291.54094	693.0
1292.081747	692.25
1292.622499	691.0
1293.163194	691.75
1293.703833	691.5
1294.244415	692.0
1294.784942	692.25
1295.325412	689.0
1295.865826	693.0
1296.406184	689.0
1296.946486	689.25
1297.486731	691.75
1298.026921	685.0
1298.567054	686.5
1299.107131	689.25
1299.647152	688.25
1300.187116	688.25
1300.727025	688.25
1301.266877	685.0
1301.806673	690.5
1302.346413	685.25
1302.886097	689.25
1303.425725	687.75
1303.965297	687.5
1304.504812	686.25
1305.044272	689.25
1305.583675	690.5
1306.123022	686.5
1306.662313	688.5
1307.201548	687.25
1307.740727	690.5
1308.279849	692.5
1308.818916	686.5
1309.357926	685.5
1309.896881	686.0
1310.435779	689.5
1310.974621	686.75
1311.513407	688.5
1312.052137	687.75
1312.590811	691.75
1313.129429	684.5
1313.667991	688.5
1314.206497	684.75
1314.744946	687.25
1315.28334	686.5
1315.821678	688.25
1316.359959	684.25
1316.898184	685.5
1317.436354	688.0
1317.974467	686.5
1318.512525	688.0
1319.050526	685.25
1319.588471	688.5
1320.12636	685.5
1320.664194	683.5
1321.201971	684.75
1321.739692	685.0
1322.277357	683.25
1322.814967	684.5
1323.35252	687.5
1323.890017	690.25
1324.427458	686.25
1324.964843	685.25
1325.502173	690.25
1326.039446	686.25
1326.576663	686.0
1327.113824	688.0
1327.65093	685.75
1328.187979	679.25
1328.724972	684.5
1329.26191	684.5
1329.798791	685.5
1330.335617	681.75
1330.872386	685.75
1331.4091	686.5
1331.945758	681.75
1332.48236	683.75
1333.018905	683.5
1333.555395	687.0
1334.091829	683.75
1334.628207	686.0
1335.164529	684.75
1335.700796	685.25
1336.237006	687.25
1336.77316	683.75
1337.309259	688.75
1337.845301	687.5
1338.381288	683.5
1338.917219	683.0
1339.453094	689.0
1339.988913	688.0
1340.524676	684.75
1341.060383	683.25
1341.596034	685.75
1342.13163	683.75
1342.66717	681.25
1343.202653	681.5
1343.738081	684.75
1344.273453	684.5
1344.80877	680.5
1345.34403	681.75
1345.879235	687.0
1346.414383	689.25
1346.949476	686.25
1347.484513	682.5
1348.019494	683.0
1348.55442	684.5
1349.089289	684.75
1349.624103	681.0
1350.158861	688.25
1350.693563	686.25
1351.228209	685.0
1351.7628	686.75
1352.297334	682.75
1352.831813	684.5
1353.366236	681.25
1353.900604	687.0
1354.434915	685.75
1354.969171	684.0
1355.503371	685.25
1356.037515	686.25
1356.571604	684.25
1357.105636	680.0
1357.639613	684.75
1358.173535	686.25
1358.7074	685.25
1359.24121	685.75
1359.774964	688.5
1360.308662	685.25
1360.842304	686.5
1361.375891	683.25
1361.909422	684.5
1362.442897	683.75
1362.976317	684.0
1363.50968	690.75
1364.042989	687.5
1364.576241	683.5
1365.109438	685.75
1365.642579	685.25
1366.175664	689.5
1366.708693	689.5
1367.241667	685.5
1367.774585	686.75
1368.307448	687.25
1368.840255	689.5
1369.373006	689.5
1369.905701	694.5
1370.438341	707.0
1370.970925	697.75
1371.503454	688.75
1372.035926	687.5
1372.568344	684.5
1373.100705	685.0
1373.633011	686.25
1374.165261	685.5
1374.697456	691.75
1375.229595	686.75
1375.761678	691.75
1376.293705	687.0
1376.825677	687.75
1377.357594	692.25
1377.889455	689.0
1378.42126	688.25
1378.953009	690.0
1379.484703	687.25
1380.016342	692.75
1380.547924	689.25
1381.079452	688.25
1381.610923	689.5
1382.142339	693.5
1382.673699	691.5
1383.205004	691.75
1383.736253	694.5
1384.267447	701.0
1384.798585	702.5
1385.329668	706.75
1385.860695	715.75
1386.391666	734.75
1386.922582	766.0
1387.453442	883.25
1387.984247	1235.25
1388.514996	1816.75
1389.04569	1466.25
1389.576328	922.5
1390.10691	769.5
1390.637437	724.75
1391.167909	711.5
1391.698325	702.75
1392.228685	696.5
1392.75899	695.25
1393.28924	694.75
1393.819434	691.75
1394.349572	690.5
1394.879655	686.5
1395.409683	690.75
1395.939655	690.75
1396.469571	689.25
1396.999432	688.75
1397.529237	688.75
1398.058987	691.5
1398.588682	689.75
1399.118321	688.25
1399.647905	688.5
1400.177433	688.75
1400.706906	684.75
1401.236323	687.0
1401.765685	689.5
1402.294991	689.75
1402.824242	685.75
1403.353437	688.0
1403.882577	691.25
1404.411662	685.5
1404.940691	689.0
1405.469665	691.25
1405.998583	691.5
1406.527446	691.75
1407.056253	691.75
1407.585005	691.75
1408.113702	698.0
1408.642343	705.5
1409.170929	721.25
1409.69946	744.0
1410.227935	753.5
1410.756354	728.0
1411.284719	705.75
1411.813028	695.25
1412.341281	693.25
1412.869479	687.5
1413.397622	685.5
1413.92571	686.5
1414.453742	687.25
1414.981718	691.5
1415.50964	694.0
1416.037506	684.75
1416.565316	688.0
1417.093072	683.5
1417.620772	684.5
1418.148416	685.0
1418.676005	686.5
1419.203539	687.0
1419.731018	690.75
1420.258441	685.0
1420.785809	683.25
1421.313122	684.0
1421.840379	686.5
1422.367582	683.5
1422.894728	684.0
1423.42182	684.25
1423.948856	684.0
1424.475837	681.25
1425.002762	685.25
1425.529633	684.0
1426.056448	687.5
1426.583207	687.75
1427.109912	682.25
1427.636561	685.5
1428.163155	683.0
1428.689694	684.25
1429.216177	684.25
1429.742605	684.75
1430.268978	682.25
1430.795296	686.75
1431.321558	683.5
1431.847765	686.5
1432.373917	686.25
1432.900014	683.5
1433.426056	685.0
1433.952042	682.75
1434.477973	682.5
1435.003849	683.25
1435.529669	683.5
1436.055435	684.5
1436.581145	681.75
1437.1068	687.0
1437.632399	685.75
1438.157944	683.0
1438.683433	686.5
1439.208868	681.0
1439.734247	685.0
1440.25957	689.0
1440.784839	683.5
1441.310053	682.25
1441.835211	688.75
1442.360314	682.75
1442.885362	684.5
1443.410355	684.25
1443.935292	684.5
1444.460175	683.5
1444.985002	686.75
1445.509774	684.75
1446.034491	682.75
1446.559153	682.0
1447.08376	685.5
1447.608312	688.75
1448.132808	683.5
1448.65725	686.75
1449.181636	681.75
1449.705967	679.0
1450.230243	686.75
1450.754464	687.0
1451.27863	683.25
1451.802741	681.75
1452.326797	681.25
1452.850797	681.75
1453.374743	678.25
1453.898633	686.5
1454.422468	684.25
1454.946249	680.5
1455.469974	686.5
1455.993644	683.75
1456.517259	682.75
1457.040819	684.25
1457.564324	682.0
1458.087773	684.75
1458.611168	686.0
1459.134508	684.0
1459.657793	682.75
1460.181022	681.75
1460.704197	678.5
1461.227316	684.5
1461.750381	686.0
1462.27339	685.5
1462.796345	684.75
1463.319244	683.0
1463.842089	683.5
1464.364878	684.5
1464.887613	682.75
1465.410292	684.5
1465.932916	682.75
1466.455486	682.5
1466.978	682.5
1467.50046	685.0
1468.022864	682.0
1468.545214	682.25
1469.067508	682.25
1469.589748	680.75
1470.111932	686.75
1470.634062	684.5
1471.156136	682.0
1471.678156	680.0
1472.20012	682.75
1472.72203	683.75
1473.243885	680.5
1473.765685	681.25
1474.28743	680.75
1474.80912	682.5
1475.330755	682.0
1475.852335	680.5
1476.37386	679.75
1476.89533	680.75
1477.416745	681.0
1477.938106	677.25
1478.459411	683.5
1478.980662	679.5
1479.501857	676.75
1480.022998	681.0
1480.544084	679.5
1481.065115	679.5
1481.586091	678.0
1482.107012	682.0
1482.627878	682.25
1483.14869	682.5
1483.669446	677.75
1484.190148	677.25
1484.710794	681.5
1485.231386	679.5
1485.751923	678.25
1486.272406	678.75
1486.792833	681.25
1487.313205	681.5
1487.833523	679.75
1488.353786	678.0
1488.873994	678.25
1489.394147	676.75
1489.914245	680.25
1490.434288	678.5
1490.954277	682.25
1491.474211	678.0
1491.99409	678.5
1492.513914	675.75
1493.033683	678.75
1493.553398	679.25
1494.073057	677.25
1494.592662	676.25
1495.112212	676.75
1495.631708	677.5
1496.151148	679.75
1496.670534	678.25
1497.189865	677.75
1497.709141	679.75
1498.228362	678.75
1498.747529	679.5
1499.266641	678.75
1499.785698	691.0
1500.3047	676.75
1500.823648	675.75
1501.34254	677.5
1501.861379	680.75
1502.380162	678.75
1502.89889	672.75
1503.417564	676.0
1503.936183	676.5
1504.454748	676.5
1504.973257	677.0
1505.491712	675.75
1506.010112	677.25
1506.528458	677.5
1507.046748	678.25
1507.564984	680.5
1508.083166	676.0
1508.601292	677.0
1509.119364	675.75
1509.637381	678.5
1510.155344	679.0
1510.673252	688.75
1511.191105	676.25
1511.708903	676.5
1512.226647	678.0
1512.744336	678.75
1513.261971	680.5
1513.77955	679.75
1514.297076	678.5
1514.814546	679.0
1515.331962	678.25
1515.849323	677.0
1516.366629	680.75
1516.883881	678.0
1517.401078	679.0
1517.918221	677.5
1518.435309	674.0
1518.952342	678.75
1519.469321	681.75
1519.986245	678.25
1520.503114	676.25
1521.019929	680.0
1521.536689	679.25
1522.053395	673.25
1522.570046	677.0
1523.086642	683.25
1523.603184	675.5
1524.119671	678.25
1524.636103	677.25
1525.152481	676.25
1525.668805	677.25
1526.185073	678.75
1526.701288	675.5
1527.217447	673.75
1527.733552	681.25
1528.249603	678.0
1528.765599	679.0
1529.28154	674.25
1529.797427	678.25
1530.313259	678.25
1530.829037	676.5
1531.34476	676.75
1531.860429	678.25
1532.376043	675.0
1532.891602	676.75
1533.407107	678.75
1533.922558	678.5
1534.437954	678.0
1534.953295	675.25
1535.468582	681.5
1535.983815	677.25
1536.498993	678.0
1537.014116	677.25
1537.529185	678.75
1538.044199	677.0
1538.559159	677.0
1539.074064	679.5
1539.588915	677.25
1540.103712	678.5
1540.618454	675.5
1541.133141	678.25
1541.647774	672.0
1542.162353	675.75
1542.676877	676.5
1543.191346	676.75
1543.705761	678.75
1544.220122	679.0
1544.734428	677.5
1545.24868	679.5
1545.762877	677.0
1546.27702	680.5
1546.791109	679.5
1547.305143	677.75
1547.819122	673.25
1548.333047	677.0
1548.846918	677.75
1549.360734	677.75
1549.874496	675.25
1550.388204	677.25
1550.901857	679.75
1551.415455	677.0
1551.929	679.5
1552.442489	679.25
1552.955925	678.75
1553.469306	680.5
1553.982632	678.5
1554.495905	676.0
1555.009123	680.25
1555.522286	681.0
1556.035395	677.0
1556.54845	678.0
1557.06145	680.0
1557.574396	678.0
1558.087288	676.75
1558.600125	678.75
1559.112908	675.75
1559.625637	679.75
1560.138311	676.5
1560.650931	678.0
1561.163497	674.5
1561.676008	673.75
1562.188465	679.25
1562.700867	678.75
1563.213216	676.5
1563.725509	675.5
1564.237749	676.75
1564.749934	678.0
1565.262065	678.5
1565.774142	679.0
1566.286164	680.0
1566.798132	679.25
1567.310046	674.5
1567.821906	678.75
1568.333711	678.25
1568.845462	676.25
1569.357158	676.25
1569.868801	676.5
1570.380389	676.0
1570.891922	676.5
1571.403402	682.0
1571.914827	676.25
1572.426198	681.0
1572.937515	678.5
1573.448777	678.75
1573.959985	676.25
1574.471139	677.25
1574.982239	678.0
1575.493285	677.25
1576.004276	676.75
1576.515213	675.75
1577.026096	678.0
1577.536924	678.5
1578.047698	677.75
1578.558419	677.5
1579.069084	682.75
1579.579696	677.0
1580.090254	679.75
1580.600757	676.0
1581.111206	681.5
1581.621601	678.25
1582.131941	680.0
1582.642228	678.5
1583.15246	678.0
1583.662638	680.25
1584.172762	678.25
1584.682832	679.25
1585.192847	682.0
1585.702809	680.0
1586.212716	678.0
1586.722569	678.25
1587.232368	680.75
1587.742113	671.0
1588.251803	676.5
1588.76144	679.25
1589.271022	678.5
1589.78055	680.0
1590.290024	678.5
1590.799444	679.75
1591.30881	677.0
1591.818121	678.75
1592.327379	677.5
