1042.414189	700.25
1042.980685	702.5
1043.547124	697.5
1044.113505	704.0
1044.679828	695.5
1045.246093	697.25
1045.8123	700.0
1046.378449	696.5
1046.94454	695.25
1047.510573	693.25
1048.076548	693.0
1048.642465	690.5
1049.208325	689.0
1049.774126	686.5
1050.339869	689.0
1050.905555	686.75
1051.471183	689.75
1052.036752	687.75
1052.602264	687.75
1053.167718	683.25
1053.733114	688.0
1054.298452	685.5
1054.863733	686.5
1055.428955	682.5
1055.994119	688.5
1056.559226	684.75
1057.124275	688.75
1057.689266	685.75
1058.254199	682.25
1058.819074	684.5
1059.383891	682.0
1059.94865	685.25
1060.513352	681.5
1061.077996	685.25
1061.642582	684.25
1062.20711	685.0
1062.77158	681.5
1063.335992	683.25
1063.900347	685.5
1064.464643	685.25
1065.028882	683.0
1065.593063	683.5
1066.157187	681.5
1066.721252	681.0
1067.28526	684.0
1067.84921	683.75
1068.413102	680.25
1068.976936	682.0
1069.540713	685.5
1070.104431	691.75
1070.668092	684.0
1071.231696	684.25
1071.795241	678.25
1072.358729	682.25
1072.922159	685.75
1073.485531	682.5
1074.048845	684.25
1074.612102	681.75
1075.175301	681.0
1075.738442	682.25
1076.301525	685.0
1076.864551	681.5
1077.427519	682.5
1077.990429	683.25
1078.553281	682.25
1079.116076	681.75
1079.678813	684.25
1080.241492	678.75
1080.804114	683.0
1081.366678	683.0
1081.929184	681.75
1082.491633	686.25
1083.054024	686.5
1083.616357	686.25
1084.178632	680.25
1084.74085	683.5
1085.30301	684.0
1085.865113	685.25
1086.427158	683.0
1086.989145	680.25
1087.551074	688.5
1088.112946	682.5
1088.67476	683.75
1089.236517	681.25
1089.798216	683.5
1090.359857	680.75
1090.92144	683.25
1091.482966	679.0
1092.044435	680.5
1092.605845	679.25
1093.167199	683.75
1093.728494	684.75
1094.289732	682.25
1094.850912	682.0
1095.412035	699.5
1095.9731	681.5
1096.534107	680.75
1097.095057	685.75
1097.65595	683.25
1098.216784	680.5
1098.777561	681.5
1099.338281	679.0
1099.898943	680.25
1100.459547	684.0
1101.020094	681.5
1101.580584	679.25
1102.141015	684.25
1102.701389	682.0
1103.261706	682.75
1103.821965	686.25
1104.382167	681.25
1104.942311	683.0
1105.502397	682.5
1106.062426	685.0
1106.622398	685.0
1107.182312	683.5
1107.742168	685.0
1108.301967	682.0
1108.861708	685.25
1109.421392	685.0
1109.981019	685.25
1110.540587	684.75
1111.100099	686.25
1111.659553	683.5
1112.218949	685.0
1112.778288	682.5
1113.33757	686.5
1113.896794	687.75
1114.45596	684.5
1115.015069	687.0
1115.574121	688.5
1116.133115	685.5
1116.692052	687.25
1117.250931	689.25
1117.809753	684.0
1118.368517	681.75
1118.927224	681.75
1119.485873	679.5
1120.044465	682.25
1120.603	682.5
1121.161477	681.0
1121.719897	682.75
1122.278259	680.5
1122.836564	682.5
1123.394812	684.0
1123.953002	680.75
1124.511135	683.0
1125.06921	680.75
1125.627228	682.5
1126.185189	682.0
1126.743092	682.75
1127.300938	684.0
1127.858726	678.25
1128.416457	681.5
1128.974131	678.75
1129.531748	680.25
1130.089307	682.75
1130.646808	680.0
1131.204252	680.5
1131.761639	682.0
1132.318969	680.75
1132.876241	681.5
1133.433456	683.0
1133.990614	680.25
1134.547714	684.5
1135.104757	682.5
1135.661743	680.0
1136.218671	682.75
1136.775542	683.25
1137.332356	683.0
1137.889112	680.0
1138.445811	682.25
1139.002453	679.75
1139.559037	680.25
1140.115565	678.5
1140.672035	682.5
1141.228447	680.0
1141.784803	680.75
1142.341101	680.25
1142.897342	685.0
1143.453525	679.75
1144.009651	682.0
1144.565721	678.75
1145.121732	682.25
1145.677687	683.5
1146.233584	681.25
1146.789424	681.5
1147.345207	682.5
1147.900933	681.25
1148.456601	679.75
1149.012212	680.25
1149.567766	680.5
1150.123263	682.25
1150.678702	681.0
1151.234085	683.0
1151.78941	685.75
1152.344678	679.75
1152.899888	679.0
1153.455042	683.5
1154.010138	682.0
1154.565177	679.5
1155.120159	685.25
1155.675084	685.5
1156.229951	682.25
1156.784762	680.25
1157.339515	680.0
1157.894211	680.5
1158.44885	683.0
1159.003432	681.25
1159.557956	682.0
1160.112424	681.25
1160.666834	678.25
1161.221187	679.75
1161.775483	679.0
1162.329722	681.0
1162.883904	681.75
1163.438029	677.75
1163.992096	678.25
1164.546107	680.0
1165.10006	682.25
1165.653956	681.5
1166.207795	680.5
1166.761577	682.25
1167.315302	681.25
1167.86897	680.0
1168.422581	681.25
1168.976134	680.5
1169.529631	679.5
1170.08307	680.75
1170.636453	679.25
1171.189778	680.25
1171.743046	685.0
1172.296257	686.25
1172.849412	679.0
1173.402509	681.75
1173.955549	678.75
1174.508532	683.0
1175.061458	682.5
1175.614327	679.75
1176.167138	678.25
1176.719893	680.0
1177.272591	683.25
1177.825232	686.5
1178.377816	680.0
1178.930342	679.0
1179.482812	680.75
1180.035225	684.25
1180.587581	683.0
1181.139879	683.25
1181.692121	682.75
1182.244306	681.75
1182.796434	679.0
1183.348504	681.25
1183.900518	685.75
1184.452475	687.75
1185.004375	683.25
1185.556218	683.75
1186.108004	686.25
1186.659733	684.25
1187.211405	682.25
1187.76302	681.75
1188.314578	686.0
1188.866079	685.25
1189.417523	687.75
1189.96891	684.25
1190.520241	684.0
1191.071514	681.0
1191.622731	683.25
1192.17389	683.75
1192.724993	685.0
1193.276039	703.25
1193.827027	683.75
1194.377959	681.5
1194.928834	678.5
1195.479653	684.25
1196.030414	681.25
1196.581118	680.25
1197.131766	679.75
1197.682356	682.25
1198.23289	683.0
1198.783367	680.5
1199.333786	683.0
1199.88415	680.0
1200.434456	681.0
1200.984705	682.0
1201.534898	681.25
1202.085033	682.25
1202.635112	685.0
1203.185134	677.75
1203.735099	680.0
1204.285007	681.5
1204.834859	679.75
1205.384653	684.75
1205.934391	680.5
1206.484072	681.5
1207.033696	682.75
1207.583263	684.0
1208.132774	681.25
1208.682228	682.0
1209.231624	681.5
1209.780965	682.5
1210.330248	682.75
1210.879474	683.0
1211.428644	680.0
1211.977757	687.5
1212.526813	682.5
1213.075813	678.75
1213.624755	684.0
1214.173641	682.25
1214.72247	681.5
1215.271242	681.5
1215.819958	681.75
1216.368617	683.25
1216.917219	686.25
1217.465764	683.25
1218.014253	684.25
1218.562685	684.75
1219.11106	682.75
1219.659378	680.5
1220.20764	683.5
1220.755845	683.0
1221.303993	681.5
1221.852085	684.75
1222.400119	680.5
1222.948097	682.5
1223.496019	682.25
1224.043883	682.25
1224.591691	682.5
1225.139443	684.75
1225.687137	685.5
1226.234775	682.0
1226.782357	686.25
1227.329881	683.0
1227.877349	682.75
1228.42476	681.75
1228.972115	682.75
1229.519413	684.25
1230.066654	687.25
1230.613839	684.0
1231.160967	683.75
1231.708038	687.0
1232.255053	682.0
1232.802011	687.0
1233.348912	681.75
1233.895757	683.0
1234.442545	682.0
1234.989277	686.5
1235.535951	686.0
1236.08257	682.75
1236.629131	683.5
1237.175636	684.5
1237.722085	684.75
1238.268477	685.25
1238.814812	683.25
1239.361091	683.25
1239.907313	682.0
1240.453478	685.5
1240.999587	685.0
1241.54564	679.5
1242.091636	684.25
1242.637575	682.25
1243.183457	681.5
1243.729284	687.0
1244.275053	684.25
1244.820766	684.25
1245.366423	684.25
1245.912022	685.5
1246.457566	684.25
1247.003053	683.25
1247.548483	687.75
1248.093857	685.0
1248.639174	687.5
1249.184435	682.5
1249.729639	687.0
1250.274787	686.25
1250.819878	684.75
1251.364912	686.75
1251.909891	686.5
1252.454812	685.5
1252.999677	684.25
1253.544486	683.0
1254.089238	681.5
1254.633934	684.0
1255.178573	683.25
1255.723156	684.5
1256.267682	685.75
1256.812152	683.75
1257.356565	687.0
1257.900922	686.5
1258.445223	682.0
1258.989467	685.75
1259.533654	689.0
1260.077785	701.0
1260.62186	692.0
1261.165878	688.0
1261.70984	688.5
1262.253745	688.25
1262.797594	691.5
1263.341386	689.75
1263.885123	696.5
1264.428802	707.75
1264.972425	718.25
1265.515992	719.75
1266.059503	704.0
1266.602957	691.0
1267.146354	686.25
1267.689696	691.0
1268.23298	686.25
1268.776209	688.0
1269.319381	688.5
1269.862497	685.75
1270.405556	680.5
1270.948559	684.25
1271.491506	686.5
1272.034396	684.75
1272.57723	683.0
1273.120007	686.75
1273.662728	684.25
1274.205393	687.5
1274.748002	683.0
1275.290554	684.75
1275.83305	686.25
1276.375489	685.75
1276.917872	685.0
1277.460199	683.25
1278.00247	684.25
1278.544684	687.75
1279.086842	685.75
1279.628943	684.75
1280.170989	689.5
1280.712978	688.75
1281.25491	691.5
1281.796787	690.75
1282.338607	701.25
1282.880371	707.5
1283.422078	725.25
1283.963729	770.5
1284.505324	907.75
1285.046863	1137.75
1285.588345	1127.25
1286.129772	870.75
1286.671142	736.5
1287.212455	711.75
1287.753713	699.0
1288.294914	695.5
1288.836059	690.25
1289.377147	689.0
1289.91818	688.75
1290.459156	685.5
1291.000076	688.5
1291.54094	686.25
1292.081747	688.5
1292.622499	688.75
1293.163194	692.25
1293.703833	686.25
1294.244415	688.25
1294.784942	684.5
1295.325412	683.75
1295.865826	687.0
1296.406184	687.25
1296.946486	684.5
1297.486731	682.0
1298.026921	683.0
1298.567054	688.0
1299.107131	683.75
1299.647152	682.0
1300.187116	685.0
1300.727025	687.25
1301.266877	686.75
1301.806673	683.25
1302.346413	685.25
1302.886097	683.25
1303.425725	689.75
1303.965297	681.75
1304.504812	687.25
1305.044272	685.5
1305.583675	686.0
1306.123022	685.5
1306.662313	682.25
1307.201548	682.5
1307.740727	682.75
1308.279849	681.75
1308.818916	688.0
1309.357926	681.75
1309.896881	680.25
1310.435779	677.25
1310.974621	682.75
1311.513407	681.0
1312.052137	683.75
1312.590811	685.0
1313.129429	683.5
1313.667991	687.5
1314.206497	683.0
1314.744946	680.75
1315.28334	686.0
1315.821678	681.25
1316.359959	682.25
1316.898184	683.0
1317.436354	681.0
1317.974467	680.25
1318.512525	683.75
1319.050526	683.0
1319.588471	683.5
1320.12636	684.75
1320.664194	681.0
1321.201971	684.25
1321.739692	681.5
1322.277357	682.75
1322.814967	684.25
1323.35252	682.0
1323.890017	684.25
1324.427458	683.0
1324.964843	680.5
1325.502173	681.5
1326.039446	683.25
1326.576663	683.0
1327.113824	682.0
1327.65093	684.5
1328.187979	684.75
1328.724972	677.0
1329.26191	685.0
1329.798791	681.0
1330.335617	682.25
1330.872386	680.5
1331.4091	683.0
1331.945758	683.0
1332.48236	678.25
1333.018905	682.75
1333.555395	682.25
1334.091829	683.0
1334.628207	681.25
1335.164529	681.5
1335.700796	683.0
1336.237006	678.0
1336.77316	680.75
1337.309259	682.0
1337.845301	682.0
1338.381288	681.5
1338.917219	680.75
1339.453094	681.75
1339.988913	682.0
1340.524676	680.0
1341.060383	681.25
1341.596034	681.0
1342.13163	680.75
1342.66717	680.25
1343.202653	680.5
1343.738081	680.75
1344.273453	685.25
1344.80877	684.25
1345.34403	677.75
1345.879235	680.75
1346.414383	680.25
1346.949476	679.25
1347.484513	682.75
1348.019494	683.5
1348.55442	682.75
1349.089289	682.0
1349.624103	678.25
1350.158861	681.5
1350.693563	682.5
1351.228209	683.0
1351.7628	685.5
1352.297334	682.5
1352.831813	678.75
1353.366236	679.0
1353.900604	682.25
1354.434915	682.0
1354.969171	683.75
1355.503371	680.5
1356.037515	683.0
1356.571604	680.5
1357.105636	682.5
1357.639613	682.75
1358.173535	680.75
1358.7074	682.0
1359.24121	683.0
1359.774964	686.75
1360.308662	680.25
1360.842304	679.75
1361.375891	682.0
1361.909422	678.5
1362.442897	682.25
1362.976317	679.0
1363.50968	680.5
1364.042989	683.0
1364.576241	680.75
1365.109438	681.75
1365.642579	683.5
1366.175664	684.0
1366.708693	685.75
1367.241667	686.5
1367.774585	685.25
1368.307448	850.0
1368.840255	684.75
1369.373006	680.0
1369.905701	687.5
1370.438341	697.0
1370.970925	689.25
1371.503454	684.0
1372.035926	682.75
1372.568344	683.25
1373.100705	679.75
1373.633011	682.5
1374.165261	682.25
1374.697456	683.0
1375.229595	687.0
1375.761678	683.0
1376.293705	679.75
1376.825677	684.75
1377.357594	684.25
1377.889455	682.75
1378.42126	682.5
1378.953009	681.5
1379.484703	684.25
1380.016342	686.75
1380.547924	683.5
1381.079452	687.0
1381.610923	688.0
1382.142339	686.0
1382.673699	687.5
1383.205004	686.75
1383.736253	691.75
1384.267447	690.25
1384.798585	692.25
1385.329668	700.0
1385.860695	705.0
1386.391666	707.25
1386.922582	732.5
1387.453442	784.25
1387.984247	1009.5
1388.514996	1540.5
1389.04569	1461.0
1389.576328	915.0
1390.10691	752.0
1390.637437	716.75
1391.167909	700.75
1391.698325	697.0
1392.228685	693.0
1392.75899	690.5
1393.28924	685.0
1393.819434	692.0
1394.349572	690.25
1394.879655	684.75
1395.409683	685.0
1395.939655	687.75
1396.469571	686.5
1396.999432	686.25
1397.529237	680.5
1398.058987	684.25
1398.588682	686.5
1399.118321	679.5
1399.647905	681.25
1400.177433	685.25
1400.706906	680.5
1401.236323	680.5
1401.765685	682.75
1402.294991	684.75
1402.824242	683.75
1403.353437	685.25
1403.882577	682.75
1404.411662	684.5
1404.940691	683.0
1405.469665	686.0
1405.998583	684.5
1406.527446	686.75
1407.056253	688.0
1407.585005	685.25
1408.113702	690.25
1408.642343	694.5
1409.170929	707.5
1409.69946	730.5
1410.227935	742.25
1410.756354	716.25
1411.284719	699.75
1411.813028	687.75
1412.341281	688.5
1412.869479	687.5
1413.397622	682.75
1413.92571	683.5
1414.453742	686.75
1414.981718	681.75
1415.50964	696.5
1416.037506	679.5
1416.565316	680.0
1417.093072	681.5
1417.620772	684.25
1418.148416	679.0
1418.676005	680.25
1419.203539	677.0
1419.731018	678.75
1420.258441	680.25
1420.785809	676.25
1421.313122	681.25
1421.840379	681.25
1422.367582	678.75
1422.894728	683.0
1423.42182	682.5
1423.948856	683.75
1424.475837	682.5
1425.002762	681.75
1425.529633	681.5
1426.056448	681.5
1426.583207	681.0
1427.109912	679.75
1427.636561	679.25
1428.163155	683.5
1428.689694	677.5
1429.216177	679.75
1429.742605	679.0
1430.268978	680.25
1430.795296	678.25
1431.321558	680.25
1431.847765	682.75
1432.373917	681.5
1432.900014	685.25
1433.426056	681.5
1433.952042	679.5
1434.477973	681.75
1435.003849	679.25
1435.529669	679.0
1436.055435	679.0
1436.581145	677.75
1437.1068	680.5
1437.632399	681.25
1438.157944	679.25
1438.683433	680.0
1439.208868	681.5
1439.734247	678.25
1440.25957	680.75
1440.784839	678.75
1441.310053	679.5
1441.835211	680.5
1442.360314	682.25
1442.885362	682.5
1443.410355	680.75
1443.935292	677.75
1444.460175	678.25
1444.985002	681.5
1445.509774	676.75
1446.034491	677.0
1446.559153	677.75
1447.08376	680.0
1447.608312	684.0
1448.132808	683.0
1448.65725	680.5
1449.181636	680.0
1449.705967	677.25
1450.230243	674.5
1450.754464	679.75
1451.27863	680.5
1451.802741	682.0
1452.326797	676.75
1452.850797	681.75
1453.374743	682.5
1453.898633	678.0
1454.422468	680.5
1454.946249	679.75
1455.469974	679.0
1455.993644	680.0
1456.517259	683.5
1457.040819	677.25
1457.564324	677.0
1458.087773	677.25
1458.611168	678.75
1459.134508	677.25
1459.657793	679.5
1460.181022	675.75
1460.704197	676.5
1461.227316	680.0
1461.750381	680.5
1462.27339	680.25
1462.796345	688.25
1463.319244	687.0
1463.842089	680.25
1464.364878	685.5
1464.887613	680.0
1465.410292	679.5
1465.932916	680.5
1466.455486	680.5
1466.978	678.25
1467.50046	675.75
1468.022864	678.75
1468.545214	680.0
1469.067508	675.25
1469.589748	678.0
1470.111932	679.0
1470.634062	680.75
1471.156136	681.5
1471.678156	682.25
1472.20012	679.5
1472.72203	678.75
1473.243885	680.0
1473.765685	677.75
1474.28743	680.0
1474.80912	677.25
1475.330755	678.0
1475.852335	678.5
1476.37386	676.0
1476.89533	679.5
1477.416745	675.0
1477.938106	680.25
1478.459411	676.5
1478.980662	678.5
1479.501857	676.5
1480.022998	675.5
1480.544084	675.25
1481.065115	674.0
1481.586091	678.75
1482.107012	676.75
1482.627878	676.0
1483.14869	677.75
1483.669446	676.5
1484.190148	679.25
1484.710794	678.0
1485.231386	680.75
1485.751923	674.5
1486.272406	677.25
1486.792833	675.25
1487.313205	679.0
1487.833523	675.5
1488.353786	675.75
1488.873994	676.5
1489.394147	678.5
1489.914245	677.25
1490.434288	676.25
1490.954277	678.25
1491.474211	677.75
1491.99409	673.5
1492.513914	677.75
1493.033683	676.25
1493.553398	678.25
1494.073057	675.75
1494.592662	674.0
1495.112212	678.25
1495.631708	675.5
1496.151148	677.0
1496.670534	678.75
1497.189865	675.0
1497.709141	677.5
1498.228362	677.5
1498.747529	678.5
1499.266641	677.75
1499.785698	683.25
1500.3047	678.0
1500.823648	675.5
1501.34254	676.5
1501.861379	678.25
1502.380162	674.5
1502.89889	675.0
1503.417564	677.75
1503.936183	675.75
1504.454748	677.0
1504.973257	675.5
1505.491712	675.75
1506.010112	677.25
1506.528458	676.0
1507.046748	676.0
1507.564984	677.25
1508.083166	675.75
1508.601292	676.0
1509.119364	676.25
1509.637381	676.5
1510.155344	675.75
1510.673252	683.25
1511.191105	675.25
1511.708903	676.0
1512.226647	675.25
1512.744336	677.25
1513.261971	677.25
1514.297076	681.5
1514.814546	673.75
1515.331962	671.0
1515.849323	677.5
1516.366629	678.5
1516.883881	672.25
1517.401078	675.25
1517.918221	673.0
1518.435309	676.0
1518.952342	674.5
1519.469321	677.0
1519.986245	676.25
1520.503114	677.25
1521.019929	676.0
1521.536689	674.5
1522.053395	674.5
1522.570046	677.75
1523.086642	674.5
1523.603184	673.25
1524.119671	673.25
1524.636103	677.5
1525.152481	676.75
1525.668805	680.5
1526.185073	684.25
1526.701288	676.75
1527.217447	678.25
1527.733552	677.0
1528.249603	674.25
1528.765599	674.25
1529.28154	672.25
1529.797427	674.25
1530.313259	676.75
1530.829037	675.0
1531.34476	678.25
1531.860429	674.5
1532.376043	673.5
1532.891602	674.25
1533.407107	673.75
1533.922558	675.5
1534.437954	675.0
1534.953295	676.0
1535.468582	673.5
1535.983815	674.0
1536.498993	681.5
1537.014116	677.25
1537.529185	672.75
1538.044199	673.25
1538.559159	676.5
1539.074064	676.75
1539.588915	677.25
1540.103712	674.75
1540.618454	672.75
1541.133141	679.5
1541.647774	674.5
1542.162353	673.5
1542.676877	675.75
1543.191346	677.75
1543.705761	674.25
1544.220122	675.0
1544.734428	676.75
1545.24868	674.5
1545.762877	676.75
1546.27702	674.75
1546.791109	673.75
1547.305143	673.75
1547.819122	676.5
1548.333047	675.5
1548.846918	675.5
1549.360734	678.75
1549.874496	674.5
1550.388204	673.25
1550.901857	676.0
1551.415455	676.25
1551.929	678.0
1552.442489	678.0
1552.955925	673.75
1553.469306	674.0
1553.982632	677.25
1554.495905	677.25
1555.009123	674.5
1555.522286	677.75
1556.035395	677.0
1556.54845	676.5
1557.06145	676.25
1557.574396	673.5
1558.087288	670.75
1558.600125	678.25
1559.112908	676.75
1559.625637	674.5
1560.138311	672.5
1560.650931	675.25
1561.163497	673.75
1561.676008	672.5
1562.188465	677.5
1562.700867	677.0
1563.213216	676.75
1563.725509	675.5
1564.237749	676.75
1564.749934	676.0
1565.262065	674.5
1565.774142	677.0
1566.286164	673.75
1566.798132	675.5
1567.310046	675.0
1567.821906	677.0
1568.333711	679.0
1568.845462	675.75
1569.357158	675.0
1569.868801	674.0
1570.380389	677.0
1570.891922	676.75
1571.403402	672.25
1571.914827	675.5
1572.426198	675.5
1572.937515	674.25
1573.448777	677.75
1573.959985	675.25
1574.471139	676.0
1574.982239	674.5
1575.493285	678.0
1576.004276	674.75
1576.515213	678.25
1577.026096	677.0
1577.536924	677.0
1578.047698	675.5
1578.558419	671.5
1579.069084	677.75
1579.579696	676.75
1580.090254	678.75
1580.600757	671.75
1581.111206	675.0
1581.621601	673.25
1582.131941	673.5
1582.642228	675.5
1583.15246	676.75
1583.662638	673.25
1584.172762	677.5
1584.682832	674.0
1585.192847	678.75
1585.702809	675.5
1586.212716	675.75
1586.722569	672.75
1587.232368	673.25
1587.742113	676.25
1588.251803	675.0
1588.76144	676.0
1589.271022	678.5
1589.78055	675.0
1590.290024	673.75
1590.799444	672.5
1591.30881	674.25
1591.818121	675.25
1592.327379	675.5
