1042.414189	698.5
1042.980685	694.5
1043.547124	694.75
1044.113505	700.0
1044.679828	698.25
1045.246093	690.25
1045.8123	697.0
1046.378449	692.25
1046.94454	691.75
1047.510573	692.25
1048.076548	686.75
1048.642465	684.75
1049.208325	688.0
1049.774126	686.25
1050.339869	686.5
1050.905555	687.75
1051.471183	685.75
1052.036752	685.25
1052.602264	682.25
1053.167718	682.5
1053.733114	680.75
1054.298452	684.0
1054.863733	681.75
1055.428955	682.25
1055.994119	678.0
1056.559226	680.75
1057.124275	684.25
1057.689266	682.5
1058.254199	679.25
1058.819074	682.0
1059.383891	681.25
1059.94865	678.75
1060.513352	681.75
1061.077996	679.75
1061.642582	677.5
1062.20711	681.75
1062.77158	677.5
1063.335992	681.5
1063.900347	681.25
1064.464643	675.25
1065.028882	678.0
1065.593063	678.75
1066.157187	677.0
1066.721252	679.25
1067.28526	678.25
1067.84921	679.75
1068.413102	678.0
1068.976936	682.0
1069.540713	681.0
1070.104431	689.25
1070.668092	680.0
1071.231696	679.5
1071.795241	677.5
1072.358729	678.0
1072.922159	675.25
1073.485531	677.0
1074.048845	678.0
1074.612102	678.25
1075.175301	677.75
1075.738442	676.25
1076.301525	675.25
1076.864551	679.75
1077.427519	680.5
1077.990429	676.75
1078.553281	678.75
1079.116076	677.0
1079.678813	681.0
1080.241492	681.5
1080.804114	675.25
1081.366678	676.75
1081.929184	676.25
1082.491633	673.75
1083.054024	679.0
1083.616357	676.5
1084.178632	680.0
1084.74085	679.0
1085.30301	676.5
1085.865113	679.5
1086.427158	679.75
1086.989145	680.0
1087.551074	679.75
1088.112946	677.75
1088.67476	678.0
1089.236517	681.75
1089.798216	680.0
1090.359857	677.75
1090.92144	677.0
1091.482966	676.75
1092.044435	677.75
1092.605845	679.5
1093.167199	675.75
1093.728494	676.5
1094.289732	679.5
1094.850912	675.0
1095.412035	695.5
1095.9731	679.0
1096.534107	675.75
1097.095057	684.0
1097.65595	675.5
1098.216784	676.75
1098.777561	678.75
1099.338281	677.5
1099.898943	672.25
1100.459547	676.25
1101.020094	673.75
1101.580584	674.5
1102.141015	676.25
1102.701389	674.75
1103.261706	674.75
1103.821965	673.5
1104.382167	675.0
1104.942311	676.25
1105.502397	675.0
1106.062426	677.25
1106.622398	678.25
1107.182312	677.0
1107.742168	676.0
1108.301967	678.5
1108.861708	674.75
1109.421392	678.25
1109.981019	675.5
1110.540587	679.25
1111.100099	677.0
1111.659553	678.0
1112.218949	678.25
1112.778288	680.0
1113.33757	679.0
1113.896794	674.75
1114.45596	675.25
1115.015069	679.5
1115.574121	673.5
1116.133115	680.0
1116.692052	679.0
1117.250931	679.0
1117.809753	673.75
1118.368517	679.25
1118.927224	672.5
1119.485873	674.25
1120.044465	678.0
1120.603	676.5
1121.161477	675.25
1121.719897	677.25
1122.278259	678.5
1122.836564	677.0
1123.394812	678.0
1123.953002	672.75
1124.511135	676.0
1125.06921	679.75
1125.627228	676.0
1126.185189	674.75
1126.743092	678.0
1127.300938	677.75
1127.858726	676.0
1128.416457	677.0
1128.974131	678.0
1129.531748	674.75
1130.089307	680.75
1130.646808	675.0
1131.204252	676.5
1131.761639	676.0
1132.318969	677.0
1132.876241	671.75
1133.433456	674.75
1133.990614	675.75
1134.547714	673.75
1135.104757	671.5
1135.661743	676.5
1136.218671	677.75
1136.775542	676.75
1137.332356	675.25
1137.889112	675.0
1138.445811	675.0
1139.002453	673.75
1139.559037	672.0
1140.115565	675.75
1140.672035	675.0
1141.228447	675.5
1141.784803	676.0
1142.341101	672.75
1142.897342	673.75
1143.453525	675.5
1144.009651	677.5
1144.565721	672.0
1145.121732	673.25
1145.677687	672.5
1146.233584	674.25
1146.789424	671.75
1147.345207	678.75
1147.900933	674.5
1148.456601	674.5
1149.012212	674.75
1149.567766	675.25
1150.123263	672.75
1150.678702	673.0
1151.234085	677.75
1151.78941	677.0
1152.344678	675.0
1152.899888	672.5
1153.455042	674.0
1154.010138	676.0
1154.565177	673.0
1155.120159	674.5
1155.675084	676.5
1156.229951	676.0
1156.784762	676.75
1157.339515	672.75
1157.894211	668.75
1158.44885	673.25
1159.003432	673.5
1159.557956	675.25
1160.112424	677.75
1160.666834	678.0
1161.221187	675.75
1161.775483	672.5
1162.329722	675.75
1162.883904	673.5
1163.438029	675.0
1163.992096	676.0
1164.546107	674.5
1165.10006	673.5
1165.653956	676.25
1166.207795	671.5
1166.761577	674.25
1167.315302	676.5
1167.86897	674.0
1168.422581	673.75
1168.976134	672.75
1169.529631	675.25
1170.08307	670.0
1170.636453	677.0
1171.189778	676.0
1171.743046	676.25
1172.296257	672.25
1172.849412	674.5
1173.402509	674.0
1173.955549	673.25
1174.508532	677.25
1175.061458	672.25
1175.614327	673.5
1176.167138	674.0
1176.719893	673.75
1177.272591	672.25
1177.825232	677.75
1178.377816	671.75
1178.930342	675.25
1179.482812	673.25
1180.035225	676.5
1180.587581	674.0
1181.139879	678.0
1181.692121	673.0
1182.244306	675.0
1182.796434	670.75
1183.348504	676.75
1183.900518	675.0
1184.452475	676.75
1185.004375	674.5
1185.556218	672.5
1186.108004	675.0
1186.659733	673.5
1187.211405	674.5
1187.76302	677.5
1188.314578	675.0
1188.866079	679.25
1189.417523	676.0
1189.96891	677.25
1190.520241	673.0
1191.071514	675.25
1191.622731	671.25
1192.17389	675.5
1192.724993	678.5
1193.276039	694.75
1193.827027	673.25
1194.377959	673.5
1194.928834	676.0
1195.479653	671.5
1196.030414	672.0
1196.581118	674.0
1197.131766	672.25
1197.682356	673.25
1198.23289	674.0
1198.783367	671.25
1199.333786	675.0
1199.88415	675.5
1200.434456	674.75
1200.984705	673.5
1201.534898	672.75
1202.085033	671.0
1202.635112	675.5
1203.185134	676.0
1203.735099	673.75
1204.285007	672.75
1204.834859	673.0
1205.384653	673.0
1205.934391	675.0
1206.484072	671.5
1207.033696	673.0
1207.583263	672.25
1208.132774	671.0
1208.682228	673.5
1209.231624	673.25
1209.780965	674.25
1210.330248	673.25
1210.879474	673.75
1211.428644	671.75
1211.977757	673.5
1212.526813	674.25
1213.075813	675.5
1213.624755	670.75
1214.173641	675.5
1214.72247	672.75
1215.271242	675.5
1215.819958	671.75
1216.368617	675.0
1216.917219	673.5
1217.465764	676.75
1218.014253	671.75
1218.562685	674.0
1219.11106	675.5
1219.659378	674.25
1220.20764	673.5
1220.755845	672.5
1221.303993	673.5
1221.852085	673.0
1222.400119	674.5
1222.948097	674.25
1223.496019	674.75
1224.043883	675.25
1224.591691	672.25
1225.139443	670.75
1225.687137	674.5
1226.234775	678.0
1226.782357	673.75
1227.329881	677.75
1227.877349	673.0
1228.42476	675.5
1228.972115	674.5
1229.519413	675.0
1230.066654	672.25
1230.613839	675.5
1231.160967	674.75
1231.708038	675.0
1232.255053	674.75
1232.802011	675.25
1233.348912	675.0
1233.895757	673.25
1234.442545	673.5
1234.989277	675.0
1235.535951	673.75
1236.08257	673.25
1236.629131	671.0
1237.175636	675.0
1237.722085	673.0
1238.268477	673.25
1238.814812	673.25
1239.361091	674.25
1239.907313	675.75
1240.453478	675.75
1240.999587	674.5
1241.54564	676.75
1242.091636	672.0
1242.637575	676.75
1243.183457	671.75
1243.729284	672.5
1244.275053	673.5
1244.820766	675.25
1245.366423	676.5
1245.912022	675.5
1246.457566	674.75
1247.003053	673.0
1247.548483	674.25
1248.093857	674.0
1248.639174	673.0
1249.184435	677.25
1249.729639	674.25
1250.274787	675.0
1250.819878	675.75
1251.364912	676.75
1251.909891	677.5
1252.454812	675.25
1252.999677	676.5
1253.544486	676.5
1254.089238	677.0
1254.633934	670.75
1255.178573	674.25
1255.723156	673.25
1256.267682	674.0
1256.812152	675.25
1257.356565	670.25
1257.900922	677.0
1258.445223	674.5
1258.989467	676.5
1259.533654	674.75
1260.077785	690.75
1260.62186	673.0
1261.165878	677.75
1261.70984	675.0
1262.253745	673.25
1262.797594	674.5
1263.341386	676.5
1263.885123	674.25
1264.428802	681.0
1264.972425	679.75
1265.515992	685.0
1266.059503	678.0
1266.602957	675.0
1267.146354	677.75
1267.689696	672.75
1268.23298	674.0
1268.776209	676.5
1269.319381	668.75
1269.862497	671.0
1270.405556	674.25
1270.948559	674.0
1271.491506	673.75
1272.034396	671.75
1272.57723	674.0
1273.120007	673.25
1273.662728	673.25
1274.205393	674.0
1274.748002	672.0
1275.290554	674.0
1275.83305	675.5
1276.375489	674.75
1276.917872	671.75
1277.460199	667.75
1278.00247	674.5
1278.544684	674.25
1279.086842	673.75
1279.628943	674.5
1280.170989	675.5
1280.712978	672.0
1281.25491	677.5
1281.796787	673.0
1282.338607	677.5
1282.880371	675.0
1283.422078	683.5
1283.963729	693.0
1284.505324	713.0
1285.046863	774.25
1285.588345	828.0
1286.129772	746.25
1286.671142	696.25
1287.212455	686.0
1287.753713	677.75
1288.294914	675.75
1288.836059	677.25
1289.377147	679.0
1289.91818	674.5
1290.459156	673.75
1291.000076	674.25
1291.54094	677.25
1292.081747	674.5
1292.622499	674.0
1293.163194	674.75
1293.703833	672.75
1294.244415	674.75
1294.784942	670.5
1295.325412	673.75
1295.865826	673.75
1296.406184	671.75
1296.946486	674.25
1297.486731	673.5
1298.026921	675.25
1298.567054	671.5
1299.107131	674.5
1299.647152	675.0
1300.187116	669.75
1300.727025	672.25
1301.266877	673.5
1301.806673	675.5
1302.346413	670.5
1302.886097	672.25
1303.425725	675.25
1303.965297	671.0
1304.504812	670.5
1305.044272	674.5
1305.583675	675.25
1306.123022	672.75
1306.662313	670.75
1307.201548	675.75
1307.740727	674.75
1308.279849	675.5
1308.818916	672.5
1309.357926	674.75
1309.896881	673.5
1310.435779	672.0
1310.974621	667.75
1311.513407	673.0
1312.052137	673.5
1312.590811	674.25
1313.129429	673.75
1313.667991	670.5
1314.206497	671.25
1314.744946	671.5
1315.28334	673.25
1315.821678	674.0
1316.359959	673.0
1316.898184	670.5
1317.436354	671.0
1317.974467	672.25
1318.512525	673.0
1319.050526	670.75
1319.588471	672.75
1320.12636	672.0
1320.664194	672.5
1321.201971	672.25
1321.739692	669.25
1322.277357	675.5
1322.814967	670.0
1323.35252	674.5
1323.890017	678.5
1324.427458	675.25
1324.964843	671.5
1325.502173	674.25
1326.039446	674.25
1326.576663	672.25
1327.113824	674.0
1327.65093	673.0
1328.187979	672.75
1328.724972	670.75
1329.26191	670.75
1329.798791	673.25
1330.335617	672.25
1330.872386	672.5
1331.4091	670.5
1331.945758	674.0
1332.48236	672.25
1333.018905	669.75
1333.555395	675.0
1334.091829	670.0
1334.628207	675.25
1335.164529	672.75
1335.700796	673.25
1336.237006	672.75
1336.77316	672.75
1337.309259	674.75
1337.845301	673.5
1338.381288	673.75
1338.917219	672.25
1339.453094	674.25
1339.988913	671.25
1340.524676	672.0
1341.060383	670.25
1341.596034	672.75
1342.13163	670.25
1342.66717	672.5
1343.202653	670.5
1343.738081	673.5
1344.273453	670.25
1344.80877	671.0
1345.34403	673.5
1345.879235	673.75
1346.414383	671.5
1346.949476	673.5
1347.484513	675.75
1348.019494	671.5
1348.55442	671.5
1349.089289	671.5
1349.624103	673.5
1350.158861	671.5
1350.693563	672.0
1351.228209	672.0
1351.7628	672.0
1352.297334	667.5
1352.831813	673.75
1353.366236	673.25
1353.900604	674.25
1354.434915	673.0
1354.969171	672.5
1355.503371	674.25
1356.037515	671.25
1356.571604	670.25
1357.105636	669.75
1357.639613	672.25
1358.173535	674.25
1358.7074	673.0
1359.24121	670.5
1359.774964	672.75
1360.308662	673.25
1360.842304	674.5
1361.375891	673.5
1361.909422	673.0
1362.442897	671.0
1362.976317	671.75
1363.50968	673.5
1364.042989	675.25
1364.576241	673.25
1365.109438	670.25
1365.642579	672.75
1366.175664	674.75
1366.708693	670.75
1367.241667	672.5
1367.774585	672.0
1368.307448	672.25
1368.840255	668.5
1369.373006	673.75
1369.905701	673.0
1370.438341	674.75
1370.970925	674.0
1371.503454	672.5
1372.035926	670.25
1372.568344	674.0
1373.100705	668.0
1373.633011	677.5
1374.165261	675.0
1374.697456	674.5
1375.229595	672.5
1375.761678	673.25
1376.293705	671.25
1376.825677	673.75
1377.357594	674.5
1377.889455	672.5
1378.42126	675.75
1378.953009	675.0
1379.484703	675.0
1380.016342	674.0
1380.547924	671.5
1381.079452	671.5
1381.610923	674.0
1382.142339	672.75
1382.673699	673.0
1383.205004	673.75
1383.736253	675.0
1384.267447	672.75
1384.798585	674.0
1385.329668	678.5
1385.860695	674.5
1386.391666	680.75
1386.922582	684.5
1387.453442	692.75
1387.984247	731.5
1388.514996	874.75
1389.04569	922.25
1389.576328	743.75
1390.10691	695.0
1390.637437	682.75
1391.167909	676.5
1391.698325	674.5
1392.228685	675.25
1392.75899	671.25
1393.28924	671.75
1393.819434	675.5
1394.349572	673.25
1394.879655	675.5
1395.409683	670.25
1395.939655	673.25
1396.469571	670.5
1396.999432	675.75
1397.529237	673.75
1398.058987	674.5
1398.588682	674.75
1399.118321	676.5
1399.647905	675.5
1400.177433	671.25
1400.706906	674.0
1401.236323	671.75
1401.765685	668.5
1402.294991	673.75
1402.824242	671.0
1403.353437	675.5
1403.882577	670.5
1404.411662	672.75
1404.940691	670.75
1405.469665	672.75
1405.998583	674.25
1406.527446	675.75
1407.056253	673.75
1407.585005	672.5
1408.113702	676.25
1408.642343	676.5
1409.170929	681.0
1409.69946	688.25
1410.227935	695.0
1410.756354	684.0
1411.284719	673.75
1411.813028	673.75
1412.341281	674.25
1412.869479	673.25
1413.397622	672.5
1413.92571	671.5
1414.453742	673.25
1414.981718	673.25
1415.50964	686.75
1416.037506	674.5
1416.565316	673.5
1417.093072	672.75
1417.620772	670.25
1418.148416	675.5
1418.676005	675.25
1419.203539	670.25
1419.731018	669.75
1420.258441	674.5
1420.785809	675.5
1421.313122	673.0
1421.840379	675.0
1422.367582	673.75
1422.894728	673.0
1423.42182	672.0
1423.948856	673.25
1424.475837	673.75
1425.002762	670.75
1425.529633	671.75
1426.056448	669.5
1426.583207	673.25
1427.109912	674.25
1427.636561	674.75
1428.163155	672.0
1428.689694	673.25
1429.216177	674.25
1429.742605	672.5
1430.268978	672.0
1430.795296	672.75
1431.321558	672.75
1431.847765	668.25
1432.373917	670.25
1432.900014	671.5
1433.426056	669.25
1433.952042	669.25
1434.477973	672.5
1435.003849	671.0
1435.529669	672.25
1436.055435	673.25
1436.581145	672.25
1437.1068	672.75
1437.632399	672.25
1438.157944	675.25
1438.683433	675.0
1439.208868	674.5
1439.734247	674.25
1440.25957	673.0
1440.784839	671.25
1441.310053	671.5
1441.835211	671.0
1442.360314	668.0
1442.885362	673.5
1443.410355	672.25
1443.935292	672.5
1444.460175	670.5
1444.985002	672.5
1445.509774	672.0
1446.034491	673.0
1446.559153	670.75
1447.08376	673.75
1447.608312	673.0
1448.132808	674.25
1448.65725	673.25
1449.181636	670.75
1449.705967	673.75
1450.230243	674.75
1450.754464	672.5
1451.27863	668.25
1451.802741	675.25
1452.326797	672.0
1452.850797	670.25
1453.374743	670.75
1453.898633	673.75
1454.422468	675.5
1454.946249	670.25
1455.469974	672.0
1455.993644	672.75
1456.517259	673.75
1457.040819	674.75
1457.564324	669.0
1458.087773	672.25
1458.611168	672.5
1459.134508	673.75
1459.657793	672.75
1460.181022	671.25
1460.704197	675.5
1461.227316	678.5
1461.750381	673.5
1462.27339	679.75
1462.796345	700.5
1463.319244	693.0
1463.842089	672.25
1464.364878	673.5
1464.887613	672.25
1465.410292	670.25
1465.932916	671.0
1466.455486	669.75
1466.978	672.25
1467.50046	675.5
1468.545214	681.5
1469.067508	669.25
1469.589748	671.75
1470.111932	671.0
1470.634062	671.0
1471.156136	672.75
1471.678156	669.75
1472.20012	670.25
1472.72203	672.75
1473.243885	673.25
1473.765685	674.0
1474.28743	673.75
1474.80912	672.5
1475.330755	668.75
1475.852335	673.75
1476.37386	670.5
1476.89533	673.75
1477.416745	672.75
1477.938106	672.0
1478.459411	668.75
1478.980662	672.25
1479.501857	668.75
1480.022998	673.0
1480.544084	673.0
1481.065115	673.0
1481.586091	667.5
1482.107012	674.5
1482.627878	671.25
1483.14869	672.75
1483.669446	671.0
1484.190148	670.5
1484.710794	671.25
1485.231386	670.25
1485.751923	668.0
1486.272406	673.0
1486.792833	672.75
1487.313205	672.25
1487.833523	671.5
1488.353786	671.25
1488.873994	668.5
1489.394147	671.0
1489.914245	669.25
1490.434288	671.0
1490.954277	670.75
1491.474211	669.75
1491.99409	672.75
1492.513914	669.75
1493.033683	669.25
1493.553398	670.0
1494.073057	671.0
1494.592662	669.5
1495.112212	669.5
1495.631708	672.5
1496.151148	667.5
1496.670534	669.75
1497.189865	669.75
1497.709141	669.0
1498.228362	673.0
1498.747529	672.25
1499.266641	669.5
1499.785698	678.75
1500.3047	674.0
1500.823648	670.0
1501.34254	670.0
1501.861379	668.5
1502.380162	670.25
1502.89889	668.75
1503.417564	672.75
1503.936183	668.0
1504.454748	671.75
1504.973257	669.0
1505.491712	671.25
1506.010112	667.75
1506.528458	672.75
1507.046748	668.5
1507.564984	671.5
1508.083166	669.75
1508.601292	669.25
1509.119364	672.25
1509.637381	670.5
1510.155344	674.25
1510.673252	681.25
1511.191105	674.5
1511.708903	673.75
1512.226647	669.0
1512.744336	672.75
1513.261971	669.0
1513.77955	666.0
1514.297076	668.25
1514.814546	672.25
1515.331962	668.0
1515.849323	669.5
1516.366629	668.75
1516.883881	671.0
1517.401078	671.25
1517.918221	667.75
1518.435309	670.0
1518.952342	673.25
1519.469321	672.0
1519.986245	669.75
1520.503114	670.5
1521.019929	669.75
1521.536689	673.0
1522.053395	666.75
1522.570046	672.0
1523.086642	669.75
1523.603184	670.0
1524.119671	667.75
1524.636103	669.75
1525.152481	672.5
1525.668805	689.5
1526.185073	690.75
1526.701288	676.5
1527.217447	669.5
1527.733552	667.75
1528.249603	671.0
1528.765599	670.5
1529.28154	671.75
1529.797427	672.25
1530.313259	670.0
1530.829037	667.0
1531.34476	672.75
1531.860429	669.75
1532.376043	666.5
1532.891602	672.0
1533.407107	669.0
1533.922558	670.5
1534.437954	669.5
1534.953295	671.25
1535.468582	672.25
1535.983815	669.25
1536.498993	675.25
1537.014116	669.75
1537.529185	672.5
1538.044199	670.75
1538.559159	669.25
1539.074064	669.75
1539.588915	669.0
1540.103712	668.75
1540.618454	671.25
1541.133141	672.0
1541.647774	669.5
1542.162353	667.5
1542.676877	670.0
1543.191346	669.0
1543.705761	671.75
1544.220122	671.0
1544.734428	670.5
1545.24868	671.5
1545.762877	667.75
1546.27702	669.75
1546.791109	670.75
1547.305143	675.25
1547.819122	669.5
1548.333047	672.25
1548.846918	671.0
1549.360734	670.0
1549.874496	673.5
1550.388204	668.5
1550.901857	671.75
1551.415455	671.75
1551.929	671.75
1552.442489	672.5
1552.955925	668.25
1553.469306	671.5
1553.982632	671.75
1554.495905	672.75
1555.009123	671.5
1555.522286	670.0
1556.035395	668.75
1556.54845	670.0
1557.06145	672.5
1557.574396	670.25
1558.087288	673.75
1558.600125	671.5
1559.112908	670.5
1559.625637	673.25
1560.138311	671.5
1560.650931	669.5
1561.163497	671.25
1561.676008	670.5
1562.188465	673.5
1562.700867	673.25
1563.213216	674.75
1563.725509	671.25
1564.237749	672.75
1564.749934	674.5
1565.262065	673.75
1565.774142	672.25
1566.286164	672.75
1566.798132	672.25
1567.310046	673.0
1567.821906	673.5
1568.333711	675.25
1568.845462	676.25
1569.357158	671.0
1569.868801	672.75
1570.380389	675.0
1570.891922	675.25
1571.403402	670.75
1571.914827	669.0
1572.426198	672.0
1572.937515	672.25
1573.448777	671.25
1573.959985	672.25
1574.471139	669.25
1574.982239	671.75
1575.493285	669.25
1576.004276	673.5
1576.515213	672.25
1577.026096	670.0
1577.536924	673.0
1578.047698	672.0
1578.558419	674.75
1579.069084	667.75
1579.579696	670.0
1580.090254	670.25
1580.600757	672.0
1581.111206	670.75
1581.621601	671.25
1582.131941	670.5
1582.642228	671.5
1583.15246	669.5
1583.662638	670.0
1584.172762	670.0
1584.682832	673.0
1585.192847	668.5
1585.702809	670.5
1586.212716	671.5
1586.722569	673.25
1587.232368	672.0
1587.742113	671.25
1588.251803	670.5
1588.76144	672.75
1589.271022	671.0
1589.78055	669.0
1590.290024	670.5
1590.799444	668.5
1591.30881	672.5
1591.818121	672.0
1592.327379	669.25
