1042.414189	699.5
1042.980685	698.75
1043.547124	695.25
1044.113505	695.25
1044.679828	697.0
1045.246093	692.75
1045.8123	691.25
1046.378449	687.5
1046.94454	689.5
1047.510573	686.75
1048.076548	691.75
1048.642465	691.5
1049.208325	686.0
1049.774126	686.5
1050.339869	685.25
1050.905555	685.25
1051.471183	689.5
1052.036752	686.0
1052.602264	683.0
1053.167718	684.25
1053.733114	683.75
1054.298452	686.0
1054.863733	687.25
1055.428955	681.5
1055.994119	683.5
1056.559226	680.5
1057.124275	684.5
1057.689266	683.25
1058.254199	682.75
1058.819074	682.0
1059.383891	682.75
1059.94865	677.5
1060.513352	679.0
1061.077996	683.25
1061.642582	677.5
1062.20711	675.75
1062.77158	678.25
1063.335992	677.5
1063.900347	677.0
1064.464643	679.25
1065.028882	678.75
1065.593063	680.25
1066.157187	681.0
1066.721252	679.25
1067.28526	677.75
1067.84921	677.25
1068.413102	680.25
1068.976936	677.0
1069.540713	677.5
1071.231696	679.75
1071.795241	675.25
1072.358729	678.25
1072.922159	676.0
1073.485531	675.0
1074.048845	680.0
1074.612102	680.25
1075.175301	673.5
1075.738442	681.25
1076.301525	676.25
1076.864551	679.75
1077.427519	675.0
1077.990429	679.25
1078.553281	677.75
1079.116076	676.5
1079.678813	676.0
1080.241492	677.5
1080.804114	679.0
1081.366678	676.25
1081.929184	675.0
1082.491633	680.25
1083.054024	679.5
1083.616357	678.5
1084.178632	675.25
1084.74085	675.0
1085.30301	674.5
1085.865113	675.75
1086.427158	678.25
1086.989145	679.75
1087.551074	678.5
1088.112946	672.25
1088.67476	677.25
1089.236517	677.5
1089.798216	676.0
1090.359857	678.25
1090.92144	679.75
1091.482966	675.5
1092.044435	676.0
1092.605845	676.25
1093.167199	684.25
1093.728494	676.0
1094.289732	679.25
1094.850912	677.25
1095.412035	694.0
1095.9731	677.25
1096.534107	679.0
1097.095057	687.0
1097.65595	679.75
1098.216784	676.75
1098.777561	678.5
1099.338281	676.0
1099.898943	679.0
1100.459547	676.5
1101.020094	677.75
1101.580584	675.5
1102.141015	676.25
1102.701389	678.75
1103.261706	676.0
1103.821965	679.0
1104.382167	676.25
1104.942311	678.5
1105.502397	677.75
1106.062426	678.75
1106.622398	678.75
1107.182312	680.25
1107.742168	681.75
1108.301967	678.25
1108.861708	679.5
1109.421392	681.5
1109.981019	682.0
1110.540587	678.0
1111.100099	687.75
1111.659553	679.75
1112.218949	682.75
1112.778288	684.25
1113.33757	681.5
1113.896794	682.5
1114.45596	680.5
1115.015069	679.0
1115.574121	679.75
1116.133115	680.75
1116.692052	679.25
1117.250931	676.25
1117.809753	679.0
1118.368517	677.25
1118.927224	680.5
1119.485873	681.75
1120.044465	680.25
1120.603	674.75
1121.161477	676.25
1121.719897	677.25
1122.278259	677.75
1122.836564	678.25
1123.394812	676.25
1123.953002	677.5
1124.511135	677.0
1125.06921	676.25
1125.627228	676.0
1126.185189	677.0
1126.743092	674.5
1127.300938	675.75
1127.858726	679.25
1128.416457	678.25
1128.974131	678.75
1129.531748	677.5
1130.089307	680.0
1130.646808	673.5
1131.204252	680.75
1131.761639	674.75
1132.318969	677.5
1132.876241	678.75
1133.433456	678.75
1133.990614	677.25
1134.547714	677.5
1135.104757	674.5
1135.661743	678.0
1136.218671	677.75
1136.775542	676.25
1137.332356	677.0
1137.889112	677.0
1138.445811	675.5
1139.002453	675.75
1139.559037	677.0
1140.115565	679.5
1140.672035	677.75
1141.228447	676.25
1141.784803	677.75
1142.341101	676.75
1142.897342	680.75
1143.453525	686.75
1144.009651	690.75
1144.565721	679.75
1145.121732	684.0
1145.677687	682.25
1146.233584	682.0
1146.789424	681.75
1147.345207	694.75
1147.900933	694.25
1148.456601	685.0
1149.012212	687.75
1149.567766	696.5
1150.123263	736.25
1150.678702	824.0
1151.234085	769.75
1151.78941	703.75
1152.344678	681.5
1152.899888	685.25
1153.455042	675.25
1154.010138	676.75
1154.565177	677.75
1155.120159	681.25
1155.675084	677.0
1156.229951	677.0
1156.784762	674.5
1157.339515	675.0
1157.894211	674.5
1158.44885	677.5
1159.003432	676.0
1159.557956	680.0
1160.112424	673.75
1160.666834	675.0
1161.221187	681.25
1161.775483	678.75
1162.329722	676.5
1162.883904	677.25
1163.438029	673.0
1163.992096	678.25
1164.546107	676.5
1165.10006	677.5
1165.653956	674.5
1166.207795	677.5
1166.761577	677.0
1167.315302	678.5
1167.86897	676.5
1168.422581	675.25
1168.976134	677.5
1169.529631	678.75
1170.08307	675.5
1170.636453	675.25
1171.189778	674.5
1171.743046	675.5
1172.296257	677.25
1172.849412	674.75
1173.402509	676.5
1173.955549	674.5
1174.508532	676.0
1175.061458	677.5
1175.614327	675.0
1176.167138	674.25
1176.719893	679.0
1177.272591	676.25
1177.825232	674.25
1178.377816	678.5
1178.930342	675.0
1179.482812	677.75
1180.035225	677.5
1180.587581	679.5
1181.139879	680.0
1181.692121	677.0
1182.244306	681.25
1182.796434	679.5
1183.348504	677.75
1183.900518	679.25
1184.452475	680.75
1185.004375	677.0
1185.556218	678.25
1186.108004	676.0
1186.659733	676.25
1187.211405	679.0
1187.76302	680.5
1188.314578	680.25
1188.866079	678.75
1189.417523	679.25
1189.96891	677.0
1190.520241	676.75
1191.071514	675.5
1191.622731	678.25
1192.17389	676.25
1192.724993	675.5
1193.276039	695.75
1193.827027	675.75
1194.377959	673.0
1194.928834	674.0
1195.479653	673.5
1196.030414	675.25
1196.581118	678.25
1197.131766	675.5
1197.682356	676.25
1198.23289	676.25
1198.783367	675.5
1199.333786	674.0
1199.88415	674.0
1200.434456	674.5
1200.984705	678.0
1201.534898	678.25
1202.085033	675.5
1202.635112	674.75
1203.185134	676.0
1203.735099	677.75
1204.285007	675.5
1204.834859	675.25
1205.384653	676.25
1205.934391	672.5
1206.484072	677.0
1207.033696	678.25
1207.583263	674.75
1208.132774	676.25
1208.682228	674.0
1209.231624	678.5
1209.780965	677.5
1210.330248	675.0
1210.879474	674.0
1211.428644	678.0
1211.977757	678.0
1212.526813	677.25
1213.075813	677.25
1213.624755	680.25
1214.173641	677.5
1214.72247	678.75
1215.271242	677.5
1215.819958	675.75
1216.368617	676.75
1216.917219	680.0
1217.465764	671.5
1218.014253	672.75
1218.562685	677.5
1219.11106	675.5
1219.659378	677.0
1220.20764	677.25
1220.755845	679.5
1221.303993	679.0
1221.852085	678.25
1222.400119	679.75
1222.948097	679.25
1223.496019	679.25
1224.043883	681.5
1224.591691	677.5
1225.139443	679.5
1225.687137	675.5
1226.234775	678.0
1226.782357	678.0
1227.329881	678.0
1227.877349	677.75
1228.42476	679.5
1228.972115	681.25
1229.519413	680.5
1230.066654	681.5
1230.613839	681.5
1231.160967	676.25
1231.708038	678.5
1232.255053	679.5
1232.802011	682.25
1233.348912	680.25
1233.895757	686.75
1234.442545	681.75
1234.989277	680.75
1235.535951	678.0
1236.08257	682.0
1236.629131	680.5
1237.175636	677.0
1237.722085	681.75
1238.268477	681.75
1238.814812	680.0
1239.361091	684.0
1239.907313	678.75
1240.453478	682.75
1240.999587	682.5
1241.54564	679.75
1242.091636	684.75
1242.637575	686.0
1243.183457	682.25
1243.729284	678.75
1244.275053	679.5
1244.820766	681.5
1245.366423	679.75
1245.912022	678.75
1246.457566	679.75
1247.003053	682.75
1247.548483	682.25
1248.093857	685.0
1248.639174	680.75
1249.184435	681.5
1249.729639	683.25
1250.274787	683.75
1250.819878	683.75
1251.364912	683.75
1251.909891	682.75
1252.454812	682.25
1252.999677	679.75
1253.544486	685.25
1254.089238	684.5
1254.633934	681.25
1255.178573	681.75
1255.723156	677.75
1256.267682	678.25
1256.812152	684.25
1257.356565	682.0
1257.900922	679.25
1258.445223	684.75
1258.989467	691.0
1259.533654	687.25
1260.077785	696.5
1260.62186	682.5
1261.165878	685.25
1261.70984	685.25
1262.253745	691.0
1262.797594	694.75
1263.341386	695.75
1263.885123	705.75
1264.428802	721.25
1264.972425	736.25
1265.515992	724.5
1266.059503	709.25
1266.602957	695.25
1267.146354	685.0
1267.689696	686.25
1268.23298	690.0
1268.776209	682.5
1269.319381	686.25
1269.862497	683.0
1270.405556	683.25
1270.948559	683.75
1271.491506	682.75
1272.034396	690.0
1272.57723	687.25
1273.120007	684.5
1273.662728	685.0
1274.205393	684.5
1274.748002	682.75
1275.290554	686.75
1275.83305	686.25
1276.375489	684.0
1276.917872	683.75
1277.460199	687.5
1278.00247	688.75
1278.544684	690.25
1279.086842	692.75
1279.628943	690.5
1280.170989	689.75
1280.712978	693.0
1281.25491	700.25
1281.796787	702.0
1282.338607	705.5
1282.880371	729.0
1283.422078	764.25
1283.963729	843.25
1284.505324	1081.75
1285.046863	1466.0
1285.588345	1474.0
1286.129772	1024.25
1286.671142	790.25
1287.212455	733.0
1287.753713	712.75
1288.294914	702.5
1288.836059	701.0
1289.377147	692.25
1289.91818	694.0
1290.459156	695.25
1291.000076	691.0
1291.54094	691.75
1292.081747	684.25
1292.622499	686.25
1293.163194	685.25
1293.703833	685.5
1294.244415	684.5
1294.784942	685.0
1295.325412	681.75
1295.865826	687.75
1296.406184	687.25
1296.946486	687.25
1297.486731	684.5
1298.026921	686.5
1298.567054	680.5
1299.107131	684.5
1299.647152	684.75
1300.187116	681.0
1300.727025	685.25
1301.266877	682.0
1301.806673	687.75
1302.346413	687.0
1302.886097	686.5
1303.425725	685.5
1303.965297	684.25
1304.504812	687.0
1305.044272	684.5
1305.583675	683.25
1306.123022	684.5
1306.662313	687.75
1307.201548	681.0
1307.740727	680.5
1308.279849	683.75
1308.818916	681.5
1309.357926	679.25
1309.896881	682.0
1310.435779	683.75
1310.974621	683.75
1311.513407	684.25
1312.052137	678.75
1312.590811	682.25
1313.129429	680.25
1313.667991	683.0
1314.206497	681.75
1314.744946	681.0
1315.28334	679.75
1315.821678	685.5
1316.359959	681.0
1316.898184	682.0
1317.436354	679.5
1317.974467	680.0
1318.512525	679.25
1319.050526	681.5
1319.588471	683.0
1320.12636	679.5
1320.664194	680.25
1321.201971	678.25
1321.739692	683.25
1322.277357	685.0
1322.814967	679.75
1323.35252	680.0
1323.890017	682.25
1324.427458	678.25
1324.964843	678.5
1325.502173	683.25
1326.039446	688.75
1327.113824	682.0
1327.65093	686.25
1328.187979	681.5
1328.724972	680.5
1329.26191	679.0
1329.798791	680.0
1330.335617	681.5
1330.872386	679.25
1331.4091	680.75
1331.945758	684.5
1332.48236	682.75
1333.018905	679.5
1333.555395	680.0
1334.091829	678.25
1334.628207	682.75
1335.164529	676.25
1335.700796	681.5
1336.237006	684.25
1336.77316	680.75
1337.309259	680.5
1337.845301	681.5
1338.381288	680.0
1338.917219	679.25
1339.453094	679.5
1339.988913	678.25
1340.524676	679.5
1341.060383	678.5
1341.596034	679.0
1342.13163	680.75
1342.66717	683.0
1343.202653	682.5
1343.738081	684.5
1344.273453	682.0
1344.80877	681.0
1345.34403	676.0
1345.879235	679.5
1346.414383	681.0
1346.949476	680.5
1347.484513	680.5
1348.019494	680.25
1348.55442	680.5
1349.089289	681.0
1349.624103	676.75
1350.158861	684.5
1350.693563	678.25
1351.228209	679.0
1351.7628	681.75
1352.297334	683.5
1352.831813	677.75
1353.366236	683.75
1353.900604	681.5
1354.434915	681.25
1354.969171	685.0
1355.503371	681.5
1356.037515	682.75
1356.571604	680.5
1357.105636	681.25
1357.639613	682.0
1358.173535	678.75
1358.7074	679.5
1359.24121	683.5
1359.774964	685.5
1360.308662	683.5
1360.842304	679.5
1361.375891	681.5
1361.909422	682.75
1362.442897	683.25
1362.976317	681.75
1363.50968	681.0
1364.042989	680.25
1364.576241	685.5
1365.109438	684.75
1365.642579	682.0
1366.175664	686.0
1366.708693	686.0
1367.241667	683.75
1367.774585	684.25
1368.307448	682.0
1368.840255	685.25
1369.373006	684.25
1369.905701	696.5
1370.438341	708.25
1370.970925	697.0
1371.503454	687.5
1372.035926	688.75
1372.568344	683.25
1373.100705	686.25
1373.633011	681.75
1374.165261	682.75
1374.697456	685.5
1375.229595	684.0
1375.761678	686.5
1376.293705	683.75
1376.825677	686.25
1377.357594	684.5
1377.889455	688.0
1378.42126	682.25
1378.953009	688.0
1379.484703	683.5
1380.016342	685.25
1380.547924	685.75
1381.079452	689.0
1381.610923	690.75
1382.142339	690.25
1382.673699	690.5
1383.205004	694.25
1383.736253	696.25
1384.267447	698.75
1384.798585	701.75
1385.329668	712.0
1385.860695	722.75
1386.391666	739.0
1386.922582	769.75
1387.453442	875.75
1387.984247	1263.25
1388.514996	2200.75
1389.04569	2014.75
1389.576328	1086.75
1390.10691	804.5
1390.637437	741.0
1391.167909	721.75
1391.698325	709.5
1392.228685	699.5
1392.75899	698.5
1393.28924	692.75
1393.819434	694.0
1394.349572	692.5
1394.879655	690.75
1395.409683	688.0
1395.939655	686.75
1396.469571	686.75
1396.999432	690.0
1397.529237	686.75
1398.058987	683.75
1398.588682	685.25
1399.118321	683.25
1399.647905	687.5
1400.177433	684.25
1400.706906	683.0
1401.236323	685.25
1401.765685	686.25
1402.294991	685.5
1402.824242	683.0
1403.353437	684.0
1403.882577	682.5
1404.411662	684.0
1404.940691	684.75
1405.469665	689.25
1405.998583	683.5
1406.527446	686.5
1407.056253	692.0
1407.585005	692.75
1408.113702	697.25
1408.642343	703.25
1409.170929	724.0
1409.69946	770.75
1410.227935	782.5
1410.756354	748.75
1411.284719	707.0
1411.813028	692.75
1412.341281	686.75
1412.869479	685.75
1413.397622	686.0
1413.92571	680.5
1414.453742	684.0
1414.981718	681.0
1415.50964	697.75
1416.037506	683.0
1416.565316	683.5
1417.093072	678.25
1417.620772	681.75
1418.148416	678.5
1418.676005	679.75
1419.203539	682.25
1419.731018	679.0
1420.258441	679.5
1420.785809	681.0
1421.313122	678.75
1421.840379	680.0
1422.367582	679.75
1422.894728	678.25
1423.42182	681.25
1423.948856	683.75
1424.475837	681.75
1425.002762	681.25
1425.529633	678.5
1426.056448	683.5
1426.583207	685.25
1427.109912	679.0
1427.636561	679.25
1428.163155	682.25
1428.689694	681.5
1429.216177	676.0
1429.742605	683.0
1430.268978	680.0
1430.795296	680.25
1431.321558	679.75
1431.847765	681.5
1432.373917	678.75
1432.900014	676.25
1433.426056	673.5
1433.952042	677.5
1434.477973	679.0
1435.003849	675.5
1435.529669	679.75
1436.055435	678.25
1436.581145	678.5
1437.1068	679.0
1437.632399	680.25
1438.157944	676.75
1438.683433	684.0
1439.208868	677.75
1439.734247	678.0
1440.25957	677.0
1440.784839	675.0
1441.310053	678.5
1441.835211	675.75
1442.360314	682.0
1442.885362	677.75
1443.410355	680.0
1443.935292	677.25
1444.460175	679.25
1444.985002	679.25
1445.509774	674.25
1446.034491	673.75
1446.559153	676.25
1447.08376	680.75
1447.608312	676.25
1448.132808	676.75
1448.65725	678.0
1449.181636	677.0
1449.705967	677.75
1450.230243	678.25
1450.754464	684.0
1451.27863	675.0
1451.802741	677.0
1452.326797	676.75
1452.850797	676.75
1453.374743	675.25
1453.898633	674.25
1454.422468	673.75
1454.946249	676.5
1455.469974	675.5
1455.993644	678.5
1456.517259	677.0
1457.040819	673.0
1457.564324	671.5
1458.087773	675.25
1458.611168	675.5
1459.134508	678.75
1459.657793	680.75
1460.181022	680.75
1460.704197	677.0
1461.227316	675.5
1461.750381	675.75
1462.27339	677.0
1462.796345	691.75
1463.319244	688.25
1463.842089	675.25
1464.364878	677.25
1464.887613	675.0
1465.410292	672.75
1465.932916	677.5
1466.455486	677.75
1466.978	672.5
1467.50046	676.25
1468.022864	678.0
1468.545214	676.0
1469.067508	674.25
1469.589748	674.0
1470.111932	681.25
1470.634062	675.5
1471.156136	675.0
1471.678156	679.25
1472.20012	677.5
1472.72203	676.0
1473.243885	678.75
1473.765685	674.25
1474.28743	674.0
1474.80912	676.25
1475.330755	672.75
1475.852335	673.75
1476.37386	674.75
1476.89533	675.25
1477.416745	677.25
1477.938106	676.75
1478.459411	674.25
1478.980662	672.75
1479.501857	674.5
1480.022998	675.75
1480.544084	673.75
1481.065115	673.0
1481.586091	676.25
1482.107012	671.75
1482.627878	674.25
1483.14869	676.75
1483.669446	677.25
1484.190148	673.0
1484.710794	671.75
1485.231386	673.25
1485.751923	674.25
1486.272406	673.75
1486.792833	672.25
1487.313205	673.75
1487.833523	673.5
1488.353786	673.0
1488.873994	673.75
1489.394147	672.25
1489.914245	675.0
1490.434288	671.75
1490.954277	670.5
1491.474211	671.0
1491.99409	675.0
1492.513914	672.75
1493.033683	671.0
1493.553398	670.75
1494.073057	672.5
1494.592662	670.25
1495.112212	676.75
1495.631708	669.5
1496.151148	675.0
1496.670534	668.75
1497.189865	673.25
1497.709141	672.25
1498.228362	674.0
1498.747529	671.75
1499.266641	672.75
1499.785698	679.75
1500.3047	674.0
1500.823648	671.0
1501.34254	671.75
1501.861379	671.75
1502.380162	676.25
1502.89889	671.75
1503.417564	672.5
1503.936183	672.5
1504.454748	672.75
1504.973257	670.0
1505.491712	673.75
1506.010112	673.25
1506.528458	674.0
1507.046748	673.25
1507.564984	672.5
1508.083166	673.0
1508.601292	672.0
1509.119364	676.25
1509.637381	671.75
1510.155344	671.5
1510.673252	680.25
1511.191105	672.75
1511.708903	672.5
1512.226647	671.25
1512.744336	671.5
1513.261971	671.75
1513.77955	672.25
1514.297076	674.0
1514.814546	672.25
1515.331962	672.75
1515.849323	670.75
1516.366629	672.5
1516.883881	675.25
1517.401078	672.75
1517.918221	669.75
1518.435309	674.5
1518.952342	671.0
1519.469321	671.75
1519.986245	670.75
1520.503114	672.0
1521.019929	670.75
1521.536689	675.75
1522.053395	671.25
1522.570046	669.75
1523.086642	671.25
1523.603184	671.0
1524.119671	673.75
1524.636103	670.25
1525.152481	672.25
1525.668805	677.75
1526.185073	684.25
1526.701288	674.75
1527.217447	673.75
1527.733552	671.75
1528.249603	673.75
1528.765599	670.75
1529.28154	671.5
1529.797427	674.0
1530.313259	674.25
1530.829037	669.75
1531.34476	672.5
1531.860429	673.75
1532.376043	667.5
1532.891602	669.25
1533.407107	675.5
1533.922558	670.5
1534.437954	669.25
1534.953295	672.25
1535.468582	671.25
1535.983815	669.75
1536.498993	672.0
1537.014116	672.0
1537.529185	672.5
1538.044199	674.75
1538.559159	672.0
1539.074064	675.0
1539.588915	670.25
1540.103712	674.75
1540.618454	670.0
1541.133141	671.75
1541.647774	672.5
1542.162353	672.0
1542.676877	670.0
1543.191346	670.75
1543.705761	672.0
1544.220122	671.75
1544.734428	671.75
1545.24868	670.5
1545.762877	670.75
1546.27702	672.0
1546.791109	671.75
1547.305143	669.5
1547.819122	671.75
1548.333047	673.25
1548.846918	670.75
1549.360734	671.75
1549.874496	669.25
1550.388204	671.5
1550.901857	674.5
1551.415455	670.0
1551.929	672.75
1552.442489	674.0
1552.955925	672.5
1553.469306	674.0
1553.982632	672.5
1554.495905	670.25
1555.009123	671.25
1555.522286	672.25
1556.035395	675.25
1556.54845	672.75
1557.06145	675.0
1557.574396	673.75
1558.087288	672.5
1558.600125	673.5
1559.112908	669.5
1559.625637	673.0
1560.138311	669.5
1560.650931	673.75
1561.163497	673.5
1561.676008	671.5
1562.188465	674.0
1562.700867	674.75
1563.213216	671.75
1563.725509	671.75
1564.237749	676.5
1564.749934	674.0
1565.262065	675.0
1565.774142	670.75
1566.286164	677.25
1566.798132	673.75
1567.310046	675.75
1567.821906	672.25
1568.333711	673.25
1568.845462	673.5
1569.357158	671.0
1569.868801	671.75
1570.380389	673.25
1570.891922	673.25
1571.403402	673.0
1571.914827	671.0
1572.426198	672.5
1572.937515	670.0
1573.448777	671.75
1573.959985	674.75
1574.471139	671.5
1574.982239	673.25
1575.493285	673.0
1576.004276	673.0
1576.515213	671.0
1577.026096	670.0
1577.536924	670.25
1578.047698	672.5
1578.558419	671.25
1579.069084	671.75
1579.579696	673.0
1580.090254	673.5
1580.600757	672.0
1581.111206	669.5
1581.621601	673.0
1582.131941	676.5
1582.642228	670.25
1583.15246	675.5
1583.662638	674.0
1584.172762	674.5
1584.682832	673.25
1585.192847	677.0
1585.702809	672.5
1586.212716	673.25
1586.722569	672.75
1587.232368	673.25
1587.742113	672.75
1588.251803	670.25
1588.76144	675.75
1589.271022	670.25
1589.78055	670.25
1590.290024	671.0
1590.799444	674.5
1591.30881	677.25
1591.818121	670.0
1592.327379	673.75
