1042.414189	714.4000244
1042.980685	712.2000122
1043.547124	709.5999756
1044.113505	707.7999878
1044.679828	706.2000122
1045.246093	708.2000122
1045.8123	706.2000122
1046.378449	703.4000244
1046.94454	706.7999878
1047.510573	702.4000244
1048.076548	705.5999756
1048.642465	698.7999878
1049.208325	702.5999756
1049.774126	698.7999878
1050.339869	697.0
1050.905555	700.7999878
1051.471183	695.4000244
1052.036752	696.5999756
1052.602264	698.0
1053.167718	694.7999878
1053.733114	694.0
1054.298452	697.0
1054.863733	695.2000122
1055.428955	697.0
1055.994119	691.5999756
1056.559226	694.4000244
1057.124275	694.5999756
1057.689266	697.2000122
1058.254199	692.7999878
1058.819074	691.0
1059.383891	693.0
1059.94865	693.0
1060.513352	692.5999756
1061.077996	690.5999756
1061.642582	691.7999878
1062.20711	694.7999878
1062.77158	695.5999756
1063.335992	694.0
1063.900347	695.2000122
1064.464643	693.0
1065.028882	693.7999878
1065.593063	692.0
1066.157187	694.5999756
1066.721252	690.7999878
1067.28526	690.7999878
1067.84921	694.5999756
1068.413102	691.4000244
1068.976936	689.0
1069.540713	693.2000122
1070.104431	699.5999756
1070.668092	691.5999756
1071.231696	693.0
1071.795241	689.4000244
1072.358729	694.7999878
1072.922159	693.4000244
1073.485531	692.5999756
1074.048845	689.2000122
1074.612102	696.4000244
1075.175301	691.2000122
1075.738442	693.4000244
1076.301525	692.2000122
1076.864551	689.4000244
1077.427519	691.5999756
1077.990429	693.2000122
1078.553281	689.4000244
1079.116076	688.7999878
1079.678813	692.4000244
1080.241492	696.0
1080.804114	692.7999878
1081.366678	691.0
1081.929184	697.5999756
1082.491633	694.4000244
1083.054024	694.4000244
1083.616357	694.0
1084.178632	692.0
1084.74085	696.4000244
1085.30301	697.5999756
1085.865113	696.5999756
1086.427158	694.0
1086.989145	696.2000122
1087.551074	695.4000244
1088.112946	699.2000122
1088.67476	696.4000244
1089.236517	697.7999878
1089.798216	699.2000122
1090.359857	697.0
1090.92144	695.0
1091.482966	697.2000122
1092.044435	697.4000244
1092.605845	695.7999878
1093.167199	697.7999878
1093.728494	696.2000122
1094.289732	694.7999878
1094.850912	696.0
1095.412035	705.7999878
1095.9731	697.4000244
1096.534107	699.5999756
1097.095057	703.7999878
1097.65595	695.4000244
1098.216784	693.5999756
1098.777561	693.4000244
1099.338281	695.4000244
1099.898943	691.4000244
1100.459547	692.5999756
1101.020094	692.4000244
1101.580584	693.5999756
1102.141015	693.7999878
1102.701389	692.2000122
1103.261706	693.7999878
1103.821965	690.0
1104.382167	692.4000244
1104.942311	689.5999756
1105.502397	692.0
1106.062426	691.0
1106.622398	689.5999756
1107.182312	690.7999878
1107.742168	690.4000244
1108.301967	689.0
1108.861708	691.7999878
1109.421392	690.4000244
1109.981019	690.5999756
1110.540587	692.0
1111.100099	690.7999878
1111.659553	693.7999878
1112.218949	691.7999878
1112.778288	692.4000244
1113.33757	691.5999756
1113.896794	686.2000122
1114.45596	689.4000244
1115.015069	692.2000122
1115.574121	686.7999878
1116.133115	689.0
1116.692052	689.0
1117.250931	691.4000244
1117.809753	691.5999756
1118.368517	689.5999756
1118.927224	690.2000122
1119.485873	690.7999878
1120.044465	689.4000244
1120.603	691.4000244
1121.161477	691.2000122
1121.719897	691.0
1122.278259	686.5999756
1122.836564	690.0
1123.394812	689.5999756
1123.953002	690.5999756
1124.511135	691.5999756
1125.06921	688.0
1125.627228	689.5999756
1126.185189	689.7999878
1126.743092	693.2000122
1127.300938	689.5999756
1127.858726	693.7999878
1128.416457	688.4000244
1128.974131	689.4000244
1129.531748	690.7999878
1130.089307	689.2000122
1130.646808	690.0
1131.204252	691.0
1131.761639	690.2000122
1132.318969	686.2000122
1132.876241	687.7999878
1133.433456	687.4000244
1133.990614	690.0
1134.547714	688.7999878
1135.104757	690.4000244
1135.661743	688.7999878
1136.218671	692.0
1136.775542	691.4000244
1137.332356	686.2000122
1137.889112	691.0
1138.445811	688.5999756
1139.002453	687.5999756
1139.559037	691.7999878
1140.115565	689.0
1140.672035	692.5999756
1141.228447	690.2000122
1141.784803	689.0
1142.341101	688.2000122
1142.897342	691.0
1143.453525	689.0
1144.009651	692.0
1144.565721	689.4000244
1145.121732	689.4000244
1145.677687	690.4000244
1146.233584	688.5999756
1146.789424	690.4000244
1147.345207	691.2000122
1147.900933	689.0
1148.456601	689.7999878
1149.012212	691.4000244
1149.567766	692.0
1150.123263	689.7999878
1150.678702	690.5999756
1151.234085	687.0
1151.78941	689.7999878
1152.344678	695.2000122
1152.899888	694.2000122
1153.455042	691.5999756
1154.010138	692.7999878
1154.565177	691.2000122
1155.120159	689.4000244
1155.675084	687.2000122
1156.229951	691.2000122
1156.784762	690.5999756
1157.339515	689.4000244
1157.894211	689.4000244
1158.44885	689.2000122
1159.003432	691.7999878
1159.557956	689.2000122
1160.112424	688.5999756
1160.666834	690.4000244
1161.221187	689.7999878
1161.775483	696.0
1162.329722	687.2000122
1162.883904	690.4000244
1163.438029	691.2000122
1163.992096	691.2000122
1164.546107	688.5999756
1165.10006	685.4000244
1165.653956	689.5999756
1166.207795	689.5999756
1166.761577	690.2000122
1167.315302	694.0
1167.86897	691.0
1168.422581	689.7999878
1168.976134	687.4000244
1169.529631	691.0
1170.08307	690.7999878
1170.636453	689.2000122
1171.189778	689.2000122
1171.743046	689.7999878
1172.296257	690.2000122
1172.849412	686.5999756
1173.402509	688.7999878
1173.955549	690.7999878
1174.508532	693.2000122
1175.061458	693.2000122
1175.614327	687.2000122
1176.167138	690.5999756
1176.719893	690.0
1177.272591	687.4000244
1177.825232	690.5999756
1178.377816	693.2000122
1178.930342	690.7999878
1179.482812	692.7999878
1180.035225	692.4000244
1180.587581	688.4000244
1181.139879	691.4000244
1181.692121	690.0
1182.244306	688.2000122
1182.796434	692.4000244
1183.348504	690.5999756
1183.900518	689.7999878
1184.452475	694.2000122
1185.004375	694.0
1185.556218	691.2000122
1186.108004	690.5999756
1186.659733	693.5999756
1187.211405	691.7999878
1187.76302	692.2000122
1188.314578	692.2000122
1188.866079	687.7999878
1189.417523	695.0
1189.96891	688.7999878
1190.520241	691.2000122
1191.071514	689.2000122
1191.622731	690.0
1192.17389	688.2000122
1192.724993	690.7999878
1193.276039	709.7999878
1193.827027	689.5999756
1194.377959	691.7999878
1194.928834	688.4000244
1195.479653	695.7999878
1196.030414	695.4000244
1196.581118	692.7999878
1197.131766	692.4000244
1197.682356	687.5999756
1198.23289	689.5999756
1198.783367	688.7999878
1199.333786	693.5999756
1199.88415	691.4000244
1200.434456	689.7999878
1200.984705	692.5999756
1201.534898	689.0
1202.085033	693.2000122
1202.635112	690.5999756
1203.185134	693.5999756
1203.735099	688.4000244
1204.285007	695.0
1204.834859	692.0
1205.384653	690.7999878
1205.934391	692.4000244
1206.484072	691.7999878
1207.033696	688.2000122
1207.583263	689.0
1208.132774	688.0
1208.682228	689.0
1209.231624	687.2000122
1209.780965	692.2000122
1210.330248	689.7999878
1210.879474	689.4000244
1211.428644	693.5999756
1211.977757	694.0
1212.526813	690.2000122
1213.075813	693.5999756
1213.624755	690.2000122
1214.173641	690.4000244
1214.72247	694.5999756
1215.271242	692.4000244
1215.819958	694.2000122
1216.368617	689.7999878
1216.917219	689.7999878
1217.465764	695.7999878
1218.014253	692.7999878
1218.562685	694.4000244
1219.11106	690.2000122
1219.659378	692.7999878
1220.20764	692.0
1220.755845	692.2000122
1221.303993	694.4000244
1221.852085	693.7999878
1222.400119	689.2000122
1222.948097	691.7999878
1223.496019	691.5999756
1224.043883	692.7999878
1224.591691	689.2000122
1225.139443	690.7999878
1225.687137	693.0
1226.234775	692.7999878
1226.782357	692.2000122
1227.329881	691.7999878
1227.877349	694.2000122
1228.42476	693.4000244
1228.972115	690.2000122
1229.519413	690.5999756
1230.066654	691.4000244
1230.613839	689.5999756
1231.160967	689.7999878
1231.708038	693.2000122
1232.255053	692.4000244
1232.802011	695.7999878
1233.348912	692.5999756
1233.895757	690.2000122
1234.442545	691.7999878
1234.989277	693.5999756
1235.535951	692.4000244
1236.08257	695.5999756
1236.629131	695.2000122
1237.175636	692.7999878
1237.722085	693.7999878
1238.268477	693.5999756
1238.814812	693.5999756
1239.361091	695.0
1239.907313	691.0
1240.453478	692.0
1240.999587	694.7999878
1241.54564	692.2000122
1242.091636	695.4000244
1242.637575	696.2000122
1243.183457	693.5999756
1243.729284	696.2000122
1244.275053	691.2000122
1244.820766	697.2000122
1245.366423	691.0
1245.912022	697.2000122
1246.457566	693.0
1247.003053	694.2000122
1247.548483	693.2000122
1248.093857	694.7999878
1248.639174	694.5999756
1249.184435	695.0
1249.729639	696.4000244
1250.274787	694.4000244
1250.819878	696.4000244
1251.364912	690.7999878
1251.909891	696.4000244
1252.454812	696.2000122
1252.999677	693.2000122
1253.544486	696.0
1254.089238	696.4000244
1254.633934	697.4000244
1255.178573	694.7999878
1255.723156	696.4000244
1256.267682	701.4000244
1256.812152	700.4000244
1257.356565	700.4000244
1257.900922	704.0
1258.445223	703.5999756
1258.989467	701.2000122
1259.533654	704.7999878
1260.077785	712.2000122
1260.62186	709.7999878
1261.165878	707.4000244
1261.70984	711.0
1262.253745	717.2000122
1262.797594	714.4000244
1263.341386	717.2000122
1263.885123	711.5999756
1264.428802	713.4000244
1264.972425	707.2000122
1265.515992	702.0
1266.059503	703.5999756
1266.602957	701.4000244
1267.146354	699.5999756
1267.689696	703.2000122
1268.23298	701.5999756
1268.776209	704.4000244
1269.319381	700.5999756
1269.862497	697.7999878
1270.405556	699.7999878
1270.948559	700.0
1271.491506	700.0
1272.034396	699.7999878
1272.57723	702.7999878
1273.120007	700.5999756
1273.662728	702.0
1274.205393	703.2000122
1274.748002	703.4000244
1275.290554	703.0
1275.83305	704.4000244
1276.375489	706.0
1276.917872	704.0
1277.460199	705.5999756
1278.00247	710.2000122
1278.544684	711.5999756
1279.086842	714.7999878
1279.628943	724.4000244
1280.170989	736.2000122
1280.712978	764.2000122
1281.25491	815.4000244
1281.796787	922.0
1282.338607	1082.199951
1282.880371	1143.400024
1283.422078	998.5999756
1283.963729	861.2000122
1284.505324	785.7999878
1285.046863	751.0
1285.588345	729.2000122
1286.129772	718.7999878
1286.671142	710.2000122
1287.212455	711.2000122
1287.753713	711.0
1288.294914	704.5999756
1288.836059	707.0
1289.377147	702.5999756
1289.91818	703.2000122
1290.459156	704.4000244
1291.000076	703.4000244
1291.54094	700.0
1292.081747	699.7999878
1292.622499	699.4000244
1293.163194	702.7999878
1293.703833	699.0
1294.244415	703.0
1294.784942	701.2000122
1295.325412	702.5999756
1295.865826	700.4000244
1296.406184	701.0
1296.946486	704.5999756
1297.486731	696.7999878
1298.026921	697.7999878
1298.567054	699.4000244
1299.107131	693.5999756
1299.647152	698.4000244
1300.187116	700.5999756
1300.727025	698.4000244
1301.266877	700.0
1301.806673	697.0
1302.346413	697.0
1302.886097	699.7999878
1303.425725	701.0
1303.965297	696.2000122
1304.504812	696.7999878
1305.044272	699.0
1305.583675	695.4000244
1306.123022	690.7999878
1306.662313	703.2000122
1307.201548	696.5999756
1307.740727	700.4000244
1308.279849	692.2000122
1308.818916	698.5999756
1309.357926	696.2000122
1309.896881	697.0
1310.435779	695.2000122
1310.974621	694.2000122
1311.513407	693.7999878
1312.052137	697.7999878
1312.590811	693.2000122
1313.129429	694.0
1313.667991	695.7999878
1314.206497	690.4000244
1314.744946	695.4000244
1315.28334	697.5999756
1315.821678	694.0
1316.359959	694.5999756
1316.898184	693.5999756
1317.436354	697.5999756
1317.974467	694.4000244
1318.512525	695.0
1319.050526	692.7999878
1319.588471	693.5999756
1320.12636	698.2000122
1320.664194	695.0
1321.201971	693.5999756
1321.739692	696.7999878
1322.277357	700.5999756
1322.814967	692.4000244
1323.35252	693.4000244
1323.890017	696.2000122
1324.427458	694.2000122
1324.964843	697.2000122
1325.502173	696.2000122
1326.039446	697.2000122
1326.576663	695.0
1327.113824	695.4000244
1327.65093	694.0
1328.187979	694.2000122
1328.724972	687.5999756
1329.26191	695.0
1329.798791	692.7999878
1330.335617	692.4000244
1330.872386	689.7999878
1331.4091	696.4000244
1331.945758	698.0
1332.48236	695.2000122
1333.018905	695.7999878
1333.555395	694.7999878
1334.091829	694.7999878
1334.628207	694.0
1335.164529	694.7999878
1335.700796	694.7999878
1336.237006	695.0
1336.77316	697.2000122
1337.309259	694.0
1337.845301	699.5999756
1338.381288	696.5999756
1338.917219	696.5999756
1339.453094	693.2000122
1339.988913	693.7999878
1340.524676	697.5999756
1341.060383	697.2000122
1341.596034	696.7999878
1342.13163	695.4000244
1342.66717	695.0
1343.202653	693.0
1343.738081	701.2000122
1344.273453	694.7999878
1344.80877	697.0
1345.34403	697.4000244
1345.879235	693.7999878
1346.414383	696.4000244
1346.949476	695.2000122
1347.484513	696.5999756
1348.019494	696.5999756
1348.55442	693.0
1349.089289	696.4000244
1349.624103	697.5999756
1350.158861	695.5999756
1350.693563	692.5999756
1351.228209	695.7999878
1351.7628	694.5999756
1352.297334	692.0
1352.831813	693.5999756
1353.366236	693.2000122
1353.900604	695.5999756
1354.434915	694.5999756
1354.969171	696.0
1355.503371	697.0
1356.037515	694.7999878
1356.571604	698.4000244
1357.105636	699.2000122
1357.639613	696.4000244
1358.173535	694.7999878
1358.7074	695.0
1359.24121	695.7999878
1359.774964	696.7999878
1360.308662	694.5999756
1360.842304	700.0
1361.909422	697.2000122
1362.442897	703.4000244
1362.976317	697.4000244
1363.50968	699.7999878
1364.042989	697.0
1364.576241	696.5999756
1365.109438	701.4000244
1365.642579	694.7999878
1366.175664	697.2000122
1366.708693	700.5999756
1367.241667	702.2000122
1367.774585	699.5999756
1368.307448	698.4000244
1368.840255	706.4000244
1369.373006	711.5999756
1369.905701	716.2000122
1370.438341	708.2000122
1370.970925	700.2000122
1371.503454	697.4000244
1372.035926	700.2000122
1372.568344	698.5999756
1373.100705	703.0
1373.633011	700.7999878
1374.165261	700.2000122
1374.697456	702.7999878
1375.229595	702.0
1375.761678	701.5999756
1376.293705	703.0
1376.825677	703.5999756
1377.357594	701.2000122
1377.889455	701.0
1378.42126	703.2000122
1378.953009	707.7999878
1379.484703	705.5999756
1380.016342	706.4000244
1380.547924	708.2000122
1381.079452	711.2000122
1381.610923	715.7999878
1382.142339	711.5999756
1382.673699	718.7999878
1383.205004	726.7999878
1383.736253	734.4000244
1384.267447	741.7999878
1384.798585	762.0
1385.329668	803.4000244
1385.860695	879.5999756
1386.391666	1086.599976
1386.922582	1443.199951
1387.453442	1563.0
1387.984247	1227.0
1388.514996	934.5999756
1389.04569	817.2000122
1389.576328	762.7999878
1390.10691	745.5999756
1390.637437	732.0
1391.167909	721.2000122
1391.698325	722.2000122
1392.228685	714.0
1392.75899	706.2000122
1393.28924	713.2000122
1393.819434	706.5999756
1394.349572	706.2000122
1394.879655	702.7999878
1395.409683	705.7999878
1395.939655	704.7999878
1396.469571	703.7999878
1396.999432	706.4000244
1397.529237	699.7999878
1398.058987	702.2000122
1398.588682	704.0
1399.118321	701.7999878
1399.647905	702.4000244
1400.177433	703.0
1400.706906	707.4000244
1401.236323	700.2000122
1401.765685	699.0
1402.294991	704.7999878
1402.824242	702.7999878
1403.353437	704.0
1403.882577	703.7999878
1404.411662	708.2000122
1404.940691	706.2000122
1405.469665	707.4000244
1405.998583	709.7999878
1406.527446	713.4000244
1407.056253	718.4000244
1407.585005	724.7999878
1408.113702	730.7999878
1408.642343	732.0
1409.170929	732.7999878
1409.69946	726.5999756
1410.227935	722.5999756
1410.756354	713.2000122
1411.284719	704.5999756
1411.813028	705.7999878
1412.341281	702.4000244
1412.869479	702.7999878
1413.397622	698.5999756
1413.92571	701.2000122
1414.453742	697.7999878
1414.981718	696.2000122
1415.50964	707.0
1416.037506	699.2000122
1416.565316	692.7999878
1417.093072	698.0
1417.620772	694.0
1418.148416	700.5999756
1418.676005	696.2000122
1419.203539	696.7999878
1419.731018	698.5999756
1420.258441	695.2000122
1420.785809	697.2000122
1421.313122	700.2000122
1421.840379	696.2000122
1422.367582	692.4000244
1422.894728	697.4000244
1423.42182	697.2000122
1423.948856	694.0
1424.475837	694.7999878
1425.002762	693.7999878
1425.529633	695.2000122
1426.056448	695.7999878
1426.583207	693.4000244
1427.109912	693.7999878
1427.636561	693.5999756
1428.163155	696.0
1428.689694	696.2000122
1429.216177	693.2000122
1429.742605	696.0
1430.268978	690.5999756
1430.795296	695.5999756
1431.321558	692.5999756
1431.847765	693.0
1432.373917	693.7999878
1432.900014	697.7999878
1433.426056	691.0
1433.952042	689.5999756
1434.477973	692.4000244
1435.003849	693.0
1435.529669	692.2000122
1436.055435	693.0
1436.581145	691.7999878
1437.1068	694.0
1437.632399	694.2000122
1438.157944	692.2000122
1438.683433	689.7999878
1439.208868	690.5999756
1439.734247	692.2000122
1440.25957	690.5999756
1440.784839	695.2000122
1441.310053	689.7999878
1441.835211	696.4000244
1442.360314	694.0
1442.885362	690.2000122
1443.410355	693.2000122
1443.935292	690.5999756
1444.460175	693.2000122
1444.985002	697.4000244
1445.509774	690.5999756
1446.034491	692.4000244
1446.559153	692.2000122
1447.08376	694.4000244
1447.608312	692.2000122
1448.132808	691.7999878
1448.65725	691.5999756
1449.181636	697.5999756
1449.705967	694.2000122
1450.230243	692.7999878
1450.754464	691.5999756
1451.27863	692.4000244
1451.802741	695.7999878
1452.326797	693.7999878
1452.850797	695.5999756
1453.374743	689.7999878
1453.898633	696.5999756
1454.422468	690.0
1454.946249	697.0
1455.469974	693.2000122
1455.993644	693.2000122
1456.517259	695.0
1457.040819	690.4000244
1457.564324	694.0
1458.087773	692.0
1458.611168	692.0
1459.134508	691.0
1459.657793	691.5999756
1460.181022	690.2000122
1460.704197	691.5999756
1461.227316	694.5999756
1461.750381	693.4000244
1462.27339	695.4000244
1462.796345	720.7999878
1463.319244	707.7999878
1463.842089	692.4000244
1464.364878	691.7999878
1464.887613	689.7999878
1465.410292	691.0
1465.932916	689.7999878
1466.455486	692.2000122
1466.978	692.4000244
1467.50046	689.2000122
1468.022864	693.2000122
1468.545214	692.7999878
1469.067508	694.4000244
1469.589748	692.4000244
1470.111932	691.4000244
1470.634062	690.2000122
1471.156136	692.0
1471.678156	696.2000122
1472.20012	691.7999878
1472.72203	688.2000122
1473.243885	691.5999756
1473.765685	692.5999756
1474.28743	693.5999756
1474.80912	695.4000244
1475.330755	691.2000122
1475.852335	690.7999878
1476.37386	688.7999878
1476.89533	688.2000122
1477.416745	692.0
1477.938106	694.7999878
1478.459411	695.0
1478.980662	691.5999756
1479.501857	690.5999756
1480.022998	689.4000244
1480.544084	689.4000244
1481.065115	693.4000244
1481.586091	686.0
1482.107012	691.2000122
1482.627878	690.0
1483.14869	690.7999878
1483.669446	691.5999756
1484.190148	686.7999878
1484.710794	687.5999756
1485.231386	692.2000122
1485.751923	686.4000244
1486.272406	695.0
1486.792833	692.2000122
1487.313205	689.5999756
1487.833523	692.0
1488.353786	690.2000122
1488.873994	687.7999878
1489.394147	686.7999878
1489.914245	691.4000244
1490.434288	690.4000244
1490.954277	689.2000122
1491.474211	692.0
1491.99409	689.2000122
1492.513914	694.0
1493.033683	691.4000244
1493.553398	691.7999878
1494.073057	693.0
1494.592662	691.2000122
1495.112212	689.5999756
1495.631708	691.0
1496.151148	689.0
1496.670534	689.4000244
1497.189865	691.4000244
1497.709141	691.4000244
1498.228362	693.7999878
1498.747529	692.4000244
1499.266641	689.0
1499.785698	695.5999756
1500.3047	690.5999756
1500.823648	692.4000244
1501.34254	693.4000244
1501.861379	692.2000122
1502.380162	691.2000122
1502.89889	694.2000122
1503.417564	690.2000122
1503.936183	690.2000122
1504.454748	692.7999878
1504.973257	689.4000244
1505.491712	691.7999878
1506.010112	691.5999756
1506.528458	693.5999756
1507.046748	690.4000244
1507.564984	690.5999756
1508.083166	690.4000244
1508.601292	687.4000244
1509.119364	692.4000244
1509.637381	691.5999756
1510.155344	689.2000122
1510.673252	697.0
1511.191105	689.0
1511.708903	692.2000122
1512.226647	692.4000244
1512.744336	690.7999878
1513.261971	691.5999756
1513.77955	689.5999756
1514.297076	688.2000122
1514.814546	691.4000244
1515.331962	690.7999878
1515.849323	691.5999756
1516.366629	689.2000122
1516.883881	690.0
1517.401078	692.0
1517.918221	691.2000122
1518.435309	688.7999878
1518.952342	690.2000122
1519.469321	689.7999878
1519.986245	693.5999756
1520.503114	691.0
1521.019929	690.4000244
1521.536689	688.7999878
1522.053395	687.5999756
1522.570046	688.7999878
1523.086642	690.7999878
1523.603184	688.5999756
1524.119671	689.7999878
1524.636103	690.2000122
1525.152481	692.7999878
1525.668805	701.4000244
1526.185073	710.4000244
1526.701288	696.2000122
1527.217447	691.2000122
1527.733552	691.4000244
1528.249603	696.2000122
1528.765599	689.0
1529.28154	694.5999756
1529.797427	689.2000122
1530.313259	688.2000122
1530.829037	689.2000122
1531.34476	689.7999878
1531.860429	690.2000122
1532.376043	689.4000244
1532.891602	692.2000122
1533.407107	692.7999878
1533.922558	692.7999878
1534.437954	691.7999878
1534.953295	694.5999756
1535.468582	690.5999756
1535.983815	693.0
1536.498993	690.4000244
1537.014116	693.5999756
1537.529185	692.7999878
1538.044199	691.4000244
1538.559159	691.0
1539.074064	692.7999878
1539.588915	689.2000122
1540.103712	690.7999878
1540.618454	689.0
1541.133141	691.0
1541.647774	692.5999756
1542.162353	688.4000244
1542.676877	688.5999756
1543.191346	691.2000122
1543.705761	688.0
1544.220122	692.5999756
1544.734428	689.5999756
1545.24868	695.0
1545.762877	688.7999878
1546.27702	691.2000122
1546.791109	688.5999756
1547.305143	687.7999878
1547.819122	689.4000244
1548.333047	693.2000122
1548.846918	687.7999878
1549.360734	692.4000244
1549.874496	690.0
1550.388204	689.4000244
1550.901857	695.4000244
1551.415455	691.4000244
1551.929	691.2000122
1552.442489	690.4000244
1552.955925	690.0
1553.469306	691.0
1553.982632	689.4000244
1554.495905	690.0
1555.009123	688.2000122
1555.522286	691.4000244
1556.035395	690.7999878
1556.54845	696.7999878
1557.06145	689.7999878
1557.574396	693.2000122
1558.087288	693.2000122
1558.600125	690.0
1559.112908	693.4000244
1559.625637	690.4000244
1560.138311	690.0
1560.650931	690.4000244
1561.163497	693.7999878
1561.676008	692.2000122
1562.188465	693.2000122
1562.700867	693.5999756
1563.213216	694.7999878
1563.725509	691.4000244
1564.237749	692.0
1564.749934	691.4000244
1565.262065	690.0
1565.774142	692.0
1566.286164	692.0
1566.798132	695.0
1567.310046	695.7999878
1567.821906	691.7999878
1568.333711	695.0
1568.845462	689.5999756
1569.357158	692.0
1569.868801	692.0
1570.380389	694.0
1570.891922	693.4000244
1571.403402	689.2000122
1571.914827	690.4000244
1572.426198	693.2000122
1572.937515	691.7999878
1573.448777	688.7999878
1573.959985	692.7999878
1574.471139	692.4000244
1574.982239	692.5999756
1575.493285	691.2000122
1576.004276	691.4000244
1576.515213	692.7999878
1577.026096	689.5999756
1577.536924	686.5999756
1578.047698	692.5999756
1578.558419	694.7999878
1579.069084	689.7999878
1579.579696	690.7999878
1580.090254	692.7999878
1580.600757	691.5999756
1581.111206	690.7999878
1581.621601	693.2000122
1582.131941	692.2000122
1582.642228	693.5999756
1583.15246	690.4000244
1583.662638	693.2000122
1584.172762	691.0
1584.682832	694.5999756
1585.192847	688.5999756
1585.702809	691.4000244
1586.212716	689.5999756
1586.722569	689.5999756
1587.232368	693.4000244
1587.742113	694.2000122
1588.251803	695.2000122
1588.76144	690.2000122
1589.271022	692.7999878
1589.78055	690.7999878
1590.290024	692.0
1590.799444	690.2000122
1591.30881	689.2000122
1591.818121	694.4000244
1592.327379	690.5999756
