1042.414189	716.5999756
1042.980685	713.5999756
1043.547124	712.0
1044.113505	711.4000244
1044.679828	710.5999756
1045.246093	711.7999878
1045.8123	706.7999878
1046.378449	706.7999878
1046.94454	705.4000244
1047.510573	705.5999756
1048.076548	706.2000122
1048.642465	704.0
1049.208325	701.4000244
1049.774126	701.7999878
1050.339869	700.2000122
1050.905555	703.5999756
1051.471183	703.2000122
1052.036752	702.4000244
1052.602264	700.0
1053.167718	697.5999756
1053.733114	701.5999756
1054.298452	698.2000122
1054.863733	703.0
1055.428955	695.2000122
1055.994119	696.4000244
1056.559226	699.7999878
1057.124275	700.4000244
1057.689266	697.5999756
1058.254199	697.4000244
1058.819074	696.5999756
1059.383891	697.2000122
1059.94865	695.0
1060.513352	698.5999756
1061.077996	695.4000244
1061.642582	696.5999756
1062.20711	694.4000244
1062.77158	697.4000244
1063.335992	698.5999756
1063.900347	695.4000244
1064.464643	696.7999878
1065.028882	691.7999878
1065.593063	696.0
1066.157187	697.0
1066.721252	697.5999756
1067.28526	691.2000122
1067.84921	695.2000122
1068.413102	695.0
1068.976936	692.5999756
1069.540713	695.5999756
1070.104431	700.5999756
1070.668092	694.5999756
1071.231696	693.5999756
1071.795241	694.4000244
1072.358729	694.5999756
1072.922159	694.4000244
1073.485531	695.2000122
1074.048845	697.7999878
1074.612102	694.2000122
1075.175301	697.2000122
1075.738442	696.2000122
1076.301525	692.5999756
1076.864551	696.0
1077.427519	694.5999756
1077.990429	697.2000122
1078.553281	695.2000122
1079.116076	698.0
1079.678813	699.7999878
1080.241492	697.5999756
1080.804114	695.7999878
1081.366678	696.4000244
1081.929184	697.2000122
1082.491633	699.2000122
1083.054024	697.5999756
1083.616357	696.0
1084.178632	698.2000122
1084.74085	695.4000244
1085.30301	701.5999756
1085.865113	702.7999878
1086.427158	702.4000244
1086.989145	701.0
1087.551074	696.7999878
1088.112946	697.7999878
1088.67476	705.4000244
1089.236517	704.0
1089.798216	699.2000122
1090.359857	705.4000244
1090.92144	705.7999878
1091.482966	705.0
1092.044435	709.0
1092.605845	708.4000244
1093.167199	703.2000122
1093.728494	706.0
1094.289732	703.5999756
1094.850912	707.2000122
1095.412035	715.0
1095.9731	701.7999878
1096.534107	704.4000244
1097.095057	707.0
1097.65595	706.0
1098.216784	699.4000244
1098.777561	700.7999878
1099.338281	701.2000122
1099.898943	701.4000244
1100.459547	702.0
1101.020094	699.0
1101.580584	699.2000122
1102.141015	698.7999878
1102.701389	695.2000122
1103.261706	697.0
1103.821965	696.5999756
1104.382167	696.4000244
1104.942311	693.5999756
1105.502397	693.5999756
1106.062426	696.4000244
1106.622398	692.2000122
1107.182312	692.2000122
1107.742168	693.5999756
1108.301967	696.2000122
1108.861708	696.4000244
1109.421392	691.4000244
1109.981019	695.7999878
1110.540587	693.0
1111.100099	693.7999878
1111.659553	693.5999756
1112.218949	693.4000244
1112.778288	690.0
1113.33757	693.5999756
1113.896794	693.7999878
1114.45596	693.5999756
1115.015069	695.2000122
1115.574121	689.2000122
1116.133115	694.0
1116.692052	693.4000244
1117.250931	694.7999878
1117.809753	692.7999878
1118.368517	692.2000122
1118.927224	692.7999878
1119.485873	694.2000122
1120.044465	693.7999878
1120.603	693.2000122
1121.161477	691.7999878
1121.719897	690.0
1122.278259	693.4000244
1122.836564	696.5999756
1123.394812	691.4000244
1123.953002	691.2000122
1124.511135	688.5999756
1125.06921	695.0
1125.627228	692.4000244
1126.185189	693.0
1126.743092	696.2000122
1127.300938	694.2000122
1127.858726	692.2000122
1128.416457	693.2000122
1128.974131	693.4000244
1129.531748	695.4000244
1130.089307	691.0
1130.646808	691.2000122
1131.204252	691.0
1131.761639	691.7999878
1132.318969	694.4000244
1132.876241	688.4000244
1133.433456	692.0
1133.990614	692.0
1134.547714	695.0
1135.104757	695.4000244
1135.661743	690.2000122
1136.218671	694.0
1136.775542	693.0
1137.332356	690.0
1137.889112	693.4000244
1138.445811	698.5999756
1139.002453	694.7999878
1139.559037	695.2000122
1140.115565	694.2000122
1140.672035	691.4000244
1141.228447	696.4000244
1141.784803	693.5999756
1142.341101	692.7999878
1142.897342	695.0
1143.453525	695.2000122
1144.009651	694.4000244
1144.565721	693.7999878
1145.121732	691.5999756
1145.677687	692.0
1146.233584	695.2000122
1146.789424	692.5999756
1147.345207	696.4000244
1147.900933	694.5999756
1148.456601	690.5999756
1149.012212	694.2000122
1149.567766	690.5999756
1150.123263	692.0
1150.678702	691.2000122
1151.234085	693.2000122
1151.78941	691.7999878
1152.344678	691.5999756
1152.899888	692.0
1153.455042	693.4000244
1154.010138	696.0
1154.565177	691.5999756
1155.120159	692.2000122
1155.675084	694.0
1156.229951	693.4000244
1156.784762	692.7999878
1157.339515	695.2000122
1157.894211	693.2000122
1158.44885	695.4000244
1159.003432	694.2000122
1159.557956	693.0
1160.112424	694.4000244
1160.666834	694.2000122
1161.221187	693.4000244
1161.775483	695.7999878
1162.329722	697.2000122
1162.883904	695.5999756
1163.438029	696.5999756
1163.992096	696.5999756
1164.546107	694.7999878
1165.10006	696.4000244
1165.653956	691.7999878
1166.207795	691.2000122
1166.761577	692.0
1167.315302	695.2000122
1167.86897	694.5999756
1168.422581	694.0
1168.976134	694.2000122
1169.529631	692.2000122
1170.08307	693.2000122
1170.636453	694.0
1171.189778	690.4000244
1171.743046	696.5999756
1172.296257	694.2000122
1172.849412	697.2000122
1173.402509	693.5999756
1173.955549	695.5999756
1174.508532	694.0
1175.061458	692.0
1175.614327	691.7999878
1176.167138	694.4000244
1176.719893	695.0
1177.272591	696.2000122
1177.825232	692.0
1178.377816	691.4000244
1178.930342	694.2000122
1179.482812	695.4000244
1180.035225	695.0
1180.587581	692.5999756
1181.139879	695.4000244
1181.692121	694.5999756
1182.244306	693.0
1182.796434	692.0
1183.348504	694.2000122
1183.900518	694.5999756
1184.452475	690.7999878
1185.004375	690.4000244
1185.556218	698.7999878
1186.108004	690.5999756
1186.659733	695.5999756
1187.211405	692.5999756
1187.76302	690.5999756
1188.314578	694.5999756
1188.866079	694.2000122
1189.417523	696.5999756
1189.96891	694.0
1190.520241	691.5999756
1191.071514	693.0
1191.622731	691.0
1192.17389	691.7999878
1192.724993	692.4000244
1193.276039	708.4000244
1193.827027	693.5999756
1194.377959	688.5999756
1194.928834	696.2000122
1195.479653	694.7999878
1196.030414	693.2000122
1196.581118	697.4000244
1197.131766	692.5999756
1197.682356	689.7999878
1198.23289	696.7999878
1198.783367	695.5999756
1199.333786	691.5999756
1199.88415	693.5999756
1200.434456	693.4000244
1200.984705	691.5999756
1201.534898	692.7999878
1202.085033	694.4000244
1202.635112	694.4000244
1203.185134	693.4000244
1203.735099	693.5999756
1204.285007	696.2000122
1204.834859	694.5999756
1205.384653	698.4000244
1205.934391	697.4000244
1206.484072	693.7999878
1207.033696	696.2000122
1207.583263	695.0
1208.132774	695.5999756
1208.682228	698.7999878
1209.231624	693.5999756
1209.780965	696.5999756
1210.330248	695.0
1210.879474	695.2000122
1211.428644	693.4000244
1211.977757	696.0
1212.526813	694.5999756
1213.075813	693.2000122
1213.624755	693.5999756
1214.173641	693.5999756
1214.72247	694.5999756
1215.271242	693.2000122
1215.819958	696.2000122
1216.368617	694.2000122
1216.917219	694.2000122
1217.465764	699.0
1218.014253	695.4000244
1218.562685	694.5999756
1219.11106	694.0
1219.659378	694.7999878
1220.20764	696.0
1220.755845	695.7999878
1221.303993	694.4000244
1221.852085	695.0
1222.400119	692.5999756
1222.948097	694.7999878
1223.496019	695.2000122
1224.043883	690.2000122
1224.591691	693.2000122
1225.139443	696.7999878
1225.687137	695.0
1226.234775	698.7999878
1226.782357	695.7999878
1227.329881	695.2000122
1227.877349	694.7999878
1228.42476	695.2000122
1228.972115	700.5999756
1229.519413	697.7999878
1230.066654	696.5999756
1230.613839	696.7999878
1231.160967	695.0
1231.708038	699.7999878
1232.255053	696.4000244
1232.802011	694.5999756
1233.348912	695.2000122
1233.895757	696.4000244
1234.442545	694.5999756
1234.989277	696.4000244
1235.535951	694.2000122
1236.08257	698.5999756
1236.629131	695.5999756
1237.175636	694.7999878
1237.722085	694.7999878
1238.268477	694.0
1238.814812	697.2000122
1239.361091	694.2000122
1239.907313	694.7999878
1240.453478	698.7999878
1240.999587	698.0
1241.54564	698.7999878
1242.091636	696.0
1242.637575	698.4000244
1243.183457	695.5999756
1243.729284	697.2000122
1244.275053	699.4000244
1244.820766	698.7999878
1245.366423	698.2000122
1245.912022	695.7999878
1246.457566	701.4000244
1247.003053	696.5999756
1247.548483	695.4000244
1248.093857	695.5999756
1248.639174	698.0
1249.184435	694.2000122
1249.729639	699.5999756
1250.274787	696.2000122
1250.819878	699.7999878
1251.364912	695.7999878
1251.909891	696.5999756
1252.454812	698.2000122
1252.999677	697.5999756
1253.544486	700.0
1254.089238	698.5999756
1254.633934	695.4000244
1255.178573	697.2000122
1255.723156	696.0
1256.267682	700.5999756
1256.812152	696.2000122
1257.356565	703.2000122
1257.900922	700.5999756
1258.445223	701.2000122
1258.989467	706.0
1259.533654	705.2000122
1260.077785	716.0
1260.62186	707.4000244
1261.165878	713.0
1261.70984	715.7999878
1262.253745	718.7999878
1262.797594	716.5999756
1263.341386	717.2000122
1263.885123	715.0
1264.428802	709.0
1264.972425	709.0
1266.059503	714.4000244
1266.602957	706.0
1267.146354	705.4000244
1267.689696	703.5999756
1268.23298	703.2000122
1268.776209	703.2000122
1269.319381	702.2000122
1269.862497	704.2000122
1270.405556	705.0
1270.948559	703.2000122
1271.491506	706.2000122
1272.034396	704.7999878
1272.57723	702.5999756
1273.120007	703.2000122
1273.662728	705.5999756
1274.205393	709.4000244
1274.748002	702.7999878
1275.290554	704.4000244
1275.83305	705.4000244
1276.375489	706.2000122
1276.917872	702.5999756
1277.460199	708.0
1278.00247	713.2000122
1278.544684	713.5999756
1279.086842	722.7999878
1279.628943	721.0
1280.170989	733.2000122
1280.712978	754.2000122
1281.25491	801.5999756
1281.796787	913.7999878
1282.338607	1056.199951
1282.880371	1114.599976
1283.422078	978.5999756
1283.963729	856.5999756
1284.505324	783.5999756
1285.046863	746.5999756
1285.588345	733.5999756
1286.129772	725.2000122
1286.671142	712.0
1287.212455	710.0
1287.753713	708.0
1288.294914	707.4000244
1288.836059	708.0
1289.377147	705.4000244
1289.91818	703.5999756
1290.459156	704.0
1291.000076	704.7999878
1291.54094	701.5999756
1292.081747	702.0
1292.622499	699.7999878
1293.163194	704.0
1293.703833	703.7999878
1294.244415	700.2000122
1294.784942	698.2000122
1295.325412	704.2000122
1295.865826	703.5999756
1296.406184	702.2000122
1296.946486	705.5999756
1297.486731	702.0
1298.026921	705.2000122
1298.567054	702.5999756
1299.107131	704.4000244
1299.647152	701.4000244
1300.187116	698.0
1300.727025	702.5999756
1301.266877	699.5999756
1301.806673	697.7999878
1302.346413	702.2000122
1302.886097	699.0
1303.425725	700.7999878
1303.965297	699.4000244
1304.504812	698.4000244
1305.044272	700.0
1305.583675	697.2000122
1306.123022	698.7999878
1306.662313	697.5999756
1307.201548	701.2000122
1307.740727	701.2000122
1308.279849	700.7999878
1308.818916	697.2000122
1309.357926	698.5999756
1309.896881	702.2000122
1310.435779	696.7999878
1310.974621	698.0
1311.513407	698.5999756
1312.052137	697.4000244
1312.590811	697.4000244
1313.129429	700.5999756
1313.667991	699.2000122
1314.206497	698.5999756
1314.744946	694.7999878
1315.28334	700.4000244
1315.821678	699.7999878
1316.359959	697.4000244
1316.898184	697.4000244
1317.436354	698.7999878
1317.974467	703.4000244
1318.512525	697.0
1319.050526	695.5999756
1319.588471	700.2000122
1320.12636	695.2000122
1320.664194	694.5999756
1321.201971	699.0
1321.739692	703.0
1322.277357	695.7999878
1322.814967	696.2000122
1323.35252	698.2000122
1323.890017	703.5999756
1324.427458	698.0
1324.964843	696.0
1325.502173	696.4000244
1326.039446	700.5999756
1326.576663	694.5999756
1327.113824	694.7999878
1327.65093	700.2000122
1328.187979	696.4000244
1328.724972	695.4000244
1329.26191	701.0
1329.798791	698.7999878
1330.335617	695.7999878
1330.872386	698.0
1331.4091	700.2000122
1331.945758	696.2000122
1332.48236	701.4000244
1333.018905	694.5999756
1333.555395	702.5999756
1334.091829	695.2000122
1334.628207	701.2000122
1335.164529	698.5999756
1335.700796	699.0
1336.237006	695.7999878
1336.77316	698.7999878
1337.309259	699.7999878
1337.845301	694.7999878
1338.381288	696.5999756
1338.917219	699.4000244
1339.453094	702.4000244
1339.988913	693.2000122
1340.524676	699.0
1341.060383	696.0
1341.596034	695.2000122
1342.13163	702.2000122
1342.66717	694.0
1343.202653	701.2000122
1343.738081	699.0
1344.273453	694.5999756
1344.80877	695.4000244
1345.34403	693.7999878
1345.879235	698.0
1346.414383	694.7999878
1346.949476	699.2000122
1347.484513	696.0
1348.019494	697.4000244
1348.55442	695.0
1349.089289	696.4000244
1349.624103	697.0
1350.158861	697.7999878
1350.693563	698.7999878
1351.228209	698.7999878
1351.7628	698.4000244
1352.297334	699.0
1352.831813	696.7999878
1353.366236	694.7999878
1353.900604	698.4000244
1354.434915	697.7999878
1354.969171	698.5999756
1355.503371	699.4000244
1356.037515	697.7999878
1356.571604	699.0
1357.105636	698.0
1357.639613	695.7999878
1358.173535	699.0
1358.7074	699.5999756
1359.24121	701.0
1359.774964	700.0
1360.308662	698.0
1360.842304	696.0
1361.375891	701.5999756
1361.909422	699.7999878
1362.442897	702.2000122
1362.976317	702.7999878
1363.50968	706.4000244
1364.042989	702.4000244
1364.576241	699.4000244
1365.109438	702.0
1365.642579	701.2000122
1366.175664	702.7999878
1366.708693	700.0
1367.241667	699.7999878
1367.774585	701.0
1368.307448	705.5999756
1368.840255	709.5999756
1369.373006	710.5999756
1369.905701	712.5999756
1370.438341	705.7999878
1370.970925	706.0
1371.503454	701.4000244
1372.035926	704.0
1372.568344	703.0
1373.100705	702.2000122
1373.633011	701.4000244
1374.165261	706.4000244
1374.697456	703.2000122
1375.229595	708.0
1375.761678	702.4000244
1376.293705	701.5999756
1376.825677	704.7999878
1377.357594	707.2000122
1377.889455	708.4000244
1378.42126	708.0
1378.953009	709.5999756
1379.484703	706.0
1380.016342	708.5999756
1380.547924	714.4000244
1381.079452	711.2000122
1381.610923	717.5999756
1382.142339	716.7999878
1382.673699	717.7999878
1383.205004	725.7999878
1383.736253	734.7999878
1384.267447	739.7999878
1384.798585	765.7999878
1385.329668	794.7999878
1385.860695	869.5999756
1386.391666	1062.0
1386.922582	1397.0
1387.453442	1512.0
1387.984247	1194.199951
1388.514996	927.2000122
1389.04569	816.2000122
1389.576328	765.2000122
1390.10691	736.5999756
1390.637437	733.4000244
1391.167909	720.2000122
1391.698325	720.2000122
1392.228685	714.0
1392.75899	712.2000122
1393.28924	712.5999756
1393.819434	711.0
1394.349572	710.0
1394.879655	706.7999878
1395.409683	709.0
1395.939655	711.0
1396.469571	703.4000244
1396.999432	706.0
1397.529237	709.5999756
1398.058987	709.0
1398.588682	707.4000244
1399.118321	703.0
1399.647905	706.4000244
1400.177433	703.2000122
1400.706906	706.2000122
1401.236323	705.0
1401.765685	700.4000244
1402.294991	703.5999756
1402.824242	702.2000122
1403.353437	708.2000122
1403.882577	709.0
1404.411662	711.4000244
1404.940691	712.2000122
1405.469665	711.0
1405.998583	709.2000122
1406.527446	712.4000244
1407.056253	717.4000244
1407.585005	727.2000122
1408.113702	729.0
1408.642343	733.7999878
1409.170929	733.7999878
1409.69946	728.4000244
1410.227935	720.7999878
1410.756354	713.4000244
1411.284719	714.2000122
1411.813028	706.0
1412.341281	703.7999878
1412.869479	703.2000122
1413.397622	702.2000122
1413.92571	700.5999756
1414.453742	702.4000244
1414.981718	701.0
1415.50964	710.4000244
1416.037506	700.2000122
1416.565316	702.5999756
1417.093072	697.2000122
1417.620772	699.4000244
1418.148416	699.7999878
1418.676005	700.0
1419.203539	697.2000122
1419.731018	699.7999878
1420.258441	702.2000122
1420.785809	701.0
1421.313122	700.5999756
1421.840379	695.2000122
1422.367582	696.7999878
1422.894728	699.0
1423.42182	702.0
1423.948856	703.7999878
1424.475837	699.0
1425.002762	694.2000122
1425.529633	698.7999878
1426.056448	697.5999756
1426.583207	698.2000122
1427.109912	701.5999756
1427.636561	694.7999878
1428.163155	698.4000244
1428.689694	699.4000244
1429.216177	696.0
1429.742605	696.2000122
1430.268978	700.2000122
1430.795296	696.0
1431.321558	696.5999756
1431.847765	696.2000122
1432.373917	697.0
1432.900014	695.4000244
1433.426056	692.2000122
1433.952042	696.5999756
1434.477973	695.7999878
1435.003849	696.2000122
1435.529669	694.5999756
1436.055435	695.2000122
1436.581145	697.0
1437.1068	697.7999878
1437.632399	697.7999878
1438.157944	697.2000122
1438.683433	696.5999756
1439.208868	696.4000244
1439.734247	700.0
1440.25957	696.2000122
1440.784839	694.7999878
1441.310053	695.5999756
1441.835211	694.4000244
1442.360314	695.7999878
1442.885362	695.2000122
1443.410355	692.7999878
1443.935292	694.5999756
1444.460175	697.5999756
1444.985002	694.5999756
1445.509774	693.4000244
1446.034491	698.5999756
1446.559153	693.4000244
1447.08376	695.2000122
1447.608312	696.5999756
1448.132808	696.0
1448.65725	695.7999878
1449.181636	696.4000244
1449.705967	694.5999756
1450.230243	699.0
1450.754464	695.2000122
1451.27863	695.0
1451.802741	696.5999756
1452.326797	698.4000244
1452.850797	695.2000122
1453.374743	695.0
1453.898633	696.5999756
1454.422468	698.7999878
1454.946249	694.5999756
1455.469974	696.2000122
1455.993644	693.7999878
1456.517259	692.7999878
1457.040819	694.5999756
1457.564324	695.5999756
1458.087773	695.4000244
1458.611168	695.7999878
1459.134508	691.7999878
1459.657793	692.4000244
1460.181022	695.4000244
1460.704197	699.2000122
1461.227316	695.5999756
1461.750381	694.5999756
1462.27339	700.0
1462.796345	726.5999756
1463.319244	714.0
1463.842089	695.7999878
1464.364878	697.5999756
1464.887613	694.5999756
1465.410292	697.0
1465.932916	694.5999756
1466.455486	693.5999756
1466.978	697.0
1467.50046	692.2000122
1468.022864	693.4000244
1468.545214	696.2000122
1469.067508	698.5999756
1469.589748	693.2000122
1470.111932	696.0
1470.634062	694.7999878
1471.156136	694.4000244
1471.678156	696.5999756
1472.20012	694.4000244
1472.72203	694.0
1473.243885	695.5999756
1473.765685	694.7999878
1474.28743	693.7999878
1474.80912	695.0
1475.330755	694.0
1475.852335	693.5999756
1476.37386	693.4000244
1476.89533	692.2000122
1477.416745	694.4000244
1477.938106	695.7999878
1478.459411	694.4000244
1478.980662	695.0
1479.501857	694.4000244
1480.022998	693.4000244
1480.544084	691.7999878
1481.065115	693.0
1481.586091	689.0
1482.107012	694.2000122
1482.627878	696.7999878
1483.14869	693.2000122
1483.669446	692.7999878
1484.190148	696.5999756
1484.710794	691.5999756
1485.231386	692.5999756
1485.751923	698.4000244
1486.272406	694.0
1486.792833	693.4000244
1487.313205	692.4000244
1487.833523	692.7999878
1488.353786	692.5999756
1488.873994	695.0
1489.394147	691.0
1489.914245	695.2000122
1490.434288	692.0
1490.954277	692.7999878
1491.474211	693.7999878
1491.99409	695.2000122
1492.513914	698.4000244
1493.033683	692.5999756
1493.553398	695.7999878
1494.073057	691.4000244
1494.592662	694.5999756
1495.112212	694.0
1495.631708	694.0
1496.151148	696.0
1496.670534	695.2000122
1497.189865	694.4000244
1497.709141	693.0
1498.228362	690.0
1498.747529	692.4000244
1499.266641	692.2000122
1499.785698	700.0
1500.3047	694.7999878
1500.823648	693.7999878
1501.34254	695.2000122
1501.861379	690.0
1502.380162	691.2000122
1502.89889	690.2000122
1503.417564	692.4000244
1503.936183	691.2000122
1504.454748	693.2000122
1504.973257	693.4000244
1505.491712	689.4000244
1506.010112	693.0
1506.528458	693.7999878
1507.046748	693.4000244
1507.564984	691.7999878
1508.083166	695.2000122
1508.601292	693.0
1509.119364	690.7999878
1509.637381	694.5999756
1510.155344	698.0
1510.673252	700.7999878
1511.191105	694.2000122
1511.708903	693.7999878
1512.226647	693.0
1512.744336	693.4000244
1513.261971	695.0
1513.77955	696.7999878
1514.297076	697.0
1514.814546	695.5999756
1515.331962	696.7999878
1515.849323	694.2000122
1516.366629	689.5999756
1516.883881	699.0
1517.401078	695.0
1517.918221	695.7999878
1518.435309	691.0
1518.952342	694.5999756
1519.469321	694.4000244
1519.986245	694.7999878
1520.503114	691.5999756
1521.019929	692.4000244
1521.536689	693.4000244
1522.053395	696.2000122
1522.570046	696.5999756
1523.086642	694.7999878
1523.603184	693.4000244
1524.119671	691.7999878
1524.636103	690.5999756
1525.152481	694.4000244
1525.668805	712.5999756
1526.185073	715.5999756
1526.701288	698.7999878
1527.217447	692.0
1527.733552	692.7999878
1528.249603	699.7999878
1528.765599	693.4000244
1529.28154	693.4000244
1529.797427	693.4000244
1530.313259	694.7999878
1530.829037	693.7999878
1531.34476	695.5999756
1531.860429	690.7999878
1532.376043	695.5999756
1532.891602	691.7999878
1533.407107	698.7999878
1533.922558	692.7999878
1534.437954	695.7999878
1534.953295	691.4000244
1535.468582	693.0
1535.983815	691.2000122
1536.498993	693.5999756
1537.014116	696.4000244
1537.529185	694.7999878
1538.044199	690.5999756
1538.559159	698.0
1539.074064	695.0
1539.588915	694.5999756
1540.103712	695.2000122
1540.618454	690.5999756
1541.133141	692.0
1541.647774	694.4000244
1542.162353	696.2000122
1542.676877	697.0
1543.191346	692.7999878
1543.705761	690.5999756
1544.220122	690.7999878
1544.734428	692.0
1545.24868	695.5999756
1545.762877	693.4000244
1546.27702	696.7999878
1546.791109	693.7999878
1547.305143	693.0
1547.819122	690.7999878
1548.333047	698.4000244
1548.846918	696.0
1549.360734	696.7999878
1549.874496	695.0
1550.388204	695.0
1550.901857	698.0
1551.415455	699.0
1551.929	699.5999756
1552.442489	695.5999756
1552.955925	696.0
1553.469306	699.5999756
1553.982632	695.4000244
1554.495905	697.2000122
1555.009123	695.0
1555.522286	693.4000244
1556.035395	695.4000244
1556.54845	693.0
1557.06145	697.5999756
1557.574396	695.2000122
1558.087288	695.0
1558.600125	699.4000244
1559.112908	700.4000244
1559.625637	699.7999878
1560.138311	693.7999878
1560.650931	695.7999878
1561.163497	696.7999878
1561.676008	694.0
1562.188465	695.4000244
1562.700867	697.5999756
1563.213216	701.0
1563.725509	696.0
1564.237749	697.7999878
1564.749934	699.7999878
1565.262065	696.4000244
1565.774142	698.7999878
1566.286164	700.2000122
1566.798132	697.5999756
1567.310046	694.5999756
1567.821906	702.2000122
1568.333711	697.5999756
1568.845462	697.2000122
1569.357158	695.7999878
1569.868801	699.0
1570.380389	694.2000122
1570.891922	692.4000244
1571.403402	695.7999878
1571.914827	693.5999756
1572.426198	692.2000122
1572.937515	691.7999878
1573.448777	697.5999756
1573.959985	693.0
1574.471139	694.0
1574.982239	693.2000122
1575.493285	692.5999756
1576.004276	693.2000122
1576.515213	692.4000244
1577.026096	699.4000244
1577.536924	694.2000122
1578.047698	694.5999756
1578.558419	694.0
1579.069084	695.2000122
1579.579696	693.2000122
1580.090254	694.4000244
1580.600757	694.7999878
1581.111206	693.5999756
1581.621601	695.0
1582.131941	692.5999756
1582.642228	695.0
1583.15246	693.2000122
1583.662638	698.5999756
1584.172762	693.0
1584.682832	697.4000244
1585.192847	694.5999756
1585.702809	696.0
1586.212716	690.4000244
1586.722569	695.7999878
1587.232368	695.5999756
1587.742113	693.2000122
1588.251803	696.7999878
1588.76144	695.0
1589.271022	694.5999756
1589.78055	695.2000122
1590.290024	693.0
1590.799444	696.7999878
1591.30881	694.5999756
1591.818121	694.4000244
1592.327379	694.0
