1042.208489	695.2000122
1042.775002	698.0
1043.341458	694.7999878
1043.907855	697.4000244
1044.474195	694.4000244
1045.040476	694.2000122
1045.6067	695.0
1046.172866	693.7999878
1046.738974	696.2000122
1047.305024	694.7999878
1047.871015	694.2000122
1048.436949	693.2000122
1049.002825	693.4000244
1049.568644	695.2000122
1050.134404	694.0
1050.700106	692.4000244
1051.26575	694.7999878
1051.831337	689.7999878
1052.396865	693.0
1052.962336	694.7999878
1053.527749	695.0
1054.093103	687.2000122
1054.6584	690.7999878
1055.223639	690.4000244
1055.788821	693.2000122
1056.353944	688.5999756
1056.919009	690.0
1057.484017	690.5999756
1058.048967	690.2000122
1058.613858	692.5999756
1059.178692	690.0
1059.743468	689.7999878
1060.308187	690.7999878
1060.872847	690.5999756
1061.43745	689.7999878
1062.001994	688.5999756
1062.566481	689.5999756
1063.13091	691.0
1063.695281	691.0
1064.259595	691.5999756
1064.82385	687.5999756
1065.388048	691.4000244
1065.952188	687.0
1066.51627	691.2000122
1067.080295	690.2000122
1067.644261	691.7999878
1068.20817	689.5999756
1068.772021	689.2000122
1069.335814	687.2000122
1069.899549	691.5999756
1070.463227	695.2000122
1071.026847	690.7999878
1071.590409	689.2000122
1072.153913	690.4000244
1072.717359	690.0
1073.280748	691.2000122
1073.844079	690.0
1074.407352	687.7999878
1074.970568	689.4000244
1075.533726	688.7999878
1076.096826	692.0
1076.659868	686.0
1077.222853	689.5999756
1077.785779	691.5999756
1078.348648	689.7999878
1078.91146	691.5999756
1079.474214	688.2000122
1080.036909	688.4000244
1080.599548	690.0
1081.162128	692.5999756
1081.724651	687.7999878
1082.287116	691.0
1082.849524	690.5999756
1083.411873	690.4000244
1083.974165	688.2000122
1084.5364	690.2000122
1085.098577	690.7999878
1085.660696	688.2000122
1086.222757	688.7999878
1086.784761	691.5999756
1087.346707	691.0
1087.908595	688.7999878
1088.470426	695.2000122
1089.032199	694.4000244
1089.593914	692.4000244
1090.155572	687.0
1090.717172	691.2000122
1091.278715	691.5999756
1091.8402	690.2000122
1092.401627	693.7999878
1092.962997	688.5999756
1093.524309	690.0
1094.085563	689.4000244
1094.64676	690.5999756
1095.207899	697.4000244
1095.768981	690.2000122
1096.330005	690.2000122
1096.890971	696.7999878
1097.45188	691.5999756
1098.012732	688.0
1098.573525	688.4000244
1099.134261	689.0
1099.69494	688.7999878
1100.255561	692.5999756
1100.816124	689.2000122
1101.37663	687.4000244
1101.937078	689.7999878
1102.497469	690.4000244
1103.057802	685.4000244
1103.618078	692.7999878
1104.178296	688.0
1104.738456	687.4000244
1105.298559	688.7999878
1105.858605	690.5999756
1106.418593	690.5999756
1106.978523	689.7999878
1107.538396	685.0
1108.098212	687.7999878
1108.657969	687.0
1109.21767	692.5999756
1109.777313	687.7999878
1110.336898	687.5999756
1110.896426	691.7999878
1111.455896	688.4000244
1112.015309	686.5999756
1112.574665	687.5999756
1113.133963	686.5999756
1113.693203	688.5999756
1114.252386	688.0
1114.811512	689.4000244
1115.37058	689.0
1115.92959	688.0
1116.488544	686.7999878
1117.047439	691.7999878
1117.606278	684.5999756
1118.165058	688.4000244
1118.723782	688.2000122
1119.282448	684.5999756
1119.841056	689.0
1120.399607	687.4000244
1120.958101	688.2000122
1121.516537	687.4000244
1122.074916	686.0
1122.633237	687.2000122
1123.191501	687.5999756
1123.749708	688.7999878
1124.307857	686.0
1124.865949	689.2000122
1125.423984	687.4000244
1125.981961	687.7999878
1126.53988	686.2000122
1127.097742	684.5999756
1127.655547	685.0
1128.213295	691.7999878
1128.770985	687.2000122
1129.328618	688.7999878
1129.886193	691.5999756
1130.443711	684.4000244
1131.001172	691.5999756
1131.558575	688.7999878
1132.115921	688.5999756
1132.67321	686.7999878
1133.230441	688.0
1133.787615	686.5999756
1134.344732	690.5999756
1134.901792	688.7999878
1135.458794	687.5999756
1136.015738	685.4000244
1136.572626	687.5999756
1137.129456	689.2000122
1137.686229	685.5999756
1138.242944	684.4000244
1138.799602	690.4000244
1139.356203	692.2000122
1139.912747	689.7999878
1140.469233	687.2000122
1141.025662	688.2000122
1141.582034	690.2000122
1142.138348	691.7999878
1142.694606	691.5999756
1143.250806	688.4000244
1143.806948	688.0
1144.363034	689.2000122
1144.919062	689.4000244
1145.475033	688.4000244
1146.030946	691.0
1146.586803	690.5999756
1147.142602	689.5999756
1147.698344	687.5999756
1148.254029	691.4000244
1148.809656	689.2000122
1149.365227	685.7999878
1149.92074	687.5999756
1150.476195	688.5999756
1151.031594	688.7999878
1151.586936	689.2000122
1152.14222	690.2000122
1152.697447	689.2000122
1153.252617	691.2000122
1153.807729	687.5999756
1154.362785	690.2000122
1154.917783	686.7999878
1155.472724	686.7999878
1156.027608	693.2000122
1156.582435	690.7999878
1157.137204	689.0
1157.691917	689.4000244
1158.246572	688.0
1158.80117	686.7999878
1159.355711	691.2000122
1159.910195	686.5999756
1160.464621	689.0
1161.018991	687.7999878
1161.573303	690.2000122
1162.127558	689.7999878
1162.681756	692.0
1163.235897	689.0
1163.789981	691.2000122
1164.344008	690.7999878
1164.897978	692.7999878
1165.45189	687.7999878
1166.005745	687.2000122
1166.559544	685.2000122
1167.113285	686.4000244
1167.666969	690.7999878
1168.220596	685.5999756
1168.774166	688.2000122
1169.327679	687.2000122
1169.881135	690.5999756
1170.434533	685.4000244
1170.987875	688.4000244
1171.541159	690.0
1172.094387	689.4000244
1172.647557	689.4000244
1173.200671	682.7999878
1173.753727	688.2000122
1174.306726	688.5999756
1174.859668	691.2000122
1175.412554	690.4000244
1175.965382	687.7999878
1176.518153	687.2000122
1177.070867	689.5999756
1177.623524	686.2000122
1178.176124	688.2000122
1178.728667	684.0
1179.281153	688.2000122
1179.833582	691.2000122
1180.385954	690.4000244
1180.938269	686.4000244
1181.490527	686.7999878
1182.042728	687.7999878
1182.594872	686.4000244
1183.146959	688.5999756
1183.698989	689.5999756
1184.250962	686.0
1184.802878	691.0
1185.354737	686.5999756
1185.906539	688.7999878
1186.458285	688.4000244
1187.009973	686.0
1187.561604	688.0
1188.113178	685.2000122
1188.664696	686.2000122
1189.216156	689.5999756
1189.76756	687.2000122
1190.318906	684.0
1190.870196	684.5999756
1191.421429	685.7999878
1191.972604	681.7999878
1192.523723	690.5999756
1193.074785	702.2000122
1193.62579	687.2000122
1194.176738	686.0
1194.727629	690.0
1195.278464	687.5999756
1195.829241	689.5999756
1196.379962	690.5999756
1196.930625	686.0
1197.481232	693.2000122
1198.031782	689.4000244
1198.582275	687.0
1199.132711	689.0
1199.68309	688.4000244
1200.233413	684.4000244
1200.783678	688.5999756
1201.333887	689.2000122
1201.884039	688.2000122
1202.434134	690.0
1202.984172	686.5999756
1203.534153	689.2000122
1204.084077	689.4000244
1204.633945	687.7999878
1205.183756	689.4000244
1205.73351	692.2000122
1206.283207	687.0
1206.832847	690.0
1207.38243	689.7999878
1207.931957	686.5999756
1208.481427	689.0
1209.03084	685.0
1209.580196	692.7999878
1210.129496	688.5999756
1210.678738	687.5999756
1211.227924	686.7999878
1211.777053	689.2000122
1212.326126	689.7999878
1212.875141	686.0
1213.4241	686.2000122
1213.973002	689.2000122
1214.521847	687.0
1215.070636	688.5999756
1215.619367	686.2000122
1216.168042	685.2000122
1216.71666	686.5999756
1217.265222	687.5999756
1217.813726	685.7999878
1218.362174	687.4000244
1218.910566	685.5999756
1219.4589	687.7999878
1220.007178	687.2000122
1220.555399	688.7999878
1221.103563	686.4000244
1221.651671	690.5999756
1222.199722	690.0
1222.747716	687.7999878
1223.295653	687.5999756
1223.843534	688.7999878
1224.391358	687.5999756
1224.939126	689.2000122
1225.486836	684.2000122
1226.03449	692.5999756
1226.582088	687.5999756
1227.129628	686.4000244
1227.677112	689.2000122
1228.22454	687.4000244
1228.77191	692.0
1229.319224	686.5999756
1229.866482	687.4000244
1230.413682	690.5999756
1230.960826	689.0
1231.507914	690.7999878
1232.054945	689.0
1232.601919	688.7999878
1233.148836	688.0
1233.695697	687.7999878
1234.242501	689.0
1234.789249	692.5999756
1235.33594	687.0
1235.882574	685.4000244
1236.429152	684.5999756
1236.975673	688.2000122
1237.522138	688.2000122
1238.068545	690.7999878
1238.614897	686.7999878
1239.161191	689.4000244
1239.70743	691.0
1240.253611	685.5999756
1240.799736	687.4000244
1241.345805	687.7999878
1241.891816	688.2000122
1242.437772	690.5999756
1242.98367	688.7999878
1243.529512	690.4000244
1244.075298	687.7999878
1244.621027	688.2000122
1245.1667	690.7999878
1245.712315	689.4000244
1246.257875	690.2000122
1246.803378	686.0
1247.348824	690.7999878
1247.894214	691.7999878
1248.439547	690.0
1248.984824	690.5999756
1249.530044	685.5999756
1250.075208	689.5999756
1250.620315	691.2000122
1251.165365	688.7999878
1251.71036	692.2000122
1252.255297	691.2000122
1252.800178	688.7999878
1253.345003	683.4000244
1253.889771	691.2000122
1254.434483	687.7999878
1254.979138	690.7999878
1255.523737	691.0
1256.068279	693.0
1256.612765	694.0
1257.157194	693.5999756
1257.701567	691.7999878
1258.245884	695.5999756
1258.790143	695.2000122
1259.334347	697.2000122
1259.878494	705.4000244
1260.422585	699.0
1260.966619	702.0
1261.510596	705.2000122
1262.054518	704.5999756
1262.598383	704.0
1263.142191	694.7999878
1263.685943	699.5999756
1264.229639	696.0
1264.773278	695.4000244
1265.316861	693.2000122
1265.860387	695.2000122
1266.403857	697.7999878
1266.947271	695.5999756
1267.490628	696.4000244
1268.033929	695.2000122
1268.577173	691.5999756
1269.120361	695.7999878
1269.663493	692.5999756
1270.206568	693.7999878
1270.749587	695.0
1271.292549	692.5999756
1271.835456	691.4000244
1272.378305	697.7999878
1272.921099	696.4000244
1273.463836	692.5999756
1274.006517	694.5999756
1274.549141	700.2000122
1275.091709	698.2000122
1275.634221	697.4000244
1276.176676	698.2000122
1276.719075	700.4000244
1277.261418	703.0
1277.803704	701.4000244
1278.345935	708.0
1278.888108	716.7999878
1279.430226	724.5999756
1279.972287	746.2000122
1280.514292	799.4000244
1281.05624	886.0
1281.598133	980.0
1282.139969	959.0
1282.681748	858.2000122
1283.223472	785.5999756
1283.765139	751.4000244
1284.30675	728.5999756
1284.848304	713.0
1285.389803	710.0
1285.931245	703.2000122
1286.472631	703.4000244
1287.01396	702.0
1287.555233	699.0
1288.09645	696.7999878
1288.637611	701.2000122
1289.178716	699.5999756
1289.719764	696.5999756
1290.260756	695.2000122
1290.801692	694.5999756
1291.342572	697.5999756
1291.883395	694.5999756
1292.424162	696.2000122
1292.964873	691.7999878
1293.505528	691.2000122
1294.046126	690.4000244
1294.586669	693.2000122
1295.127155	692.5999756
1295.667585	691.7999878
1296.207958	690.5999756
1296.748276	692.0
1297.288537	691.4000244
1297.828743	692.7999878
1298.368892	693.5999756
1298.908984	691.4000244
1299.449021	690.5999756
1299.989002	690.7999878
1300.528926	690.0
1301.068794	689.7999878
1301.608606	690.5999756
1302.148362	690.2000122
1302.688062	692.4000244
1303.227705	689.5999756
1303.767293	689.0
1304.306824	686.2000122
1304.846299	692.5999756
1305.385718	691.7999878
1305.925081	688.7999878
1306.464388	692.0
1307.003639	690.5999756
1307.542833	694.4000244
1308.081972	691.4000244
1308.621054	689.7999878
1309.16008	693.5999756
1309.699051	691.0
1310.237965	686.5999756
1310.776823	689.7999878
1311.315625	690.5999756
1311.85437	690.2000122
1312.39306	690.2000122
1312.931694	689.0
1313.470271	688.4000244
1314.008793	692.7999878
1314.547258	690.4000244
1315.085668	691.0
1315.624021	690.0
1316.162318	690.0
1316.70056	691.7999878
1317.238745	690.7999878
1317.776874	686.2000122
1318.314947	690.5999756
1318.852964	690.2000122
1319.390925	688.7999878
1319.92883	685.7999878
1320.466679	688.7999878
1321.004472	688.7999878
1321.542209	691.2000122
1322.07989	692.4000244
1322.617515	690.4000244
1323.155084	689.5999756
1323.692597	695.5999756
1324.230054	691.0
1324.767455	692.5999756
1325.3048	688.2000122
1325.842089	688.7999878
1326.379322	690.0
1326.916499	689.0
1327.45362	692.2000122
1327.990685	691.7999878
1328.527694	691.7999878
1329.064647	688.5999756
1329.601544	689.0
1330.138386	687.5999756
1330.675171	690.5999756
1331.2119	689.5999756
1331.748574	689.4000244
1332.285191	685.7999878
1332.821753	692.5999756
1333.358258	691.4000244
1333.894708	692.2000122
1334.431102	692.2000122
1334.967439	690.0
1335.503721	688.0
1336.039947	691.4000244
1336.576117	689.4000244
1337.112232	689.2000122
1337.64829	689.0
1338.184292	687.5999756
1338.720239	692.2000122
1339.256129	688.7999878
1339.791964	692.4000244
1340.327743	690.5999756
1340.863466	686.0
1341.399133	690.0
1341.934744	687.2000122
1342.470299	687.2000122
1343.005799	689.0
1343.541243	692.5999756
1344.07663	691.0
1344.611962	690.7999878
1345.147238	690.0
1345.682458	690.7999878
1346.217623	688.5999756
1346.752731	691.0
1347.287784	692.2000122
1347.822781	686.2000122
1348.357722	691.4000244
1348.892607	691.7999878
1349.427437	689.0
1349.96221	690.0
1350.496928	694.2000122
1351.03159	685.2000122
1351.566196	690.4000244
1352.100746	692.0
1352.635241	689.0
1353.16968	686.5999756
1353.704063	693.5999756
1354.23839	690.0
1354.772661	685.4000244
1355.306877	692.2000122
1355.841037	694.4000244
1356.375141	688.4000244
1356.909189	689.5999756
1357.443182	691.4000244
1357.977118	690.7999878
1358.510999	690.2000122
1359.044825	692.0
1359.578594	691.5999756
1360.112308	691.0
1360.645966	691.7999878
1361.179568	689.5999756
1361.713115	690.0
1362.246606	691.5999756
1362.780041	690.2000122
1363.31342	688.5999756
1363.846744	691.5999756
1364.380012	689.7999878
1364.913224	692.2000122
1365.446381	694.4000244
1365.979482	691.7999878
1366.512527	693.2000122
1367.045516	692.2000122
1367.57845	694.2000122
1368.111328	692.2000122
1368.644151	694.4000244
1369.176917	696.7999878
1369.709628	706.5999756
1370.242284	698.0
1370.774884	697.4000244
1371.307428	697.2000122
1371.839916	691.5999756
1372.372349	697.5999756
1372.904726	695.5999756
1373.437047	695.7999878
1373.969313	696.7999878
1374.501523	695.7999878
1375.033678	697.5999756
1375.565776	697.2000122
1376.09782	698.4000244
1376.629807	696.4000244
1377.161739	699.2000122
1377.693615	703.0
1378.225436	699.5999756
1378.757201	697.7999878
1379.288911	701.5999756
1379.820565	702.0
1380.352163	702.2000122
1380.883706	707.0
1381.415193	708.4000244
1381.946624	709.5999756
1382.478	714.2000122
1383.009321	718.4000244
1383.540585	725.5999756
1384.071795	738.7999878
1384.602948	756.7999878
1385.134046	794.0
1385.665089	876.2000122
1386.196076	1040.0
1386.727007	1244.599976
1387.257883	1225.400024
1387.788703	1011.599976
1388.319468	863.2000122
1388.850177	784.4000244
1389.38083	749.7999878
1389.911429	734.5999756
1390.441971	722.5999756
1390.972458	713.7999878
1391.50289	712.0
1392.033266	709.0
1392.563586	707.7999878
1393.093851	702.5999756
1393.624061	705.0
1394.154214	704.2000122
1394.684313	701.0
1395.214356	701.2000122
1395.744343	697.4000244
1396.274275	696.5999756
1396.804152	696.0
1397.333973	697.5999756
1397.863738	701.2000122
1398.393448	698.4000244
1398.923103	699.4000244
1399.452702	694.7999878
1399.982246	696.2000122
1400.511734	696.2000122
1401.041167	697.0
1401.570544	700.2000122
1402.099866	697.4000244
1402.629132	700.0
1403.158343	698.7999878
1403.687498	699.5999756
1404.216598	698.5999756
1404.745643	702.0
1405.274632	699.5999756
1405.803566	701.4000244
1406.332444	703.7999878
1406.861267	706.2000122
1407.390035	714.7999878
1407.918747	716.0
1408.447404	715.4000244
1408.976005	712.5999756
1409.504551	709.7999878
1410.033041	707.7999878
1410.561476	707.4000244
1411.089856	699.7999878
1411.618181	698.2000122
1412.14645	698.0
1412.674663	696.4000244
1413.202821	698.2000122
1414.258972	701.2000122
1414.786964	692.2000122
1415.314901	700.7999878
1415.842782	690.4000244
1416.370608	687.0
1416.898379	689.4000244
1417.426094	691.0
1417.953754	687.5999756
1418.481359	688.2000122
1419.008908	689.2000122
1419.536402	688.2000122
1420.063841	689.0
1420.591225	688.2000122
1421.118553	688.5999756
1421.645826	691.0
1422.173043	688.4000244
1422.700205	689.5999756
1423.227312	691.2000122
1423.754364	691.2000122
1424.28136	688.5999756
1424.808301	686.0
1425.335187	688.7999878
1425.862017	691.5999756
1426.388792	687.4000244
1426.915512	691.7999878
1427.442177	692.2000122
1427.968786	687.7999878
1428.49534	687.7999878
1429.021839	687.2000122
1429.548282	687.5999756
1430.074671	689.2000122
1430.601004	690.5999756
1431.127281	690.0
1431.653504	689.4000244
1432.179671	690.4000244
1432.705783	689.2000122
1433.23184	688.4000244
1433.757842	685.2000122
1434.283788	686.5999756
1434.809679	685.5999756
1435.335515	691.2000122
1435.861296	688.7999878
1436.387022	688.0
1436.912692	685.7999878
1437.438307	686.2000122
1437.963867	686.4000244
1438.489372	685.0
1439.014821	688.2000122
1439.540216	686.0
1440.065555	691.4000244
1440.590839	687.7999878
1441.116068	684.0
1441.641241	685.4000244
1442.16636	687.0
1442.691423	684.0
1443.216431	685.7999878
1443.741384	687.5999756
1444.266282	689.0
1444.791125	688.7999878
1445.315912	689.5999756
1445.840645	685.7999878
1446.365322	685.5999756
1446.889944	688.2000122
1447.414511	685.4000244
1447.939023	687.0
1448.463479	688.7999878
1448.987881	687.7999878
1449.512228	687.0
1450.036519	684.0
1450.560755	687.2000122
1451.084936	685.5999756
1451.609062	684.5999756
1452.133133	684.4000244
1452.657149	687.5999756
1453.18111	687.4000244
1453.705016	682.5999756
1454.228866	690.0
1454.752662	684.0
1455.276402	684.0
1455.800088	684.4000244
1456.323718	684.4000244
1456.847293	685.5999756
1457.370813	687.4000244
1457.894278	686.2000122
1458.417689	687.0
1458.941044	686.5999756
1459.464344	685.0
1459.987588	686.5999756
1460.510778	683.4000244
1461.033913	684.4000244
1461.556993	687.2000122
1462.080018	688.2000122
1462.602987	684.0
1463.125902	687.4000244
1463.648762	687.4000244
1464.171567	685.4000244
1464.694316	684.7999878
1465.217011	684.7999878
1465.739651	682.2000122
1466.262235	681.2000122
1466.784765	684.5999756
1467.30724	682.7999878
1467.829659	682.7999878
1468.352024	683.0
1468.874334	684.5999756
1469.396589	685.5999756
1469.918788	691.2000122
1470.440933	683.7999878
1470.963023	684.5999756
1471.485058	682.5999756
1472.007038	686.4000244
1472.528963	684.5999756
1473.050833	687.5999756
1473.572648	686.5999756
1474.094408	683.0
1474.616113	687.2000122
1475.137763	685.0
1475.659358	684.7999878
1476.180899	685.7999878
1476.702384	686.2000122
1477.223815	687.0
1477.74519	684.7999878
1478.266511	686.7999878
1478.787777	683.2000122
1479.308988	686.4000244
1479.830144	685.5999756
1480.351245	686.5999756
1480.872291	682.4000244
1481.393282	683.4000244
1481.914218	684.2000122
1482.4351	685.0
1482.955926	685.4000244
1483.476698	686.4000244
1483.997415	684.4000244
1484.518077	685.2000122
1485.038684	686.0
1485.559236	684.0
1486.079734	684.7999878
1486.600176	684.7999878
1487.120564	684.2000122
1487.640896	684.5999756
1488.161174	684.4000244
1488.681398	683.2000122
1489.201566	682.4000244
1489.721679	683.7999878
1490.241738	687.2000122
1490.761742	682.7999878
1491.281691	685.0
1491.801585	686.2000122
1492.321424	682.7999878
1492.841208	680.7999878
1493.360938	685.5999756
1493.880613	680.2000122
1494.400233	686.7999878
1494.919798	682.7999878
1495.439309	684.0
1495.958764	683.5999756
1496.478165	684.7999878
1496.997511	683.2000122
1497.516803	684.4000244
1498.036039	682.4000244
1498.555221	684.2000122
1499.074348	690.5999756
1499.59342	691.0
1500.112438	686.5999756
1500.6314	685.0
1501.150308	689.2000122
1501.669161	684.5999756
1502.18796	683.2000122
1502.706704	686.0
1503.225393	683.2000122
1503.744027	686.2000122
1504.262606	684.4000244
1504.781131	689.2000122
1505.299601	686.4000244
1505.818016	682.7999878
1506.336377	683.7999878
1506.854683	682.0
1507.372934	687.5999756
1507.89113	682.4000244
1508.409272	688.5999756
1508.927359	686.5999756
1509.445391	686.0
1509.963369	682.7999878
1510.481292	691.4000244
1510.99916	685.0
1511.516974	685.7999878
1512.034733	685.2000122
1512.552437	685.4000244
1513.070086	687.0
1513.587681	685.7999878
1514.105221	684.2000122
1514.622707	685.2000122
1515.140138	685.2000122
1515.657514	685.2000122
1516.174836	686.7999878
1516.692102	683.2000122
1517.209315	685.7999878
1517.726472	687.0
1518.243575	685.7999878
1518.760624	683.0
1519.277617	683.5999756
1519.794557	686.7999878
1520.311441	682.0
1520.828271	683.4000244
1521.345046	684.7999878
1521.861767	687.0
1522.378433	685.0
1522.895044	684.4000244
1523.411601	681.2000122
1523.928103	682.5999756
1524.444551	684.2000122
1524.960944	683.5999756
1525.477282	682.4000244
1525.993566	686.5999756
1526.509795	685.5999756
1527.02597	686.2000122
1527.54209	685.2000122
1528.058156	682.2000122
1528.574167	682.2000122
1529.090123	684.7999878
1529.606025	683.4000244
1530.121872	686.0
1530.637665	682.4000244
1531.153403	687.4000244
1531.669087	684.4000244
1532.184716	683.5999756
1532.700291	683.0
1533.215811	683.4000244
1533.731276	686.2000122
1534.246687	687.0
1534.762044	685.0
1535.277346	686.0
1535.792593	686.7999878
1536.307786	684.7999878
1536.822924	681.4000244
1537.338008	687.4000244
1537.853038	685.4000244
1538.368013	685.7999878
1538.882933	681.7999878
1539.397799	684.4000244
1539.91261	688.0
1540.427367	683.7999878
1540.94207	686.2000122
1541.456718	681.4000244
1541.971311	686.0
1542.48585	677.7999878
1543.000335	684.5999756
1543.514765	684.2000122
1544.029141	687.2000122
1544.543462	682.0
1545.057729	683.5999756
1545.571941	687.0
1546.086099	685.5999756
1546.600202	685.5999756
1547.114251	684.7999878
1547.628246	684.0
1548.142186	683.0
1548.656072	685.4000244
1549.169903	688.2000122
1549.68368	682.5999756
1550.197402	684.0
1550.71107	683.5999756
1551.224684	685.5999756
1551.738243	683.4000244
1552.251748	681.5999756
1552.765198	682.4000244
1553.278594	684.0
1553.791936	683.7999878
1554.305223	692.5999756
1554.818456	686.2000122
1555.331634	684.2000122
1555.844758	681.4000244
1556.357828	686.0
1556.870843	684.5999756
1557.383804	685.4000244
1557.896711	684.2000122
1558.409563	683.4000244
1558.922361	683.7999878
1559.435105	684.5999756
1559.947794	683.0
1560.460429	682.0
1560.973009	683.5999756
1561.485535	683.4000244
1561.998007	685.5999756
1562.510425	682.2000122
1563.022788	682.2000122
1563.535097	687.7999878
1564.047351	683.4000244
1564.559551	684.4000244
1565.071697	684.4000244
1565.583789	684.2000122
1566.095826	684.0
1566.607809	684.7999878
1567.119738	684.5999756
1567.631612	684.2000122
1568.143432	682.2000122
1568.655198	687.5999756
1569.16691	683.2000122
1569.678567	684.0
1570.19017	686.2000122
1570.701719	684.0
1571.213213	682.5999756
1571.724653	684.5999756
1572.236039	685.7999878
1572.747371	681.5999756
1573.258648	685.5999756
1573.769871	687.7999878
1574.28104	683.7999878
1574.792155	687.4000244
1575.303215	683.5999756
1575.814221	683.7999878
1576.325173	682.0
1576.836071	683.7999878
1577.346914	682.2000122
1577.857703	685.4000244
1578.368438	685.2000122
1578.879119	687.2000122
1579.389746	683.4000244
1579.900318	685.0
1580.410836	683.4000244
1580.9213	686.0
1581.43171	685.4000244
1581.942065	684.4000244
1582.452366	684.5999756
1582.962614	687.0
1583.472807	681.0
1583.982945	683.5999756
1584.49303	686.0
1585.00306	686.7999878
1585.513037	682.5999756
1586.022959	684.5999756
1586.532827	685.4000244
1587.04264	679.4000244
1587.5524	682.0
1588.062105	685.7999878
1588.571757	682.4000244
1589.081354	684.2000122
1589.590897	682.0
1590.100386	683.2000122
1590.60982	681.7999878
1591.119201	682.5999756
1591.628527	682.4000244
1592.1378	682.5999756
