1042.208489	719.75
1042.775002	724.25
1043.341458	720.75
1043.907855	717.5
1044.474195	716.25
1045.040476	711.75
1045.6067	707.0
1046.172866	704.25
1046.738974	700.0
1047.305024	694.5
1047.871015	697.5
1048.436949	692.25
1049.002825	685.75
1049.568644	689.25
1050.134404	687.75
1050.700106	689.75
1051.26575	683.75
1051.831337	683.0
1052.396865	677.75
1052.962336	681.5
1053.527749	678.25
1054.093103	677.25
1054.6584	681.25
1055.223639	680.5
1055.788821	677.25
1056.353944	674.75
1056.919009	680.5
1057.484017	677.5
1058.048967	674.5
1058.613858	676.0
1059.178692	673.25
1059.743468	674.5
1060.308187	675.0
1060.872847	676.0
1061.43745	674.25
1062.001994	676.5
1062.566481	674.0
1063.13091	674.5
1063.695281	676.75
1064.259595	671.25
1064.82385	674.75
1065.388048	674.5
1065.952188	669.25
1066.51627	673.25
1067.080295	675.5
1067.644261	672.0
1068.20817	676.0
1068.772021	673.25
1069.335814	673.0
1069.899549	678.0
1070.463227	673.25
1071.026847	674.0
1071.590409	673.25
1072.153913	669.25
1072.717359	673.25
1073.280748	675.25
1073.844079	670.5
1074.407352	671.25
1074.970568	672.0
1075.533726	671.25
1076.096826	674.0
1076.659868	672.0
1077.222853	672.0
1077.785779	672.75
1078.348648	669.5
1078.91146	674.0
1079.474214	672.75
1080.036909	672.0
1080.599548	671.0
1081.162128	670.25
1081.724651	671.75
1082.287116	673.25
1082.849524	671.25
1083.411873	672.0
1083.974165	672.25
1084.5364	671.25
1085.098577	674.75
1085.660696	674.25
1086.222757	673.0
1086.784761	670.25
1087.346707	670.75
1087.908595	671.0
1088.470426	670.0
1089.032199	673.0
1089.593914	671.5
1090.155572	672.25
1090.717172	672.75
1091.278715	670.25
1091.8402	670.0
1092.401627	672.25
1092.962997	672.5
1093.524309	670.5
1094.085563	671.75
1094.64676	672.75
1095.207899	688.0
1095.768981	674.5
1096.330005	672.25
1096.890971	684.0
1097.45188	672.25
1098.012732	673.0
1098.573525	673.0
1099.134261	673.5
1099.69494	673.25
1100.255561	670.0
1100.816124	674.5
1101.37663	674.25
1101.937078	673.75
1102.497469	672.25
1103.057802	672.5
1103.618078	675.5
1104.178296	675.25
1104.738456	676.5
1105.298559	677.5
1105.858605	674.75
1106.418593	675.25
1106.978523	671.5
1107.538396	672.0
1108.098212	676.25
1108.657969	673.25
1109.21767	674.5
1109.777313	672.0
1110.336898	673.25
1110.896426	675.0
1111.455896	671.25
1112.015309	675.75
1112.574665	676.75
1113.133963	674.0
1113.693203	675.25
1114.252386	677.25
1114.811512	678.25
1115.37058	676.5
1115.92959	675.25
1116.488544	675.75
1117.047439	677.5
1117.606278	677.5
1118.165058	676.5
1118.723782	676.25
1119.282448	679.25
1119.841056	680.0
1120.399607	676.25
1120.958101	672.75
1121.516537	678.5
1122.074916	678.0
1122.633237	674.5
1123.191501	674.75
1123.749708	679.75
1124.307857	677.75
1124.865949	679.25
1125.423984	676.25
1125.981961	675.5
1126.53988	676.25
1127.097742	679.5
1127.655547	682.25
1128.213295	684.25
1128.770985	691.5
1129.328618	689.5
1129.886193	689.75
1130.443711	690.25
1131.001172	681.5
1131.558575	681.0
1132.115921	680.75
1132.67321	677.5
1133.230441	674.75
1133.787615	672.5
1134.344732	675.5
1134.901792	673.75
1135.458794	676.0
1136.015738	676.75
1136.572626	674.25
1137.129456	672.75
1137.686229	674.5
1138.242944	675.0
1138.799602	673.25
1139.356203	673.75
1139.912747	670.25
1140.469233	669.75
1141.025662	670.5
1141.582034	673.25
1142.138348	672.5
1142.694606	673.0
1143.250806	670.75
1143.806948	672.0
1144.363034	669.5
1144.919062	668.75
1145.475033	670.0
1146.030946	671.75
1146.586803	671.0
1147.142602	674.0
1147.698344	672.0
1148.254029	669.0
1148.809656	669.75
1149.365227	671.0
1149.92074	670.5
1150.476195	669.5
1151.031594	673.5
1151.586936	673.0
1152.14222	670.5
1152.697447	671.75
1153.252617	671.75
1153.807729	672.5
1154.362785	671.75
1154.917783	672.0
1155.472724	671.0
1156.027608	676.0
1156.582435	675.25
1157.137204	670.5
1157.691917	675.0
1158.246572	678.25
1158.80117	680.5
1159.355711	678.0
1159.910195	677.0
1160.464621	683.25
1161.018991	678.5
1161.573303	674.75
1162.127558	675.75
1162.681756	674.0
1163.235897	671.5
1163.789981	671.0
1164.344008	672.75
1164.897978	672.5
1165.45189	672.0
1166.005745	672.25
1166.559544	672.5
1167.113285	669.25
1167.666969	670.5
1168.220596	672.5
1168.774166	670.5
1169.327679	673.5
1169.881135	670.5
1170.434533	672.5
1170.987875	671.75
1171.541159	671.5
1172.094387	672.25
1172.647557	672.5
1173.200671	671.75
1173.753727	675.75
1174.306726	671.75
1174.859668	672.5
1175.412554	669.0
1175.965382	670.5
1176.518153	669.75
1177.070867	670.25
1177.623524	674.5
1178.176124	670.0
1178.728667	672.0
1179.281153	670.5
1179.833582	670.75
1180.385954	670.5
1180.938269	667.75
1181.490527	672.75
1182.042728	671.0
1182.594872	671.0
1183.146959	670.5
1183.698989	674.25
1184.250962	674.0
1184.802878	672.0
1185.354737	671.0
1185.906539	671.5
1186.458285	673.5
1187.009973	670.75
1187.561604	672.75
1188.113178	672.5
1188.664696	671.75
1189.216156	670.75
1189.76756	669.25
1190.318906	671.0
1190.870196	670.5
1191.421429	673.0
1191.972604	673.5
1192.523723	669.75
1193.074785	694.25
1193.62579	668.5
1194.176738	672.25
1194.727629	670.5
1195.278464	671.75
1195.829241	672.0
1196.379962	673.25
1196.930625	672.75
1197.481232	672.75
1198.031782	676.25
1198.582275	671.25
1199.132711	670.5
1199.68309	671.75
1200.233413	669.5
1200.783678	672.75
1201.333887	672.0
1201.884039	670.75
1202.434134	673.25
1202.984172	671.5
1203.534153	674.0
1204.084077	672.25
1204.633945	672.0
1205.183756	672.5
1205.73351	674.0
1206.283207	672.75
1206.832847	669.75
1207.38243	673.25
1207.931957	672.5
1208.481427	669.75
1209.03084	672.5
1209.580196	673.5
1210.129496	672.25
1210.678738	675.25
1211.227924	671.75
1211.777053	674.25
1212.326126	675.0
1212.875141	675.5
1213.4241	672.25
1213.973002	677.0
1214.521847	675.0
1215.070636	675.5
1215.619367	675.5
1216.168042	673.5
1216.71666	675.5
1217.265222	675.25
1217.813726	674.25
1218.362174	674.25
1218.910566	674.75
1219.4589	673.75
1220.007178	675.5
1220.555399	674.5
1221.103563	673.5
1221.651671	672.0
1222.199722	674.0
1222.747716	672.0
1223.295653	674.0
1223.843534	674.5
1224.391358	674.5
1224.939126	673.0
1225.486836	675.25
1226.03449	673.0
1226.582088	672.75
1227.129628	673.5
1227.677112	674.0
1228.22454	674.5
1228.77191	675.5
1229.319224	670.0
1229.866482	668.75
1230.413682	672.5
1230.960826	672.25
1231.507914	670.25
1232.054945	672.75
1232.601919	673.0
1233.148836	673.5
1233.695697	677.25
1234.242501	674.5
1234.789249	671.5
1235.33594	672.75
1235.882574	675.5
1236.429152	674.25
1236.975673	671.75
1237.522138	673.75
1238.068545	672.25
1238.614897	669.25
1239.161191	672.25
1239.70743	673.5
1240.253611	676.0
1240.799736	672.25
1241.345805	671.75
1241.891816	674.75
1242.437772	670.75
1242.98367	670.75
1243.529512	673.25
1244.075298	673.25
1244.621027	677.0
1245.1667	674.0
1245.712315	674.0
1246.257875	674.5
1246.803378	675.75
1247.348824	672.75
1247.894214	673.0
1248.439547	670.5
1248.984824	673.0
1249.530044	670.25
1250.075208	673.5
1250.620315	676.5
1251.165365	670.5
1251.71036	670.75
1252.255297	674.5
1252.800178	670.5
1253.345003	675.5
1253.889771	674.75
1254.434483	676.5
1254.979138	675.0
1255.523737	673.5
1256.068279	673.75
1256.612765	675.5
1257.157194	675.5
1257.701567	674.25
1258.245884	672.0
1258.790143	675.75
1259.334347	672.25
1259.878494	678.5
1260.422585	672.5
1260.966619	675.75
1261.510596	677.5
1262.054518	675.5
1262.598383	681.25
1263.142191	680.75
1263.685943	682.5
1264.229639	681.25
1264.773278	686.0
1265.316861	684.5
1265.860387	683.5
1266.403857	678.0
1266.947271	677.25
1267.490628	680.25
1268.033929	674.5
1268.577173	678.75
1269.120361	674.0
1269.663493	678.75
1270.206568	676.25
1270.749587	671.25
1271.292549	676.25
1271.835456	671.25
1272.378305	679.5
1272.921099	674.75
1273.463836	677.25
1274.006517	676.25
1274.549141	677.0
1275.091709	678.0
1275.634221	675.0
1276.176676	679.5
1276.719075	677.25
1277.261418	678.75
1277.803704	677.0
1278.345935	677.0
1278.888108	679.0
1279.430226	678.75
1279.972287	679.0
1280.514292	683.75
1281.05624	683.75
1281.598133	690.75
1282.139969	695.75
1282.681748	712.25
1283.223472	749.25
1283.765139	794.75
1284.30675	854.25
1284.848304	881.5
1285.389803	822.5
1285.931245	738.25
1286.472631	704.75
1287.01396	688.0
1287.555233	684.0
1288.09645	679.5
1288.637611	680.0
1289.178716	678.0
1289.719764	677.5
1290.260756	677.5
1290.801692	678.5
1291.342572	678.75
1291.883395	675.0
1292.424162	675.0
1292.964873	675.25
1293.505528	675.5
1294.046126	675.0
1294.586669	671.75
1295.127155	675.0
1295.667585	677.0
1296.207958	676.75
1296.748276	676.25
1297.288537	673.0
1297.828743	674.5
1298.368892	675.25
1298.908984	672.5
1299.449021	671.5
1299.989002	675.0
1300.528926	674.0
1301.068794	673.75
1301.608606	674.0
1302.148362	673.5
1302.688062	675.25
1303.227705	672.5
1303.767293	673.0
1304.306824	674.25
1304.846299	677.25
1305.385718	673.5
1305.925081	671.0
1306.464388	675.5
1307.003639	673.5
1307.542833	673.5
1308.081972	674.0
1308.621054	672.75
1309.16008	671.75
1309.699051	675.5
1310.237965	673.5
1310.776823	674.75
1311.315625	672.0
1311.85437	674.0
1312.39306	672.0
1312.931694	677.75
1313.470271	670.5
1314.008793	673.5
1314.547258	670.0
1315.085668	674.75
1315.624021	676.0
1316.162318	672.5
1316.70056	675.5
1317.238745	672.75
1317.776874	671.0
1318.314947	673.75
1318.852964	671.0
1319.390925	673.75
1319.92883	673.25
1320.466679	675.5
1321.004472	671.75
1321.542209	673.5
1322.07989	675.5
1322.617515	669.75
1323.155084	672.75
1323.692597	678.5
1324.230054	676.5
1324.767455	671.5
1325.3048	674.0
1325.842089	674.25
1326.379322	672.75
1326.916499	675.25
1327.45362	673.75
1327.990685	676.5
1328.527694	670.0
1329.064647	673.75
1329.601544	673.75
1330.138386	673.0
1330.675171	674.25
1331.2119	671.25
1331.748574	673.25
1332.285191	676.0
1332.821753	675.25
1333.358258	673.0
1333.894708	677.25
1334.431102	672.75
1334.967439	673.0
1335.503721	674.25
1336.039947	672.25
1336.576117	673.0
1337.112232	672.0
1337.64829	671.25
1338.184292	670.5
1338.720239	672.75
1339.256129	670.75
1339.791964	674.25
1340.327743	671.5
1340.863466	671.25
1341.399133	674.25
1341.934744	672.25
1342.470299	670.25
1343.005799	671.0
1343.541243	672.5
1344.07663	675.25
1344.611962	672.75
1345.147238	673.75
1345.682458	671.25
1346.217623	674.25
1346.752731	674.5
1347.287784	670.75
1347.822781	670.5
1348.357722	672.5
1348.892607	673.0
1349.427437	675.0
1349.96221	673.0
1350.496928	673.0
1351.03159	673.5
1351.566196	675.25
1352.100746	675.25
1352.635241	672.0
1353.16968	675.5
1353.704063	674.5
1354.23839	672.75
1354.772661	672.75
1355.306877	674.25
1355.841037	671.25
1356.375141	674.75
1356.909189	675.25
1357.443182	674.0
1357.977118	673.5
1358.510999	674.5
1359.044825	675.5
1359.578594	672.25
1360.112308	675.75
1360.645966	671.25
1361.179568	678.75
1361.713115	676.75
1362.246606	673.75
1362.780041	678.0
1363.31342	671.0
1363.846744	675.0
1364.380012	676.75
1364.913224	676.0
1365.446381	672.0
1365.979482	675.5
1366.512527	675.25
1367.045516	678.0
1367.57845	675.5
1368.111328	674.75
1368.644151	674.0
1369.176917	677.0
1369.709628	675.25
1370.242284	682.0
1370.774884	682.0
1371.307428	677.5
1371.839916	676.75
1372.372349	676.5
1372.904726	676.75
1373.437047	677.0
1373.969313	675.5
1374.501523	675.75
1375.033678	676.0
1375.565776	676.75
1376.09782	676.25
1376.629807	678.5
1377.161739	677.0
1377.693615	677.5
1378.225436	678.5
1378.757201	679.25
1379.288911	678.5
1379.820565	680.0
1380.352163	680.25
1380.883706	681.25
1381.415193	684.25
1381.946624	687.5
1382.478	685.75
1383.009321	682.75
1383.540585	685.25
1384.071795	685.5
1384.602948	690.5
1385.134046	684.5
1385.665089	699.25
1386.196076	702.5
1386.727007	723.25
1387.257883	785.5
1387.788703	921.5
1388.319468	1096.0
1388.850177	1024.0
1389.38083	813.75
1389.911429	726.0
1390.441971	703.75
1390.972458	691.5
1391.50289	687.0
1392.033266	682.5
1392.563586	679.25
1393.093851	678.75
1393.624061	683.0
1394.154214	680.75
1394.684313	678.25
1395.214356	677.0
1395.744343	679.25
1396.274275	677.5
1396.804152	676.5
1397.333973	679.75
1397.863738	678.25
1398.393448	677.75
1398.923103	679.25
1399.452702	678.25
1399.982246	676.75
1400.511734	676.75
1401.041167	674.5
1401.570544	676.25
1402.099866	678.5
1402.629132	676.0
1403.158343	677.0
1403.687498	682.0
1404.216598	675.5
1404.745643	674.5
1405.274632	679.25
1405.803566	678.75
1406.332444	674.75
1406.861267	676.75
1407.390035	679.0
1407.918747	684.25
1408.447404	681.5
1408.976005	689.5
1409.504551	697.25
1410.033041	697.0
1410.561476	698.75
1411.089856	686.0
1411.618181	680.25
1412.14645	677.75
1412.674663	675.75
1413.202821	674.75
1413.730924	677.25
1414.258972	680.25
1414.786964	671.75
1415.314901	685.25
1415.842782	673.0
1416.370608	674.5
1416.898379	675.25
1417.426094	674.0
1417.953754	672.0
1418.481359	671.5
1419.008908	672.5
1419.536402	673.5
1420.063841	672.0
1420.591225	673.25
1421.118553	671.75
1421.645826	672.5
1422.173043	672.0
1422.700205	675.5
1423.227312	672.75
1423.754364	674.25
1424.28136	673.25
1424.808301	675.5
1425.335187	673.25
1425.862017	676.0
1426.388792	672.0
1426.915512	671.0
1427.442177	675.75
1427.968786	672.25
1428.49534	675.25
1429.021839	672.0
1429.548282	673.75
1430.074671	670.25
1430.601004	674.75
1431.127281	670.25
1431.653504	673.0
1432.179671	669.5
1432.705783	675.75
1433.23184	671.25
1433.757842	670.25
1434.283788	674.25
1434.809679	676.25
1435.335515	669.75
1435.861296	675.75
1436.387022	673.0
1436.912692	671.25
1437.438307	675.75
1437.963867	669.75
1438.489372	671.75
1439.014821	673.0
1439.540216	669.0
1440.065555	672.75
1440.590839	673.0
1441.116068	670.25
1441.641241	671.25
1442.16636	674.0
1442.691423	672.25
1443.216431	674.25
1443.741384	670.75
1444.266282	673.75
1444.791125	672.25
1445.315912	673.25
1445.840645	673.75
1446.365322	672.5
1446.889944	673.5
1447.414511	671.5
1447.939023	671.5
1448.463479	673.25
1448.987881	673.0
1449.512228	673.25
1450.036519	669.5
1450.560755	671.5
1451.084936	673.5
1451.609062	674.0
1452.133133	672.0
1452.657149	689.5
1454.228866	675.5
1454.752662	671.5
1455.276402	669.75
1455.800088	671.5
1456.323718	670.0
1456.847293	673.75
1457.370813	669.25
1457.894278	671.5
1458.417689	672.5
1458.941044	670.25
1459.464344	673.5
1459.987588	672.25
1460.510778	670.0
1461.033913	674.25
1461.556993	667.0
1462.080018	673.75
1462.602987	670.75
1463.125902	670.25
1463.648762	668.5
1464.171567	672.75
1464.694316	670.75
1465.217011	670.5
1465.739651	671.0
1466.262235	671.0
1466.784765	671.5
1467.30724	671.25
1467.829659	668.75
1468.352024	671.5
1468.874334	674.75
1469.396589	674.5
1469.918788	671.75
1470.440933	675.0
1470.963023	669.25
1471.485058	673.0
1472.007038	672.0
1472.528963	672.0
1473.050833	670.0
1473.572648	667.0
1474.094408	670.5
1474.616113	673.0
1475.137763	673.75
1475.659358	672.75
1476.180899	671.5
1476.702384	668.75
1477.223815	672.5
1477.74519	671.75
1478.266511	671.75
1478.787777	674.0
1479.308988	674.5
1479.830144	673.75
1480.351245	670.5
1480.872291	669.5
1481.393282	673.25
1481.914218	670.5
1482.4351	670.5
1482.955926	674.0
1483.476698	667.5
1483.997415	671.75
1484.518077	671.75
1485.038684	671.25
1485.559236	672.25
1486.079734	671.25
1486.600176	670.5
1487.120564	668.5
1487.640896	669.0
1488.161174	669.75
1488.681398	667.75
1489.201566	669.5
1489.721679	671.5
1490.241738	673.5
1490.761742	671.75
1491.281691	672.75
1491.801585	669.5
1492.321424	670.75
1492.841208	669.25
1493.360938	670.0
1493.880613	672.5
1494.400233	674.75
1494.919798	670.75
1495.439309	670.75
1495.958764	672.75
1496.478165	671.0
1496.997511	673.0
1497.516803	670.75
1498.036039	672.0
1498.555221	674.5
1499.074348	670.0
1499.59342	679.75
1500.112438	672.0
1500.6314	669.25
1501.150308	673.5
1501.669161	672.5
1502.18796	670.5
1502.706704	672.25
1503.225393	671.25
1503.744027	671.0
1504.262606	673.5
1504.781131	668.75
1505.299601	669.0
1505.818016	672.0
1506.336377	676.75
1506.854683	667.75
1507.372934	671.0
1507.89113	673.5
1508.409272	669.25
1508.927359	668.25
1509.445391	673.5
1509.963369	671.25
1510.481292	676.75
1510.99916	672.0
1511.516974	670.25
1512.034733	673.25
1512.552437	670.75
1513.070086	673.25
1513.587681	671.25
1514.105221	672.75
1514.622707	668.75
1515.140138	666.5
1515.657514	673.25
1516.174836	669.5
1516.692102	670.25
1517.209315	671.75
1517.726472	670.5
1518.243575	674.5
1518.760624	671.0
1519.277617	670.5
1519.794557	673.25
1520.311441	671.5
1520.828271	672.75
1521.345046	673.0
1521.861767	670.5
1522.378433	668.25
1522.895044	670.0
1523.411601	673.25
1523.928103	669.75
1524.444551	673.0
1524.960944	669.0
1525.477282	669.75
1525.993566	672.0
1526.509795	671.5
1527.02597	675.5
1527.54209	672.0
1528.058156	670.75
1528.574167	667.75
1529.090123	669.5
1529.606025	673.0
1530.121872	668.5
1530.637665	670.25
1531.153403	668.25
1531.669087	668.5
1532.184716	671.0
1532.700291	671.0
1533.215811	670.0
1533.731276	671.0
1534.246687	670.75
1534.762044	674.75
1535.277346	672.75
1535.792593	670.5
1536.307786	670.75
1536.822924	671.75
1537.338008	669.25
1537.853038	672.75
1538.368013	673.75
1538.882933	668.5
1539.397799	671.5
1539.91261	667.25
1540.427367	666.75
1540.94207	671.0
1541.456718	671.5
1541.971311	670.25
1542.48585	668.25
1543.000335	672.5
1543.514765	671.25
1544.029141	671.5
1544.543462	670.25
1545.057729	669.25
1545.571941	668.75
1546.086099	668.25
1546.600202	670.75
1547.114251	666.5
1547.628246	672.0
1548.142186	668.5
1548.656072	671.0
1549.169903	674.25
1549.68368	670.5
1550.197402	668.25
1550.71107	668.75
1551.224684	671.5
1551.738243	668.0
1552.251748	671.25
1552.765198	670.0
1553.278594	670.5
1553.791936	668.25
1554.305223	670.0
1554.818456	669.0
1555.331634	670.0
1555.844758	670.0
1556.357828	669.5
1556.870843	671.75
1557.383804	670.0
1557.896711	664.0
1558.409563	668.5
1558.922361	669.75
1559.435105	670.0
1559.947794	668.25
1560.460429	669.75
1560.973009	670.75
1561.485535	669.25
1561.998007	669.0
1562.510425	671.0
1563.022788	669.5
1563.535097	668.25
1564.047351	669.75
1564.559551	670.0
1565.071697	671.0
1565.583789	668.5
1566.095826	671.75
1566.607809	670.75
1567.119738	670.0
1567.631612	670.75
1568.143432	673.25
1568.655198	669.0
1569.16691	672.0
1569.678567	672.0
1570.19017	669.5
1570.701719	673.5
1571.213213	673.25
1571.724653	672.75
1572.236039	673.0
1572.747371	671.5
1573.258648	669.25
1573.769871	666.25
1574.28104	671.0
1574.792155	670.5
1575.303215	673.75
1575.814221	671.5
1576.325173	670.5
1576.836071	671.25
1577.346914	667.75
1577.857703	671.25
1578.368438	671.25
1578.879119	667.75
1579.389746	676.0
1579.900318	671.25
1580.410836	669.75
1580.9213	667.5
1581.43171	670.0
1581.942065	670.5
1582.452366	671.25
1582.962614	666.75
1583.472807	670.25
1583.982945	668.5
1584.49303	672.75
1585.00306	671.0
1585.513037	667.0
1586.022959	666.25
1586.532827	671.5
1587.04264	668.25
1587.5524	671.75
1588.062105	672.25
1588.571757	670.75
1589.081354	669.0
1589.590897	668.25
1590.100386	667.75
1590.60982	670.75
1591.119201	669.25
1591.628527	668.0
1592.1378	665.0
