1042.452273	670.5999756
1043.018714	669.2000122
1043.585098	670.2000122
1044.151424	667.0
1044.717692	669.5999756
1045.283903	668.5999756
1045.850056	669.4000244
1046.416151	666.4000244
1046.982188	668.2000122
1047.548167	666.0
1048.114089	667.2000122
1048.679953	669.2000122
1049.24576	665.0
1049.811509	665.2000122
1050.3772	664.0
1050.942833	663.4000244
1051.508408	664.4000244
1052.073926	663.5999756
1052.639387	662.7999878
1053.204789	668.7999878
1053.770134	665.7999878
1054.335421	664.5999756
1054.900651	663.0
1055.465823	661.5999756
1056.030937	662.0
1056.595993	664.2000122
1057.160992	663.4000244
1057.725934	661.2000122
1058.290817	666.0
1058.855643	663.4000244
1059.420411	662.4000244
1059.985122	662.2000122
1060.549775	663.0
1061.114371	663.4000244
1061.678908	662.0
1062.243389	662.5999756
1063.936483	664.4000244
1064.500733	663.2000122
1065.064925	662.5999756
1065.62906	662.0
1066.193137	662.4000244
1066.757156	662.4000244
1067.321118	663.4000244
1067.885022	662.0
1068.448869	661.7999878
1069.012658	661.7999878
1069.57639	664.0
1070.140063	668.5999756
1070.70368	662.5999756
1071.267239	661.7999878
1071.83074	659.4000244
1072.394184	661.5999756
1072.95757	658.7999878
1073.520899	660.5999756
1074.08417	662.2000122
1074.647383	661.5999756
1075.21054	661.0
1075.773638	660.5999756
1076.336679	663.5999756
1076.899663	662.7999878
1077.462589	659.7999878
1078.025457	662.7999878
1078.588268	662.5999756
1079.151022	660.4000244
1079.713718	660.5999756
1080.276356	660.2000122
1080.838937	659.7999878
1081.401461	662.2000122
1081.963927	662.4000244
1082.526336	663.4000244
1083.088687	663.0
1083.650981	661.5999756
1084.213217	660.5999756
1084.775396	660.0
1085.337517	663.7999878
1085.899581	660.7999878
1086.461587	661.0
1087.023536	661.5999756
1087.585428	660.5999756
1088.147262	662.5999756
1088.709039	663.2000122
1089.270758	662.4000244
1089.83242	661.0
1090.394024	659.0
1090.955571	663.7999878
1091.517061	660.5999756
1092.078493	658.5999756
1092.639868	662.2000122
1093.201185	662.5999756
1093.762445	661.7999878
1094.323648	660.5999756
1094.884793	658.4000244
1095.445881	661.0
1096.006911	663.0
1096.567884	661.0
1097.1288	667.7999878
1097.689659	661.4000244
1098.25046	661.0
1098.811203	661.5999756
1099.37189	661.2000122
1099.932518	662.5999756
1100.49309	660.4000244
1101.053604	663.2000122
1101.614061	660.0
1102.174461	662.2000122
1102.734803	661.2000122
1103.295088	661.2000122
1103.855316	661.5999756
1104.415486	659.5999756
1104.975599	662.0
1105.535655	661.4000244
1106.095653	659.2000122
1106.655594	663.0
1107.215478	662.0
1107.775305	661.0
1108.335074	660.4000244
1108.894786	663.0
1109.45444	663.5999756
1110.014038	662.7999878
1110.573578	661.5999756
1111.133061	662.7999878
1111.692486	660.7999878
1112.251854	661.4000244
1112.811165	658.5999756
1113.370419	661.4000244
1113.929616	660.0
1114.488755	662.4000244
1115.047837	659.2000122
1115.606862	659.7999878
1116.16583	661.4000244
1116.72474	662.0
1117.283593	661.7999878
1117.842389	660.0
1118.401128	660.4000244
1118.959809	661.0
1119.518433	659.7999878
1120.077	661.7999878
1120.63551	661.2000122
1121.193963	660.0
1121.752358	657.0
1122.310697	658.0
1122.868978	660.0
1123.427202	658.0
1123.985368	659.4000244
1124.543478	661.2000122
1125.10153	659.5999756
1125.659526	660.0
1126.217464	664.0
1126.775345	661.7999878
1127.333168	659.2000122
1127.890935	661.2000122
1128.448644	661.4000244
1129.006297	661.5999756
1129.563892	658.5999756
1130.12143	662.4000244
1130.678911	660.4000244
1131.236335	662.2000122
1131.793701	660.5999756
1132.351011	659.4000244
1132.908263	660.2000122
1133.465458	662.0
1134.022597	659.2000122
1134.579678	660.4000244
1135.136702	661.5999756
1135.693669	661.2000122
1136.250578	660.2000122
1136.807431	661.5999756
1137.364227	659.0
1137.920965	662.2000122
1138.477647	657.5999756
1139.034271	658.0
1139.590839	660.2000122
1140.147349	660.7999878
1140.703802	661.4000244
1141.260198	659.7999878
1141.816537	660.7999878
1142.37282	662.2000122
1142.929045	659.2000122
1143.485213	658.7999878
1144.041323	661.5999756
1144.597377	661.5999756
1145.153374	660.5999756
1145.709314	660.7999878
1146.265197	660.2000122
1146.821023	659.5999756
1147.376792	660.4000244
1147.932503	663.0
1148.488158	660.0
1149.043756	659.4000244
1149.599297	658.2000122
1150.154781	659.4000244
1150.710207	661.7999878
1151.265577	660.4000244
1151.82089	663.5999756
1152.376146	660.4000244
1152.931345	658.4000244
1153.486487	660.0
1154.041572	660.4000244
1154.5966	658.7999878
1155.151571	660.7999878
1155.706485	660.2000122
1156.261342	660.7999878
1156.816142	658.7999878
1157.370885	660.2000122
1157.925572	660.7999878
1158.480201	661.4000244
1159.034774	660.5999756
1159.589289	660.5999756
1160.143748	659.5999756
1160.698149	659.2000122
1161.252494	662.5999756
1161.806782	660.0
1162.361013	659.7999878
1162.915187	660.7999878
1163.469304	658.5999756
1164.023364	658.4000244
1164.577368	661.0
1165.131314	659.0
1165.685204	660.0
1166.239036	661.7999878
1166.792812	660.4000244
1167.346531	659.4000244
1167.900193	660.2000122
1168.453798	659.5999756
1169.007347	658.2000122
1169.560838	661.4000244
1170.114273	658.5999756
1170.66765	661.7999878
1171.220971	662.4000244
1171.774235	656.7999878
1172.327443	660.7999878
1172.880593	657.0
1173.433687	659.4000244
1173.986723	659.5999756
1174.539703	659.7999878
1175.092626	661.2000122
1175.645493	661.2000122
1176.198302	656.5999756
1176.751055	660.4000244
1177.303751	661.5999756
1177.85639	659.7999878
1178.408972	659.0
1178.961498	662.2000122
1179.513966	659.4000244
1180.066378	660.7999878
1180.618733	659.0
1181.171032	659.2000122
1181.723273	658.4000244
1182.275458	660.2000122
1182.827586	658.2000122
1183.379657	658.4000244
1183.931672	660.0
1184.48363	662.4000244
1185.035531	662.5999756
1185.587375	660.2000122
1186.139162	660.7999878
1186.690893	660.2000122
1187.242567	659.2000122
1187.794184	661.5999756
1188.345745	659.4000244
1188.897249	661.4000244
1189.448696	658.2000122
1190.000086	662.2000122
1190.55142	660.0
1191.102697	658.5999756
1191.653918	661.7999878
1192.205081	660.4000244
1192.756188	660.4000244
1193.307238	678.7999878
1193.858232	661.4000244
1194.409169	659.2000122
1194.960049	659.5999756
1195.510872	661.4000244
1196.061639	659.4000244
1196.612349	659.2000122
1197.163003	660.4000244
1197.713599	659.0
1198.264139	660.2000122
1198.814623	659.7999878
1199.36505	660.2000122
1199.91542	661.0
1200.465734	660.0
1201.01599	660.5999756
1201.566191	661.0
1202.116334	660.0
1202.666421	659.2000122
1203.216452	660.7999878
1203.766425	659.5999756
1204.316343	660.2000122
1204.866203	659.4000244
1205.416007	661.5999756
1205.965754	658.4000244
1206.515445	660.7999878
1207.065079	661.4000244
1207.614657	658.0
1208.164177	661.7999878
1208.713642	659.5999756
1209.26305	660.2000122
1209.812401	660.5999756
1210.361695	661.0
1210.910933	660.0
1211.460115	659.4000244
1212.00924	659.4000244
1212.558308	662.4000244
1213.10732	660.7999878
1213.656275	660.4000244
1214.205174	659.2000122
1214.754016	661.5999756
1215.302801	663.0
1215.85153	660.5999756
1216.400203	661.0
1216.948819	659.7999878
1217.497378	658.2000122
1218.045881	659.5999756
1218.594327	660.0
1219.142717	659.7999878
1219.691051	661.7999878
1220.239327	662.0
1220.787548	661.5999756
1221.335712	661.0
1221.883819	659.7999878
1222.43187	657.0
1222.979864	660.0
1223.527802	660.5999756
1224.075683	658.7999878
1224.623508	660.2000122
1225.171277	659.5999756
1225.718989	660.4000244
1226.266644	659.0
1226.814243	663.0
1227.361786	661.7999878
1227.909272	661.0
1228.456702	660.4000244
1229.004075	659.4000244
1229.551392	659.5999756
1230.098652	658.4000244
1230.645856	660.2000122
1231.193003	658.0
1231.740094	662.5999756
1232.287129	661.5999756
1232.834107	661.0
1233.381029	660.0
1233.927894	661.2000122
1234.474703	661.0
1235.021455	660.0
1235.568151	658.2000122
1236.114791	658.5999756
1236.661374	660.4000244
1237.207901	661.0
1237.754372	659.5999756
1238.300786	657.5999756
1238.847144	659.2000122
1239.393445	659.7999878
1239.93969	662.0
1240.485879	659.2000122
1241.032011	660.7999878
1241.578087	658.5999756
1242.124106	660.7999878
1242.67007	660.0
1243.215976	658.2000122
1243.761827	660.5999756
1244.307621	657.4000244
1244.853359	661.5999756
1245.39904	659.4000244
1245.944665	659.7999878
1246.490234	659.7999878
1247.035746	660.0
1247.581203	658.7999878
1248.126602	659.7999878
1248.671946	658.7999878
1249.217233	659.5999756
1249.762464	659.7999878
1250.307638	660.5999756
1250.852757	660.5999756
1251.397819	660.4000244
1251.942824	659.4000244
1252.487774	662.4000244
1253.032667	658.5999756
1253.577503	659.7999878
1254.122284	661.5999756
1254.667008	658.5999756
1255.211676	659.4000244
1255.756288	660.2000122
1256.300843	660.0
1256.845342	659.5999756
1257.389785	659.7999878
1257.934172	660.4000244
1258.478502	658.7999878
1259.022776	658.7999878
1259.566994	659.7999878
1260.111156	676.5999756
1260.655261	659.0
1261.199311	657.7999878
1261.743304	660.4000244
1262.28724	660.4000244
1262.831121	659.7999878
1263.374945	658.0
1263.918713	661.0
1264.462425	660.4000244
1265.006081	665.0
1265.54968	664.5999756
1266.093223	659.2000122
1266.636711	659.4000244
1267.180141	659.5999756
1267.723516	660.4000244
1268.266835	660.7999878
1268.810097	661.7999878
1269.353303	660.5999756
1269.896453	658.4000244
1270.439547	661.7999878
1270.982584	660.0
1271.525566	659.4000244
1272.068491	662.2000122
1272.61136	659.7999878
1273.154173	660.5999756
1273.69693	657.4000244
1274.239631	661.5999756
1274.782275	660.0
1275.324864	662.2000122
1275.867396	659.7999878
1276.409872	658.4000244
1276.952292	659.2000122
1277.494656	659.2000122
1278.036964	659.4000244
1278.579215	662.2000122
1279.121411	658.5999756
1279.66355	659.4000244
1280.205634	661.2000122
1280.747661	659.2000122
1281.289632	661.0
1281.831547	662.0
1282.373406	657.5999756
1282.915209	662.0
1283.456955	665.7999878
1283.998646	669.5999756
1284.540281	676.2000122
1285.081859	679.0
1285.623381	674.0
1286.164848	665.5999756
1286.706258	661.7999878
1287.247612	663.4000244
1287.788911	660.7999878
1288.330153	659.2000122
1288.871339	662.4000244
1289.412469	661.7999878
1289.953543	659.5999756
1290.494561	657.7999878
1291.035523	659.7999878
1291.576428	661.5999756
1292.117278	660.0
1292.658072	661.0
1293.19881	660.4000244
1293.739492	658.2000122
1294.280118	659.4000244
1294.820687	661.5999756
1295.361201	662.5999756
1295.901659	659.7999878
1296.442061	657.5999756
1296.982406	659.7999878
1297.522696	656.5999756
1298.06293	659.7999878
1298.603108	661.2000122
1299.143229	659.0
1299.683295	660.4000244
1300.223305	657.5999756
1300.763259	659.4000244
1301.303157	660.0
1301.842999	657.5999756
1302.382785	659.2000122
1302.922515	661.7999878
1303.462189	660.2000122
1304.001807	659.4000244
1304.541369	660.4000244
1305.080875	660.2000122
1305.620326	658.5999756
1306.15972	659.0
1306.699058	659.0
1307.238341	659.5999756
1307.777567	659.4000244
1308.316738	661.5999756
1308.855853	658.4000244
1309.394912	657.7999878
1309.933915	660.4000244
1310.472862	661.0
1311.011753	658.0
1311.550588	657.7999878
1312.089367	661.4000244
1312.62809	661.4000244
1313.166758	660.0
1313.70537	659.0
1314.243925	659.4000244
1314.782425	660.0
1315.320869	659.7999878
1315.859257	658.5999756
1316.397589	658.7999878
1316.935866	660.5999756
1317.474086	661.7999878
1318.012251	659.7999878
1318.55036	659.7999878
1319.088413	658.7999878
1319.62641	657.4000244
1320.164351	660.2000122
1320.702236	658.4000244
1321.240066	658.4000244
1321.777839	657.7999878
1322.315557	659.2000122
1322.853219	658.5999756
1323.390826	660.0
1323.928376	665.5999756
1324.465871	658.7999878
1325.003309	659.5999756
1325.540692	660.4000244
1326.07802	664.4000244
1326.615291	660.5999756
1327.152506	659.7999878
1327.689666	660.5999756
1328.22677	659.5999756
1328.763818	657.5999756
1329.300811	660.0
1329.837747	656.7999878
1330.374628	658.0
1330.911453	660.0
1331.448222	662.0
1331.984936	659.4000244
1332.521594	660.4000244
1333.058196	660.0
1333.594742	657.7999878
1334.131232	659.7999878
1334.667667	659.2000122
1335.204046	659.2000122
1335.740369	662.4000244
1336.276637	657.4000244
1336.812848	657.5999756
1337.349004	661.0
1337.885105	659.4000244
1338.421149	659.2000122
1338.957138	660.7999878
1339.493071	659.5999756
1340.028949	658.0
1340.56477	662.2000122
1341.100536	659.2000122
1341.636246	659.2000122
1342.171901	658.5999756
1342.7075	656.7999878
1343.243043	662.2000122
1343.77853	660.7999878
1344.313962	659.5999756
1344.849338	657.7999878
1345.384659	658.5999756
1345.919923	659.5999756
1346.455133	658.2000122
1346.990286	661.7999878
1347.525384	660.0
1348.060426	658.0
1348.595412	657.4000244
1349.130343	659.2000122
1349.665218	659.5999756
1350.200037	660.7999878
1350.734801	659.4000244
1351.269509	659.7999878
1351.804162	658.4000244
1352.338758	658.7999878
1352.8733	659.7999878
1353.407785	659.7999878
1353.942215	659.5999756
1354.476589	660.4000244
1355.010908	658.7999878
1355.545171	659.0
1356.079379	658.7999878
1356.61353	659.0
1357.147627	659.5999756
1357.681667	660.4000244
1358.215652	660.7999878
1358.749582	658.7999878
1359.283456	659.5999756
1359.817274	659.2000122
1360.351037	657.7999878
1360.884744	661.0
1361.418395	658.7999878
1361.951991	660.0
1362.485531	659.2000122
1363.019016	659.2000122
1363.552445	659.4000244
1364.085819	661.5999756
1364.619137	659.4000244
1365.1524	661.7999878
1365.685607	662.5999756
1366.218758	659.0
1366.751854	659.0
1367.284894	660.4000244
1367.817879	658.7999878
1368.350808	659.2000122
1368.883682	659.5999756
1369.4165	659.0
1369.949263	658.5999756
1370.48197	660.0
1371.014622	659.0
1371.547218	659.4000244
1372.079758	658.4000244
1372.612244	661.4000244
1373.144673	657.7999878
1373.677047	661.4000244
1374.209366	656.4000244
1374.741629	659.0
1375.273836	659.0
1375.805989	658.0
1376.338085	659.4000244
1376.870126	657.7999878
1377.402112	659.5999756
1377.934042	659.4000244
1378.465917	657.7999878
1378.997736	661.2000122
1379.5295	657.7999878
1380.061208	662.0
1380.592861	658.5999756
1381.124459	661.7999878
1381.656	661.4000244
1382.187487	659.4000244
1382.718918	659.7999878
1383.250294	657.2000122
1383.781614	661.0
1384.312879	658.0
1384.844088	661.7999878
1385.375242	662.2000122
1385.90634	660.7999878
1386.437383	662.0
1386.968371	665.5999756
1387.499303	672.0
1388.03018	692.5999756
1388.561001	702.2000122
1389.091767	685.0
1389.622478	666.4000244
1390.153133	661.5999756
1390.683733	662.5999756
1391.214277	658.4000244
1391.744766	659.5999756
1392.2752	660.0
1392.805578	658.7999878
1393.335901	661.0
1393.866168	660.2000122
1394.396381	659.2000122
1394.926537	660.2000122
1395.456639	657.7999878
1395.986685	660.0
1396.516675	658.5999756
1397.046611	659.2000122
1397.576491	658.4000244
1398.106315	659.4000244
1398.636084	661.2000122
1399.165798	660.7999878
1399.695457	659.5999756
1400.22506	659.5999756
1400.754608	659.2000122
1401.284101	658.4000244
1401.813538	659.5999756
1402.34292	658.7999878
1402.872247	659.2000122
1403.401518	659.2000122
1403.930734	659.4000244
1404.459895	662.0
1404.989	661.2000122
1405.51805	658.2000122
1406.047045	658.5999756
1406.575984	660.0
1407.104869	659.4000244
1407.633697	659.5999756
1408.162471	660.4000244
1408.691189	660.7999878
1409.219852	661.0
1409.74846	659.7999878
1410.277013	663.4000244
1410.80551	662.7999878
1411.333952	659.4000244
1411.862339	658.0
1412.39067	659.5999756
1412.918946	659.2000122
1413.447167	659.5999756
1413.975333	661.4000244
1414.503444	660.4000244
1415.031499	658.7999878
1415.559499	670.2000122
1416.087444	659.5999756
1416.615333	659.0
1417.143167	657.7999878
1417.670947	658.0
1418.19867	658.7999878
1418.726339	659.5999756
1419.253952	661.4000244
1419.781511	657.7999878
1420.309014	658.4000244
1420.836461	658.4000244
1421.363854	658.0
1421.891191	660.7999878
1422.418474	659.5999756
1422.945701	657.2000122
1423.472872	660.7999878
1423.999989	657.2000122
1424.52705	660.7999878
1425.054057	661.5999756
1425.581008	660.2000122
1426.107904	659.4000244
1426.634745	659.4000244
1427.16153	658.0
1427.688261	659.0
1428.214936	660.2000122
1428.741556	657.5999756
1429.268121	658.7999878
1429.794631	658.2000122
1430.321085	658.7999878
1430.847485	660.2000122
1431.373829	659.5999756
1431.900118	661.4000244
1432.426353	657.7999878
1432.952532	657.7999878
1433.478655	659.2000122
1434.004724	661.4000244
1434.530738	659.5999756
1435.056696	658.7999878
1435.5826	658.7999878
1436.108448	660.4000244
1436.634241	658.2000122
1437.159979	658.2000122
1437.685662	660.7999878
1438.21129	659.7999878
1438.736863	660.7999878
1439.262381	660.2000122
1439.787843	659.7999878
1440.313251	658.4000244
1440.838603	661.4000244
1441.3639	659.7999878
1441.889143	658.5999756
1442.41433	658.4000244
1442.939462	659.0
1443.464539	658.2000122
1443.989561	658.2000122
1444.514528	659.7999878
1445.03944	659.7999878
1445.564297	659.2000122
1446.089099	659.0
1446.613846	658.7999878
1447.138537	658.4000244
1447.663174	660.4000244
1448.187756	658.2000122
1448.712282	658.5999756
1449.236754	658.2000122
1449.761171	659.5999756
1450.285532	657.7999878
1450.809839	659.7999878
1451.33409	658.0
1451.858287	659.7999878
1452.382428	659.2000122
1452.906515	658.4000244
1453.430546	661.2000122
1453.954523	661.5999756
1454.478444	658.7999878
1455.002311	660.4000244
1455.526123	658.0
1456.049879	658.7999878
1456.573581	661.4000244
1457.097227	661.4000244
1457.620819	659.4000244
1458.144356	660.5999756
1458.667837	658.2000122
1459.191264	658.4000244
1459.714636	659.2000122
1460.237952	657.5999756
1460.761214	659.0
1461.284421	660.2000122
1461.807573	657.5999756
1462.33067	660.5999756
1462.853712	662.7999878
1463.376699	661.4000244
1463.899632	660.2000122
1464.422509	658.4000244
1464.945331	658.7999878
1465.468099	659.5999756
1465.990811	660.7999878
1466.513469	659.2000122
1467.036071	660.4000244
1467.558619	657.5999756
1468.081112	659.2000122
1468.60355	659.5999756
1469.125933	659.5999756
1469.648261	658.5999756
1470.170534	662.5999756
1470.692752	659.5999756
1471.214916	659.5999756
1471.737024	659.0
1472.259078	659.0
1472.781077	658.7999878
1473.303021	662.5999756
1473.82491	660.2000122
1474.346744	660.5999756
1474.868523	658.2000122
1475.390248	659.7999878
1475.911917	659.5999756
1476.433532	656.5999756
1476.955092	660.2000122
1477.476597	657.2000122
1477.998047	656.5999756
1478.519442	658.7999878
1479.040783	658.7999878
1479.562068	660.2000122
1480.083299	658.7999878
1480.604475	660.2000122
1481.125596	660.7999878
1481.646663	657.4000244
1482.167674	657.4000244
1482.688631	658.7999878
1483.209533	658.2000122
1483.73038	659.0
1484.251172	659.4000244
1484.771909	660.5999756
1485.292592	660.4000244
1485.81322	658.5999756
1486.333793	658.7999878
1486.854311	660.0
1487.374775	657.0
1487.895183	658.4000244
1488.415537	659.4000244
1488.935836	658.5999756
1489.456081	658.7999878
1489.97627	659.0
1490.496405	659.5999756
1491.016485	659.7999878
1491.536511	658.4000244
1492.056481	658.4000244
1492.576397	658.4000244
1493.096258	659.7999878
1493.616064	657.2000122
1494.135816	659.5999756
1494.655513	658.7999878
1495.175155	659.4000244
1495.694742	657.0
1496.214274	657.7999878
1496.733752	657.7999878
1497.253175	659.0
1497.772544	658.7999878
1498.291858	660.2000122
1498.811116	660.0
1499.330321	658.4000244
1499.84947	667.4000244
1500.368565	658.5999756
1500.887605	659.7999878
1501.406591	657.7999878
1501.925521	659.4000244
1502.444397	659.2000122
1502.963219	658.7999878
1503.481985	660.4000244
1504.000697	659.2000122
1504.519355	660.0
1505.037957	661.0
1505.556505	656.4000244
1506.074999	660.2000122
1506.593437	662.0
1507.111821	660.7999878
1507.63015	657.2000122
1508.148425	657.4000244
1508.666645	659.4000244
1509.18481	660.0
1509.702921	659.5999756
1510.220977	659.2000122
1510.738979	668.4000244
1511.256925	659.5999756
1511.774817	659.4000244
1512.292655	659.2000122
1512.810438	660.4000244
1513.328166	656.4000244
1513.84584	657.5999756
1514.363459	659.7999878
1514.881023	657.7999878
1515.398533	658.7999878
1515.915988	658.5999756
1516.433389	657.7999878
1516.950734	661.7999878
1517.468026	659.5999756
1517.985263	658.4000244
1518.502445	659.7999878
1519.019572	659.5999756
1519.536645	659.0
1520.053664	659.2000122
1520.570628	657.4000244
1521.087537	660.0
1521.604392	657.0
1522.121192	658.4000244
1522.637937	661.0
1523.154628	660.7999878
1523.671265	658.2000122
1524.187847	657.4000244
1524.704374	659.2000122
1525.220847	659.4000244
1525.737265	660.0
1526.253629	662.7999878
1526.769938	659.5999756
1527.286192	659.4000244
1527.802392	658.5999756
1528.318538	660.7999878
1528.834629	657.5999756
1529.350666	657.5999756
1529.866648	660.4000244
1530.382575	656.5999756
1530.898448	660.2000122
1531.414266	661.0
1531.93003	659.5999756
1532.44574	657.0
1532.961395	658.4000244
1533.476995	659.5999756
1533.992541	659.7999878
1534.508033	657.2000122
1535.02347	660.0
1535.538852	658.0
1536.05418	659.5999756
1536.569454	659.2000122
1537.084673	661.2000122
1537.599837	659.2000122
1538.114947	661.2000122
1538.630003	658.2000122
1539.145004	660.2000122
1539.659951	659.2000122
1540.174843	660.2000122
1540.689681	658.2000122
1541.204465	659.0
1541.719194	656.5999756
1542.233868	658.2000122
1542.748488	660.0
1543.263054	658.5999756
1543.777565	658.7999878
1544.292022	658.5999756
1544.806424	660.5999756
1545.320772	658.5999756
1545.835066	660.7999878
1546.349305	658.2000122
1546.863489	660.2000122
1547.37762	659.0
1547.891696	658.7999878
1548.405717	658.2000122
1548.919684	659.5999756
1549.433597	656.2000122
1549.947455	658.2000122
1550.461259	656.4000244
1550.975009	657.5999756
1551.488704	659.7999878
1552.002345	659.7999878
1552.515931	657.4000244
1553.029463	659.4000244
1553.542941	658.4000244
1554.056364	658.2000122
1554.569733	658.4000244
1555.083048	661.4000244
1555.596308	660.5999756
1556.109514	656.5999756
1556.622665	658.0
1557.135762	659.7999878
1557.648805	661.0
1558.161794	659.4000244
1558.674728	658.5999756
1559.187608	658.2000122
1559.700433	659.0
1560.213205	657.5999756
1560.725921	658.7999878
1561.238584	661.4000244
1561.751192	660.2000122
1562.263746	659.2000122
1562.776246	660.4000244
1563.288691	659.5999756
1563.801082	660.0
1564.313419	660.5999756
1564.825701	659.0
1565.337929	660.0
1565.850103	661.4000244
1566.362223	660.4000244
1566.874288	658.2000122
1567.386299	658.7999878
1567.898256	659.2000122
1568.410158	661.2000122
1568.922007	660.0
1569.4338	660.5999756
1569.94554	660.0
1570.457226	660.0
1570.968857	657.5999756
1571.480434	658.0
1571.991956	657.5999756
1572.503425	660.2000122
1573.014839	657.2000122
1573.526199	659.4000244
1574.037505	658.2000122
1574.548756	660.0
1575.059953	659.5999756
1575.571096	655.5999756
1576.082185	659.2000122
1576.59322	661.2000122
1577.1042	657.2000122
1577.615126	657.2000122
1578.125998	660.2000122
1578.636816	660.5999756
1579.14758	660.4000244
1579.658289	659.2000122
1580.168944	658.4000244
1580.679545	659.2000122
1581.190092	660.4000244
1581.700585	659.4000244
1582.211023	660.7999878
1582.721407	658.5999756
1583.231737	659.5999756
1583.742013	660.5999756
1584.252235	658.2000122
1584.762403	659.4000244
1585.272516	658.2000122
1585.782575	658.2000122
1586.292581	658.5999756
1586.802532	661.2000122
1587.312428	659.2000122
1587.822271	655.7999878
1588.33206	657.5999756
1588.841794	657.7999878
1589.351474	656.5999756
1589.8611	655.7999878
1590.370672	658.0
1590.88019	657.2000122
1591.389654	659.0
1591.899064	657.5999756
1592.408419	657.0
