1042.452273	676.4000244
1043.018714	676.4000244
1043.585098	676.7999878
1044.151424	678.5999756
1044.717692	677.7999878
1045.283903	674.4000244
1045.850056	671.5999756
1046.416151	673.0
1046.982188	670.5999756
1047.548167	670.5999756
1048.114089	673.7999878
1048.679953	669.5999756
1049.24576	669.0
1049.811509	672.0
1050.3772	672.2000122
1050.942833	669.4000244
1051.508408	667.7999878
1052.073926	670.7999878
1052.639387	668.4000244
1053.204789	668.0
1053.770134	668.4000244
1054.335421	665.7999878
1054.900651	670.0
1055.465823	665.4000244
1056.030937	668.2000122
1056.595993	666.0
1057.160992	664.7999878
1057.725934	667.2000122
1058.290817	667.7999878
1058.855643	667.2000122
1059.420411	667.2000122
1059.985122	665.5999756
1060.549775	665.7999878
1061.114371	665.2000122
1061.678908	665.5999756
1062.243389	667.5999756
1062.807811	667.0
1063.372176	667.7999878
1063.936483	666.7999878
1064.500733	665.5999756
1065.064925	666.7999878
1065.62906	663.5999756
1066.193137	663.7999878
1066.757156	662.7999878
1067.321118	663.4000244
1067.885022	665.0
1068.448869	664.7999878
1069.012658	664.0
1069.57639	666.5999756
1070.140063	672.4000244
1070.70368	667.2000122
1071.267239	662.2000122
1071.83074	667.2000122
1072.394184	665.5999756
1072.95757	665.4000244
1073.520899	665.4000244
1074.08417	664.5999756
1074.647383	665.7999878
1075.21054	664.7999878
1075.773638	667.4000244
1076.336679	666.4000244
1076.899663	665.5999756
1077.462589	664.2000122
1078.025457	662.7999878
1078.588268	665.5999756
1079.151022	664.4000244
1079.713718	665.2000122
1080.276356	665.7999878
1080.838937	664.5999756
1081.401461	666.4000244
1081.963927	665.2000122
1082.526336	666.2000122
1083.088687	661.0
1083.650981	666.4000244
1084.213217	663.2000122
1084.775396	663.4000244
1085.337517	667.4000244
1085.899581	664.7999878
1086.461587	664.7999878
1087.023536	665.5999756
1087.585428	666.0
1088.147262	662.4000244
1088.709039	662.7999878
1089.270758	664.5999756
1089.83242	662.4000244
1090.394024	664.2000122
1090.955571	666.5999756
1091.517061	666.5999756
1092.078493	663.2000122
1092.639868	665.0
1093.201185	666.5999756
1093.762445	663.5999756
1094.323648	666.4000244
1094.884793	664.2000122
1095.445881	665.2000122
1096.006911	664.4000244
1096.567884	665.5999756
1097.1288	673.0
1097.689659	665.5999756
1098.25046	664.0
1098.811203	664.5999756
1099.37189	663.5999756
1099.932518	665.0
1100.49309	663.5999756
1101.053604	663.5999756
1101.614061	663.7999878
1102.174461	665.5999756
1102.734803	665.2000122
1103.295088	670.4000244
1103.855316	664.5999756
1104.415486	662.4000244
1104.975599	667.7999878
1105.535655	666.2000122
1106.095653	663.0
1106.655594	664.7999878
1107.215478	666.2000122
1107.775305	666.0
1108.335074	665.5999756
1108.894786	664.2000122
1109.45444	664.5999756
1110.014038	663.5999756
1110.573578	666.5999756
1111.133061	665.7999878
1111.692486	667.4000244
1112.251854	665.4000244
1112.811165	664.2000122
1113.370419	665.2000122
1113.929616	664.4000244
1114.488755	667.2000122
1115.047837	666.4000244
1115.606862	665.2000122
1116.16583	665.7999878
1116.72474	666.4000244
1117.283593	665.5999756
1117.842389	664.7999878
1118.401128	665.2000122
1118.959809	665.7999878
1119.518433	663.7999878
1120.077	666.5999756
1120.63551	666.5999756
1121.193963	664.0
1121.752358	665.7999878
1122.310697	664.4000244
1122.868978	664.4000244
1123.427202	666.5999756
1123.985368	666.7999878
1124.543478	663.4000244
1125.10153	665.0
1125.659526	664.7999878
1126.217464	665.5999756
1126.775345	664.2000122
1127.333168	664.4000244
1127.890935	664.2000122
1128.448644	663.7999878
1129.006297	664.4000244
1129.563892	665.0
1130.12143	665.2000122
1130.678911	665.4000244
1131.236335	666.2000122
1131.793701	663.2000122
1132.351011	665.0
1132.908263	663.7999878
1133.465458	664.7999878
1134.022597	665.5999756
1134.579678	664.5999756
1135.136702	665.5999756
1135.693669	662.0
1136.250578	664.4000244
1136.807431	663.5999756
1137.364227	665.2000122
1137.920965	665.4000244
1138.477647	665.5999756
1139.034271	664.4000244
1139.590839	663.5999756
1140.147349	666.2000122
1140.703802	665.4000244
1141.260198	662.4000244
1141.816537	663.7999878
1142.37282	663.7999878
1142.929045	663.4000244
1143.485213	663.5999756
1144.041323	664.5999756
1144.597377	664.0
1145.153374	666.7999878
1145.709314	663.0
1146.265197	665.0
1146.821023	661.0
1147.376792	663.7999878
1147.932503	663.7999878
1148.488158	664.5999756
1149.043756	662.4000244
1149.599297	662.0
1150.154781	667.2000122
1150.710207	665.0
1151.265577	663.0
1151.82089	663.5999756
1152.376146	662.7999878
1152.931345	665.0
1153.486487	663.2000122
1154.041572	663.4000244
1154.5966	663.5999756
1155.151571	664.5999756
1155.706485	664.2000122
1156.261342	666.4000244
1156.816142	664.4000244
1157.370885	667.0
1157.925572	666.2000122
1158.480201	660.7999878
1159.034774	664.4000244
1159.589289	663.7999878
1160.143748	665.4000244
1160.698149	664.5999756
1161.252494	663.5999756
1161.806782	665.0
1162.361013	662.4000244
1162.915187	662.5999756
1163.469304	664.0
1164.023364	664.0
1164.577368	666.0
1165.131314	663.5999756
1165.685204	664.0
1166.239036	663.4000244
1166.792812	664.4000244
1167.346531	664.2000122
1167.900193	665.4000244
1168.453798	664.5999756
1169.007347	663.4000244
1169.560838	662.5999756
1170.114273	662.0
1170.66765	664.2000122
1171.220971	666.0
1171.774235	663.7999878
1172.327443	663.2000122
1172.880593	661.4000244
1173.433687	668.2000122
1173.986723	663.2000122
1174.539703	664.0
1175.092626	664.0
1175.645493	664.4000244
1176.198302	662.5999756
1176.751055	663.2000122
1177.303751	664.2000122
1177.85639	663.4000244
1178.408972	666.4000244
1178.961498	662.4000244
1179.513966	665.7999878
1180.066378	662.4000244
1180.618733	661.5999756
1181.171032	661.7999878
1181.723273	665.4000244
1182.275458	666.0
1182.827586	665.4000244
1183.379657	666.0
1183.931672	664.5999756
1184.48363	666.2000122
1185.035531	665.4000244
1185.587375	663.0
1186.139162	665.0
1186.690893	666.2000122
1187.242567	664.5999756
1187.794184	661.4000244
1188.345745	666.2000122
1188.897249	663.2000122
1189.448696	664.5999756
1190.000086	662.7999878
1190.55142	665.0
1191.102697	664.7999878
1191.653918	666.2000122
1192.205081	662.2000122
1192.756188	662.7999878
1193.307238	682.5999756
1193.858232	664.0
1194.409169	664.0
1194.960049	662.4000244
1195.510872	666.4000244
1196.061639	664.0
1196.612349	664.5999756
1197.163003	663.0
1197.713599	664.4000244
1198.264139	663.0
1198.814623	665.0
1199.36505	665.0
1199.91542	663.5999756
1200.465734	663.4000244
1201.01599	665.4000244
1201.566191	663.7999878
1202.116334	663.4000244
1202.666421	662.7999878
1203.216452	661.7999878
1203.766425	663.4000244
1204.316343	661.7999878
1204.866203	664.7999878
1205.416007	664.4000244
1205.965754	664.4000244
1206.515445	663.5999756
1207.065079	663.7999878
1207.614657	662.7999878
1208.164177	662.4000244
1208.713642	664.4000244
1209.26305	666.4000244
1209.812401	661.4000244
1210.361695	664.2000122
1210.910933	663.5999756
1211.460115	665.0
1212.00924	666.0
1212.558308	663.4000244
1213.10732	663.4000244
1213.656275	661.7999878
1214.205174	661.5999756
1214.754016	666.0
1215.302801	663.0
1215.85153	664.2000122
1216.400203	664.2000122
1216.948819	662.7999878
1217.497378	665.2000122
1218.045881	665.0
1218.594327	663.5999756
1219.142717	666.7999878
1219.691051	663.5999756
1220.239327	664.5999756
1220.787548	666.7999878
1221.335712	662.7999878
1221.883819	665.4000244
1222.43187	663.7999878
1222.979864	665.7999878
1223.527802	665.7999878
1224.075683	664.5999756
1224.623508	663.2000122
1225.171277	665.5999756
1225.718989	666.2000122
1226.266644	665.7999878
1226.814243	665.5999756
1227.361786	666.0
1227.909272	665.0
1228.456702	664.7999878
1229.004075	665.0
1230.098652	670.4000244
1230.645856	664.7999878
1231.193003	666.2000122
1231.740094	667.4000244
1232.287129	665.4000244
1232.834107	664.0
1233.381029	664.4000244
1233.927894	665.4000244
1234.474703	661.5999756
1235.021455	663.2000122
1235.568151	664.7999878
1236.114791	663.5999756
1236.661374	664.2000122
1237.207901	665.4000244
1237.754372	664.2000122
1238.300786	664.7999878
1238.847144	665.2000122
1239.393445	664.4000244
1239.93969	662.5999756
1240.485879	667.2000122
1241.032011	663.4000244
1241.578087	664.7999878
1242.124106	663.7999878
1242.67007	665.0
1243.215976	664.2000122
1243.761827	662.4000244
1244.307621	664.0
1244.853359	665.2000122
1245.39904	664.5999756
1245.944665	666.5999756
1246.490234	661.7999878
1247.035746	661.7999878
1247.581203	663.4000244
1248.126602	665.4000244
1248.671946	665.0
1249.217233	660.5999756
1249.762464	665.0
1250.307638	664.0
1250.852757	664.4000244
1251.397819	665.0
1251.942824	664.0
1252.487774	664.4000244
1253.032667	663.0
1253.577503	663.5999756
1254.122284	665.2000122
1254.667008	665.4000244
1255.211676	661.7999878
1255.756288	661.7999878
1256.300843	664.7999878
1256.845342	665.5999756
1257.389785	664.2000122
1257.934172	662.7999878
1258.478502	663.0
1259.022776	663.7999878
1259.566994	663.2000122
1260.111156	678.0
1260.655261	663.0
1261.199311	663.0
1261.743304	664.7999878
1262.28724	665.2000122
1262.831121	665.5999756
1263.374945	665.0
1263.918713	665.7999878
1264.462425	665.4000244
1265.006081	665.2000122
1265.54968	665.7999878
1266.093223	663.0
1266.636711	665.2000122
1267.180141	663.7999878
1267.723516	665.2000122
1268.266835	662.5999756
1268.810097	664.7999878
1269.353303	662.0
1269.896453	663.4000244
1270.439547	664.4000244
1270.982584	664.4000244
1271.525566	665.2000122
1272.068491	663.0
1272.61136	665.5999756
1273.154173	661.2000122
1273.69693	665.7999878
1274.239631	663.2000122
1274.782275	663.5999756
1275.324864	663.2000122
1275.867396	664.4000244
1276.409872	663.0
1276.952292	663.7999878
1277.494656	664.4000244
1278.036964	662.7999878
1278.579215	663.2000122
1279.121411	661.7999878
1279.66355	666.7999878
1280.205634	664.2000122
1280.747661	663.0
1281.289632	665.0
1281.831547	666.5999756
1282.373406	665.7999878
1282.915209	670.4000244
1283.456955	671.0
1283.998646	682.4000244
1284.540281	690.2000122
1285.081859	683.4000244
1285.623381	675.7999878
1286.164848	667.7999878
1286.706258	665.5999756
1287.247612	664.4000244
1287.788911	664.7999878
1288.330153	664.7999878
1288.871339	663.4000244
1289.412469	665.4000244
1289.953543	664.4000244
1290.494561	664.7999878
1291.035523	661.7999878
1291.576428	664.4000244
1292.117278	663.5999756
1292.658072	664.5999756
1293.19881	663.7999878
1293.739492	661.0
1294.280118	664.0
1294.820687	662.2000122
1295.361201	665.2000122
1295.901659	665.4000244
1296.442061	661.7999878
1296.982406	664.7999878
1297.522696	661.7999878
1298.06293	663.5999756
1298.603108	663.0
1299.143229	665.0
1299.683295	664.5999756
1300.223305	663.5999756
1300.763259	663.0
1301.303157	662.7999878
1301.842999	665.4000244
1302.382785	661.7999878
1302.922515	664.7999878
1303.462189	662.7999878
1304.001807	664.4000244
1304.541369	662.7999878
1305.080875	664.4000244
1305.620326	662.0
1306.15972	665.5999756
1306.699058	664.0
1307.238341	661.2000122
1307.777567	663.7999878
1308.316738	665.2000122
1308.855853	664.0
1309.394912	664.0
1309.933915	664.5999756
1310.472862	665.0
1311.011753	661.7999878
1311.550588	664.7999878
1312.089367	663.0
1312.62809	663.5999756
1313.166758	663.7999878
1313.70537	664.4000244
1314.243925	664.5999756
1314.782425	664.2000122
1315.320869	662.0
1315.859257	664.0
1316.397589	662.7999878
1316.935866	663.4000244
1317.474086	666.0
1318.012251	661.2000122
1318.55036	665.7999878
1319.088413	662.2000122
1319.62641	663.2000122
1320.164351	663.7999878
1320.702236	662.2000122
1321.240066	663.4000244
1321.777839	663.7999878
1322.315557	664.0
1322.853219	661.2000122
1323.390826	663.2000122
1323.928376	671.5999756
1324.465871	662.0
1325.003309	665.5999756
1325.540692	664.0
1326.07802	663.2000122
1326.615291	663.7999878
1327.152506	663.7999878
1327.689666	664.5999756
1328.22677	661.0
1328.763818	661.4000244
1329.300811	664.4000244
1329.837747	662.5999756
1330.374628	662.2000122
1330.911453	665.2000122
1331.448222	663.7999878
1331.984936	664.2000122
1332.521594	664.5999756
1333.058196	664.2000122
1333.594742	662.0
1334.131232	662.7999878
1334.667667	663.0
1335.204046	663.4000244
1335.740369	660.0
1336.276637	664.0
1336.812848	662.0
1337.349004	661.5999756
1337.885105	661.4000244
1338.421149	663.7999878
1338.957138	663.5999756
1339.493071	664.2000122
1340.028949	663.2000122
1340.56477	662.7999878
1341.100536	663.0
1341.636246	664.5999756
1342.171901	666.0
1342.7075	662.2000122
1343.243043	665.7999878
1343.77853	664.0
1344.313962	661.4000244
1344.849338	661.2000122
1345.384659	661.0
1345.919923	661.4000244
1346.455133	661.5999756
1346.990286	663.4000244
1347.525384	664.0
1348.060426	664.7999878
1348.595412	663.2000122
1349.130343	663.2000122
1349.665218	663.5999756
1350.200037	666.0
1350.734801	663.0
1351.269509	665.2000122
1351.804162	662.5999756
1352.338758	663.2000122
1352.8733	662.0
1353.407785	663.2000122
1353.942215	665.2000122
1354.476589	663.5999756
1355.010908	663.0
1355.545171	661.0
1356.079379	662.5999756
1356.61353	663.0
1357.147627	663.0
1357.681667	664.7999878
1358.215652	663.0
1358.749582	664.7999878
1359.283456	663.4000244
1359.817274	662.2000122
1360.351037	665.5999756
1360.884744	664.0
1361.418395	662.5999756
1361.951991	663.0
1362.485531	664.4000244
1363.019016	664.7999878
1363.552445	664.5999756
1364.085819	664.4000244
1364.619137	664.0
1365.1524	663.0
1365.685607	660.4000244
1366.218758	661.4000244
1366.751854	661.7999878
1367.284894	663.4000244
1367.817879	662.2000122
1368.350808	664.7999878
1368.883682	661.4000244
1369.4165	662.7999878
1369.949263	663.7999878
1370.48197	664.2000122
1371.014622	661.0
1371.547218	664.0
1372.079758	663.2000122
1372.612244	663.5999756
1373.144673	665.2000122
1373.677047	660.4000244
1374.209366	663.5999756
1374.741629	663.2000122
1375.273836	665.4000244
1375.805989	663.0
1376.338085	664.2000122
1376.870126	664.5999756
1377.402112	665.2000122
1377.934042	663.4000244
1378.465917	663.2000122
1378.997736	665.0
1379.5295	660.7999878
1380.061208	663.4000244
1380.592861	663.0
1381.124459	665.0
1381.656	664.7999878
1382.187487	663.4000244
1382.718918	665.7999878
1383.250294	663.2000122
1383.781614	664.5999756
1384.312879	662.0
1384.844088	665.5999756
1385.375242	663.7999878
1385.90634	664.2000122
1386.437383	668.4000244
1386.968371	673.0
1387.499303	682.0
1388.03018	706.4000244
1388.561001	717.0
1389.091767	690.4000244
1389.622478	673.5999756
1390.153133	667.4000244
1390.683733	664.2000122
1391.214277	664.0
1391.744766	663.7999878
1392.2752	666.4000244
1392.805578	662.5999756
1393.335901	665.5999756
1393.866168	667.4000244
1394.396381	663.0
1394.926537	660.4000244
1395.456639	665.0
1395.986685	662.5999756
1396.516675	663.5999756
1397.046611	662.4000244
1397.576491	663.2000122
1398.106315	663.7999878
1398.636084	666.5999756
1399.165798	666.0
1399.695457	664.4000244
1400.22506	664.4000244
1400.754608	663.4000244
1401.284101	662.5999756
1401.813538	661.7999878
1402.34292	661.7999878
1402.872247	663.0
1403.401518	664.2000122
1403.930734	662.5999756
1404.459895	663.7999878
1404.989	663.4000244
1405.51805	663.4000244
1406.047045	661.4000244
1406.575984	663.7999878
1407.104869	663.4000244
1407.633697	663.4000244
1408.162471	665.4000244
1408.691189	664.7999878
1409.219852	664.4000244
1409.74846	664.0
1410.277013	666.4000244
1410.80551	666.4000244
1411.333952	665.0
1411.862339	663.0
1412.39067	665.4000244
1412.918946	663.0
1413.447167	665.0
1413.975333	661.4000244
1414.503444	664.0
1415.031499	662.5999756
1415.559499	677.5999756
1416.087444	664.7999878
1416.615333	661.5999756
1417.143167	662.2000122
1417.670947	661.0
1418.19867	662.2000122
1418.726339	664.4000244
1419.253952	661.4000244
1419.781511	664.0
1420.309014	663.2000122
1420.836461	664.7999878
1421.363854	662.0
1421.891191	664.0
1422.418474	664.7999878
1422.945701	663.7999878
1423.472872	665.7999878
1423.999989	664.4000244
1424.52705	664.4000244
1425.054057	661.0
1425.581008	661.7999878
1426.107904	665.7999878
1426.634745	661.7999878
1427.16153	663.4000244
1427.688261	664.0
1428.214936	663.5999756
1428.741556	662.5999756
1429.268121	664.4000244
1429.794631	662.5999756
1430.321085	666.4000244
1430.847485	660.5999756
1431.373829	661.5999756
1431.900118	662.5999756
1432.426353	661.0
1432.952532	665.7999878
1433.478655	663.0
1434.004724	664.2000122
1434.530738	663.0
1435.056696	665.0
1435.5826	663.2000122
1436.108448	663.2000122
1436.634241	661.7999878
1437.159979	661.7999878
1437.685662	662.0
1438.21129	663.5999756
1438.736863	665.5999756
1439.262381	661.7999878
1439.787843	663.4000244
1440.313251	664.4000244
1440.838603	665.5999756
1441.3639	662.4000244
1441.889143	662.7999878
1442.41433	666.0
1442.939462	663.2000122
1443.464539	664.5999756
1443.989561	662.7999878
1444.514528	665.4000244
1445.03944	664.2000122
1445.564297	664.4000244
1446.089099	665.0
1446.613846	661.0
1447.138537	663.0
1447.663174	661.5999756
1448.187756	665.7999878
1448.712282	662.4000244
1449.236754	662.5999756
1449.761171	663.5999756
1450.285532	663.4000244
1450.809839	665.7999878
1451.33409	665.5999756
1451.858287	663.7999878
1452.382428	664.7999878
1452.906515	662.5999756
1453.430546	663.2000122
1453.954523	664.2000122
1454.478444	663.2000122
1455.002311	664.4000244
1455.526123	663.4000244
1456.049879	662.0
1456.573581	662.0
1457.097227	662.0
1457.620819	664.2000122
1458.144356	662.2000122
1458.667837	667.5999756
1459.191264	662.2000122
1459.714636	663.0
1460.237952	665.4000244
1460.761214	663.0
1461.284421	663.0
1461.807573	664.0
1462.33067	665.5999756
1462.853712	666.0
1463.376699	664.2000122
1463.899632	662.7999878
1464.422509	663.2000122
1464.945331	662.7999878
1465.468099	663.4000244
1465.990811	663.7999878
1466.513469	660.4000244
1467.036071	662.4000244
1467.558619	664.7999878
1468.081112	663.7999878
1468.60355	663.2000122
1469.125933	666.5999756
1469.648261	665.0
1470.170534	664.4000244
1470.692752	664.0
1471.214916	664.5999756
1471.737024	663.7999878
1472.259078	664.7999878
1472.781077	662.4000244
1473.303021	665.2000122
1473.82491	663.2000122
1474.346744	663.4000244
1474.868523	665.4000244
1475.390248	664.2000122
1475.911917	662.0
1476.433532	662.4000244
1476.955092	663.2000122
1477.476597	662.7999878
1477.998047	662.4000244
1478.519442	663.2000122
1479.040783	662.5999756
1479.562068	664.5999756
1480.083299	664.7999878
1480.604475	663.0
1481.125596	663.7999878
1481.646663	665.2000122
1482.167674	660.7999878
1482.688631	664.0
1483.209533	664.7999878
1483.73038	662.4000244
1484.251172	663.7999878
1484.771909	663.2000122
1485.292592	663.2000122
1485.81322	662.2000122
1486.333793	663.5999756
1486.854311	663.0
1487.374775	666.2000122
1487.895183	662.4000244
1488.415537	661.5999756
1488.935836	661.0
1489.456081	663.4000244
1489.97627	664.2000122
1490.496405	663.2000122
1491.016485	663.7999878
1491.536511	663.0
1492.056481	664.7999878
1492.576397	660.2000122
1493.096258	661.0
1493.616064	663.2000122
1494.135816	661.5999756
1494.655513	662.0
1495.175155	661.0
1495.694742	663.2000122
1496.214274	661.7999878
1496.733752	663.7999878
1497.253175	663.4000244
1497.772544	661.5999756
1498.291858	662.5999756
1498.811116	665.4000244
1499.330321	662.0
1499.84947	672.4000244
1500.368565	664.4000244
1500.887605	666.2000122
1501.406591	661.4000244
1501.925521	661.4000244
1502.444397	660.2000122
1502.963219	663.4000244
1503.481985	660.2000122
1504.000697	661.5999756
1504.519355	660.4000244
1505.037957	662.7999878
1505.556505	662.2000122
1506.074999	663.0
1506.593437	662.7999878
1507.111821	662.4000244
1507.63015	661.4000244
1508.148425	660.5999756
1508.666645	662.4000244
1509.18481	661.4000244
1509.702921	661.2000122
1510.220977	662.7999878
1510.738979	672.4000244
1511.256925	662.7999878
1511.774817	663.5999756
1512.292655	662.4000244
1512.810438	663.0
1513.328166	662.4000244
1513.84584	660.0
1514.363459	664.4000244
1514.881023	663.7999878
1515.398533	664.0
1515.915988	661.2000122
1516.433389	662.0
1516.950734	662.5999756
1517.468026	663.5999756
1517.985263	661.4000244
1518.502445	663.0
1519.019572	662.5999756
1519.536645	662.5999756
1520.053664	665.5999756
1520.570628	661.7999878
1521.087537	662.2000122
1521.604392	664.5999756
1522.121192	660.7999878
1522.637937	662.0
1523.154628	662.0
1523.671265	664.2000122
1524.187847	663.2000122
1524.704374	663.5999756
1525.220847	663.2000122
1525.737265	661.7999878
1526.253629	664.0
1526.769938	663.2000122
1527.286192	663.7999878
1527.802392	663.7999878
1528.318538	663.4000244
1528.834629	662.4000244
1529.350666	665.4000244
1529.866648	662.4000244
1530.382575	662.0
1530.898448	664.2000122
1531.414266	661.2000122
1531.93003	662.7999878
1532.44574	662.5999756
1532.961395	662.7999878
1533.476995	663.7999878
1533.992541	662.5999756
1534.508033	664.5999756
1535.02347	663.7999878
1535.538852	661.5999756
1536.05418	664.2000122
1536.569454	664.4000244
1537.084673	665.0
1537.599837	662.2000122
1538.114947	665.4000244
1538.630003	662.5999756
1539.145004	662.0
1539.659951	663.5999756
1540.174843	664.2000122
1540.689681	660.0
1541.204465	662.2000122
1541.719194	663.0
1542.233868	663.5999756
1542.748488	662.4000244
1543.263054	663.7999878
1543.777565	662.7999878
1544.292022	661.7999878
1544.806424	661.2000122
1545.320772	663.0
1545.835066	665.2000122
1546.349305	663.4000244
1546.863489	660.4000244
1547.37762	663.4000244
1547.891696	662.5999756
1548.405717	660.4000244
1548.919684	662.0
1549.433597	663.5999756
1549.947455	660.4000244
1550.461259	663.2000122
1550.975009	663.0
1551.488704	663.7999878
1552.002345	665.0
1552.515931	663.4000244
1553.029463	661.0
1553.542941	660.0
1554.056364	664.4000244
1554.569733	661.7999878
1555.083048	662.2000122
1555.596308	662.0
1556.109514	662.0
1556.622665	666.0
1557.135762	665.5999756
1557.648805	663.5999756
1558.161794	662.4000244
1558.674728	663.4000244
1559.187608	662.4000244
1559.700433	663.0
1560.213205	661.0
1560.725921	664.5999756
1561.238584	662.4000244
1561.751192	662.0
1562.263746	662.7999878
1562.776246	664.0
1563.288691	662.5999756
1563.801082	663.5999756
1564.313419	661.2000122
1564.825701	663.0
1565.337929	661.2000122
1565.850103	661.2000122
1566.362223	663.4000244
1566.874288	663.0
1567.386299	661.2000122
1567.898256	664.0
1568.410158	662.4000244
1568.922007	663.7999878
1569.4338	663.0
1569.94554	663.4000244
1570.457226	664.2000122
1570.968857	662.4000244
1571.480434	664.5999756
1571.991956	663.7999878
1572.503425	663.5999756
1573.014839	664.0
1573.526199	662.5999756
1574.037505	662.5999756
1574.548756	663.2000122
1575.059953	660.0
1575.571096	663.4000244
1576.082185	661.7999878
1576.59322	663.5999756
1577.1042	663.2000122
1577.615126	662.5999756
1578.125998	665.2000122
1578.636816	663.4000244
1579.14758	660.7999878
1579.658289	663.0
1580.168944	663.5999756
1580.679545	662.4000244
1581.190092	664.0
1581.700585	663.5999756
1582.211023	664.7999878
1582.721407	663.5999756
1583.231737	666.2000122
1583.742013	663.5999756
1584.252235	662.2000122
1584.762403	663.0
1585.272516	661.7999878
1585.782575	662.0
1586.292581	664.0
1586.802532	663.7999878
1587.312428	665.5999756
1587.822271	663.2000122
1588.33206	661.2000122
1588.841794	662.7999878
1589.351474	661.7999878
1589.8611	662.7999878
1590.370672	664.2000122
1590.88019	662.7999878
1591.389654	663.5999756
1591.899064	661.2000122
1592.408419	659.7999878
