1042.452273	670.0
1043.018714	669.4000244
1043.585098	669.4000244
1044.151424	669.2000122
1044.717692	668.7999878
1045.283903	664.5999756
1045.850056	666.0
1046.416151	664.4000244
1046.982188	668.2000122
1047.548167	666.0
1048.114089	665.5999756
1048.679953	665.5999756
1049.24576	667.4000244
1049.811509	663.5999756
1050.3772	664.0
1050.942833	664.0
1051.508408	663.5999756
1052.073926	664.7999878
1052.639387	663.0
1053.204789	665.2000122
1053.770134	666.0
1054.335421	665.7999878
1054.900651	662.5999756
1055.465823	663.2000122
1056.030937	661.2000122
1056.595993	664.5999756
1057.160992	663.5999756
1057.725934	666.2000122
1058.290817	663.5999756
1058.855643	664.0
1059.420411	662.2000122
1059.985122	663.2000122
1060.549775	659.4000244
1061.114371	664.7999878
1061.678908	662.5999756
1062.243389	663.2000122
1062.807811	662.4000244
1063.372176	660.2000122
1063.936483	661.4000244
1064.500733	662.0
1065.064925	660.4000244
1065.62906	659.4000244
1066.193137	663.0
1066.757156	665.0
1067.321118	664.7999878
1067.885022	661.7999878
1068.448869	663.5999756
1069.012658	664.0
1069.57639	663.0
1070.140063	671.0
1070.70368	662.0
1071.267239	660.0
1071.83074	661.7999878
1072.394184	662.7999878
1072.95757	660.4000244
1073.520899	662.2000122
1074.08417	662.5999756
1074.647383	661.0
1075.21054	660.2000122
1075.773638	661.7999878
1076.336679	662.7999878
1076.899663	664.5999756
1077.462589	660.7999878
1078.025457	659.2000122
1078.588268	659.4000244
1079.151022	662.2000122
1079.713718	662.4000244
1080.276356	660.7999878
1080.838937	660.5999756
1081.401461	661.4000244
1081.963927	660.4000244
1082.526336	663.4000244
1083.088687	662.0
1083.650981	663.5999756
1084.213217	660.7999878
1084.775396	662.7999878
1085.337517	662.4000244
1085.899581	662.4000244
1086.461587	661.0
1087.023536	661.2000122
1087.585428	662.2000122
1088.147262	663.2000122
1088.709039	662.2000122
1089.270758	662.7999878
1089.83242	661.0
1090.394024	660.2000122
1090.955571	660.7999878
1091.517061	660.0
1092.078493	662.0
1092.639868	660.5999756
1093.201185	660.2000122
1093.762445	661.7999878
1094.323648	660.0
1094.884793	659.4000244
1095.445881	662.4000244
1096.006911	661.7999878
1096.567884	660.5999756
1097.1288	668.7999878
1097.689659	661.0
1098.25046	661.4000244
1098.811203	661.0
1099.37189	661.5999756
1099.932518	660.0
1100.49309	661.0
1101.053604	661.2000122
1101.614061	658.7999878
1102.174461	661.4000244
1102.734803	661.4000244
1103.295088	660.4000244
1103.855316	661.4000244
1104.415486	659.5999756
1104.975599	661.4000244
1105.535655	661.2000122
1106.095653	661.2000122
1106.655594	660.7999878
1107.215478	662.2000122
1107.775305	659.7999878
1108.335074	663.4000244
1108.894786	661.5999756
1109.45444	661.4000244
1110.014038	661.0
1110.573578	661.5999756
1111.133061	660.7999878
1111.692486	662.7999878
1112.251854	664.2000122
1112.811165	664.2000122
1113.370419	662.0
1113.929616	661.5999756
1114.488755	663.0
1115.047837	661.5999756
1115.606862	662.5999756
1116.16583	663.2000122
1116.72474	663.4000244
1117.283593	664.4000244
1117.842389	659.5999756
1118.401128	661.5999756
1118.959809	664.7999878
1119.518433	662.7999878
1120.077	660.5999756
1120.63551	660.2000122
1121.193963	663.7999878
1121.752358	662.0
1122.310697	659.7999878
1122.868978	663.4000244
1123.427202	665.5999756
1123.985368	661.7999878
1124.543478	662.5999756
1125.10153	660.7999878
1125.659526	660.5999756
1126.217464	660.7999878
1126.775345	661.0
1127.333168	659.0
1127.890935	661.2000122
1128.448644	661.2000122
1129.006297	662.0
1129.563892	661.7999878
1130.12143	660.4000244
1130.678911	662.4000244
1131.236335	661.5999756
1131.793701	658.7999878
1132.351011	657.7999878
1132.908263	660.7999878
1133.465458	658.5999756
1134.022597	662.0
1134.579678	661.0
1135.136702	660.7999878
1135.693669	661.5999756
1136.250578	661.7999878
1136.807431	662.0
1137.364227	661.0
1137.920965	660.2000122
1138.477647	660.2000122
1139.034271	658.5999756
1139.590839	660.0
1140.147349	659.7999878
1140.703802	660.0
1141.260198	661.5999756
1141.816537	662.2000122
1142.37282	660.4000244
1142.929045	661.5999756
1143.485213	660.7999878
1144.041323	660.7999878
1144.597377	660.4000244
1145.153374	662.5999756
1145.709314	658.5999756
1146.265197	661.2000122
1146.821023	660.2000122
1147.376792	662.0
1147.932503	659.2000122
1148.488158	662.0
1149.043756	660.7999878
1149.599297	663.4000244
1150.154781	660.7999878
1150.710207	661.4000244
1151.265577	660.4000244
1151.82089	662.5999756
1152.376146	660.2000122
1152.931345	660.4000244
1153.486487	661.2000122
1154.041572	660.4000244
1154.5966	661.0
1155.151571	659.7999878
1155.706485	662.7999878
1156.261342	659.5999756
1156.816142	660.5999756
1157.370885	661.2000122
1157.925572	659.4000244
1158.480201	659.2000122
1159.034774	663.2000122
1159.589289	659.2000122
1160.143748	662.4000244
1160.698149	660.7999878
1161.252494	660.5999756
1161.806782	660.4000244
1162.361013	660.7999878
1162.915187	660.4000244
1163.469304	660.0
1164.023364	663.4000244
1164.577368	659.2000122
1165.131314	662.4000244
1165.685204	661.2000122
1166.239036	660.7999878
1166.792812	659.5999756
1167.346531	663.0
1167.900193	659.7999878
1168.453798	660.7999878
1169.007347	658.2000122
1169.560838	660.7999878
1170.114273	660.5999756
1170.66765	663.2000122
1171.220971	658.7999878
1171.774235	661.4000244
1172.327443	659.7999878
1172.880593	659.0
1173.433687	659.5999756
1173.986723	661.0
1174.539703	659.0
1175.092626	661.4000244
1175.645493	662.2000122
1176.198302	659.5999756
1176.751055	660.5999756
1177.303751	661.2000122
1177.85639	660.0
1178.408972	661.5999756
1178.961498	660.2000122
1179.513966	660.4000244
1180.066378	661.2000122
1180.618733	659.7999878
1181.171032	661.5999756
1181.723273	662.2000122
1182.275458	662.2000122
1182.827586	661.2000122
1183.379657	662.5999756
1183.931672	662.5999756
1184.48363	662.7999878
1185.035531	665.0
1185.587375	660.7999878
1186.139162	659.4000244
1186.690893	661.2000122
1187.242567	660.5999756
1187.794184	662.5999756
1188.345745	662.0
1188.897249	661.4000244
1189.448696	662.5999756
1190.000086	663.2000122
1190.55142	661.4000244
1191.102697	661.5999756
1191.653918	660.5999756
1192.205081	661.4000244
1192.756188	662.7999878
1193.307238	680.2000122
1193.858232	659.4000244
1194.409169	662.5999756
1194.960049	662.5999756
1195.510872	659.7999878
1196.061639	661.2000122
1196.612349	662.7999878
1197.163003	663.2000122
1197.713599	660.5999756
1198.264139	660.4000244
1198.814623	661.5999756
1199.36505	660.7999878
1199.91542	660.4000244
1200.465734	661.5999756
1201.01599	659.4000244
1201.566191	661.7999878
1202.116334	660.7999878
1202.666421	660.0
1203.216452	659.0
1203.766425	661.5999756
1204.316343	661.7999878
1204.866203	660.4000244
1205.416007	659.7999878
1205.965754	659.4000244
1206.515445	660.0
1207.065079	660.7999878
1207.614657	660.7999878
1208.164177	660.7999878
1208.713642	660.4000244
1209.26305	661.0
1209.812401	661.2000122
1210.361695	659.7999878
1210.910933	658.4000244
1211.460115	660.7999878
1212.00924	663.2000122
1212.558308	663.0
1213.10732	661.7999878
1213.656275	659.7999878
1214.205174	660.7999878
1214.754016	661.4000244
1215.302801	660.5999756
1215.85153	660.2000122
1216.400203	659.5999756
1216.948819	660.5999756
1217.497378	660.5999756
1218.045881	661.5999756
1218.594327	661.7999878
1219.142717	664.0
1219.691051	659.5999756
1220.239327	661.7999878
1220.787548	663.0
1221.335712	658.5999756
1221.883819	661.4000244
1222.43187	660.2000122
1222.979864	661.2000122
1223.527802	660.0
1224.075683	658.7999878
1224.623508	662.5999756
1225.171277	662.5999756
1225.718989	661.2000122
1226.266644	660.2000122
1226.814243	661.2000122
1227.361786	662.2000122
1227.909272	660.4000244
1228.456702	663.0
1229.004075	660.4000244
1229.551392	662.0
1230.098652	665.4000244
1230.645856	660.4000244
1231.193003	660.5999756
1231.740094	667.0
1232.287129	659.5999756
1232.834107	660.7999878
1233.381029	661.7999878
1233.927894	662.4000244
1234.474703	661.7999878
1235.021455	659.2000122
1235.568151	660.4000244
1236.114791	660.4000244
1236.661374	661.0
1237.207901	659.4000244
1237.754372	661.4000244
1238.300786	661.0
1238.847144	661.2000122
1239.393445	662.0
1239.93969	660.0
1240.485879	661.5999756
1241.032011	660.4000244
1241.578087	663.2000122
1242.124106	661.4000244
1242.67007	662.4000244
1243.215976	661.7999878
1243.761827	660.7999878
1244.307621	662.5999756
1244.853359	663.2000122
1245.39904	661.5999756
1245.944665	661.4000244
1246.490234	660.2000122
1247.035746	662.0
1247.581203	660.7999878
1248.126602	660.7999878
1248.671946	660.5999756
1249.217233	662.0
1249.762464	659.7999878
1250.307638	662.2000122
1250.852757	660.0
1251.397819	663.2000122
1251.942824	661.0
1252.487774	660.0
1253.032667	662.4000244
1253.577503	661.0
1254.122284	661.2000122
1254.667008	660.5999756
1255.211676	659.5999756
1255.756288	662.0
1256.300843	661.2000122
1256.845342	662.2000122
1257.389785	662.5999756
1257.934172	663.0
1258.478502	661.4000244
1259.022776	663.2000122
1259.566994	663.2000122
1260.655261	662.2000122
1261.199311	662.7999878
1261.743304	662.2000122
1262.28724	661.2000122
1262.831121	662.5999756
1263.374945	661.2000122
1263.918713	663.5999756
1264.462425	664.2000122
1265.006081	663.0
1265.54968	665.2000122
1266.093223	662.2000122
1266.636711	661.5999756
1267.180141	662.7999878
1267.723516	661.5999756
1268.266835	663.2000122
1268.810097	662.0
1269.353303	661.7999878
1269.896453	661.2000122
1270.439547	661.4000244
1270.982584	661.0
1271.525566	660.0
1272.068491	662.7999878
1272.61136	662.7999878
1273.154173	662.0
1273.69693	659.0
1274.239631	663.4000244
1274.782275	661.7999878
1275.324864	660.5999756
1275.867396	662.2000122
1276.409872	661.0
1276.952292	659.7999878
1277.494656	662.5999756
1278.036964	660.7999878
1278.579215	662.5999756
1279.121411	662.7999878
1279.66355	661.2000122
1280.205634	658.0
1280.747661	665.0
1281.289632	661.4000244
1281.831547	664.0
1282.373406	668.4000244
1282.915209	675.2000122
1283.456955	685.0
1283.998646	698.4000244
1284.540281	713.5999756
1285.081859	705.0
1285.623381	684.0
1286.164848	672.2000122
1286.706258	666.0
1287.247612	663.5999756
1287.788911	662.5999756
1288.330153	662.7999878
1288.871339	661.4000244
1289.412469	661.2000122
1289.953543	662.0
1290.494561	658.4000244
1291.035523	663.2000122
1291.576428	659.7999878
1292.117278	661.2000122
1292.658072	660.7999878
1293.19881	663.0
1293.739492	658.7999878
1294.280118	660.2000122
1294.820687	659.7999878
1295.361201	661.0
1295.901659	662.2000122
1296.442061	660.7999878
1296.982406	663.0
1297.522696	660.4000244
1298.06293	660.4000244
1298.603108	662.0
1299.143229	662.7999878
1299.683295	664.5999756
1300.223305	660.7999878
1300.763259	659.5999756
1301.303157	662.5999756
1301.842999	661.7999878
1302.382785	660.5999756
1302.922515	662.0
1303.462189	664.0
1304.001807	662.5999756
1304.541369	663.0
1305.080875	661.4000244
1305.620326	661.7999878
1306.15972	661.4000244
1306.699058	663.0
1307.238341	660.0
1307.777567	659.7999878
1308.316738	661.7999878
1308.855853	659.5999756
1309.394912	662.2000122
1309.933915	662.0
1310.472862	661.5999756
1311.011753	660.2000122
1311.550588	661.0
1312.089367	661.4000244
1312.62809	660.2000122
1313.166758	661.7999878
1313.70537	659.7999878
1314.243925	659.5999756
1314.782425	660.0
1315.320869	660.0
1315.859257	662.7999878
1316.397589	662.5999756
1316.935866	660.5999756
1317.474086	660.5999756
1318.012251	660.5999756
1318.55036	659.4000244
1319.088413	661.0
1319.62641	660.0
1320.164351	658.0
1320.702236	659.2000122
1321.240066	661.2000122
1321.777839	661.4000244
1322.315557	663.0
1322.853219	659.0
1323.390826	662.7999878
1323.928376	665.5999756
1324.465871	659.5999756
1325.003309	660.0
1325.540692	662.5999756
1326.07802	663.5999756
1326.615291	663.4000244
1327.152506	661.5999756
1327.689666	662.5999756
1328.22677	660.7999878
1328.763818	662.2000122
1329.300811	660.0
1329.837747	659.4000244
1330.374628	660.2000122
1330.911453	661.5999756
1331.448222	661.4000244
1331.984936	662.4000244
1332.521594	661.0
1333.058196	661.4000244
1333.594742	660.4000244
1334.131232	662.0
1334.667667	663.0
1335.204046	658.4000244
1335.740369	660.5999756
1336.276637	659.7999878
1336.812848	661.2000122
1337.349004	662.5999756
1337.885105	657.7999878
1338.421149	660.7999878
1338.957138	659.2000122
1339.493071	658.5999756
1340.028949	660.7999878
1340.56477	662.7999878
1341.100536	658.0
1341.636246	659.5999756
1342.171901	661.0
1342.7075	658.7999878
1343.243043	661.2000122
1343.77853	659.7999878
1344.313962	658.7999878
1344.849338	661.5999756
1345.384659	662.4000244
1345.919923	661.7999878
1346.455133	659.2000122
1346.990286	660.4000244
1347.525384	660.0
1348.060426	659.7999878
1348.595412	659.4000244
1349.130343	662.4000244
1349.665218	662.0
1350.200037	659.7999878
1350.734801	661.2000122
1351.269509	661.0
1351.804162	662.4000244
1352.338758	660.7999878
1352.8733	660.7999878
1353.407785	661.5999756
1353.942215	661.7999878
1354.476589	662.2000122
1355.010908	661.0
1355.545171	660.2000122
1356.079379	659.4000244
1356.61353	658.7999878
1357.147627	661.0
1357.681667	659.7999878
1358.215652	661.7999878
1358.749582	661.0
1359.283456	658.2000122
1359.817274	660.5999756
1360.351037	660.0
1360.884744	661.5999756
1361.418395	659.4000244
1361.951991	660.7999878
1362.485531	658.7999878
1363.019016	659.7999878
1363.552445	658.2000122
1364.085819	661.5999756
1364.619137	660.4000244
1365.1524	660.0
1365.685607	660.5999756
1366.218758	659.5999756
1366.751854	659.2000122
1367.284894	660.7999878
1367.817879	660.0
1368.350808	661.4000244
1368.883682	659.0
1369.4165	662.2000122
1369.949263	660.2000122
1370.48197	661.7999878
1371.014622	662.0
1371.547218	660.5999756
1372.079758	662.7999878
1372.612244	662.0
1373.144673	660.5999756
1373.677047	661.2000122
1374.209366	661.5999756
1374.741629	660.5999756
1375.273836	660.4000244
1375.805989	660.5999756
1376.338085	662.4000244
1376.870126	659.2000122
1377.402112	659.7999878
1377.934042	661.5999756
1378.465917	662.2000122
1378.997736	663.2000122
1379.5295	659.4000244
1380.061208	660.4000244
1380.592861	661.0
1381.124459	663.4000244
1381.656	664.5999756
1382.187487	660.0
1382.718918	663.7999878
1383.250294	660.5999756
1383.781614	663.0
1384.312879	662.7999878
1384.844088	664.5999756
1385.375242	665.7999878
1385.90634	668.7999878
1386.437383	669.7999878
1386.968371	680.7999878
1387.499303	702.7999878
1388.03018	751.0
1388.561001	763.0
1389.091767	717.0
1389.622478	681.4000244
1390.153133	669.2000122
1390.683733	666.2000122
1391.214277	665.0
1391.744766	661.0
1392.2752	660.7999878
1392.805578	658.5999756
1393.335901	661.4000244
1393.866168	663.0
1394.396381	662.0
1394.926537	661.0
1395.456639	661.7999878
1395.986685	661.4000244
1396.516675	662.4000244
1397.046611	660.4000244
1397.576491	660.5999756
1398.106315	662.2000122
1398.636084	660.4000244
1399.165798	662.2000122
1399.695457	659.7999878
1400.22506	659.0
1400.754608	658.4000244
1401.284101	661.2000122
1401.813538	663.5999756
1402.34292	660.5999756
1402.872247	660.7999878
1403.401518	661.4000244
1403.930734	662.0
1404.459895	659.2000122
1404.989	661.5999756
1405.51805	661.5999756
1406.047045	660.0
1406.575984	661.0
1407.104869	660.2000122
1407.633697	660.4000244
1408.162471	663.4000244
1408.691189	660.4000244
1409.219852	665.5999756
1409.74846	666.2000122
1410.277013	662.5999756
1410.80551	661.4000244
1411.333952	663.4000244
1411.862339	661.7999878
1412.39067	660.4000244
1412.918946	664.2000122
1413.447167	660.4000244
1413.975333	662.0
1414.503444	658.4000244
1415.031499	660.0
1415.559499	676.4000244
1416.087444	659.5999756
1416.615333	659.4000244
1417.143167	660.7999878
1417.670947	659.5999756
1418.19867	658.5999756
1418.726339	661.4000244
1419.253952	659.4000244
1419.781511	659.0
1420.309014	659.4000244
1420.836461	660.5999756
1421.363854	659.7999878
1421.891191	661.2000122
1422.418474	659.2000122
1422.945701	661.0
1423.472872	659.4000244
1423.999989	663.4000244
1424.52705	660.5999756
1425.054057	662.2000122
1425.581008	659.5999756
1426.107904	658.7999878
1426.634745	659.7999878
1427.16153	658.4000244
1427.688261	660.0
1428.214936	660.4000244
1428.741556	660.0
1429.268121	658.7999878
1429.794631	659.5999756
1430.321085	661.7999878
1430.847485	658.0
1431.373829	660.2000122
1431.900118	659.0
1432.426353	659.0
1432.952532	659.4000244
1433.478655	660.7999878
1434.004724	659.4000244
1434.530738	661.5999756
1435.056696	663.2000122
1435.5826	660.4000244
1436.108448	661.7999878
1436.634241	659.7999878
1437.159979	659.4000244
1437.685662	660.7999878
1438.21129	659.4000244
1438.736863	660.2000122
1439.262381	662.4000244
1439.787843	660.7999878
1440.313251	658.7999878
1440.838603	661.7999878
1441.3639	658.4000244
1441.889143	661.2000122
1442.41433	661.5999756
1442.939462	660.7999878
1443.464539	659.5999756
1443.989561	658.5999756
1444.514528	659.4000244
1445.03944	659.7999878
1445.564297	661.7999878
1446.089099	660.0
1446.613846	660.0
1447.138537	659.5999756
1447.663174	661.7999878
1448.187756	660.0
1448.712282	661.4000244
1449.236754	660.0
1449.761171	659.5999756
1450.285532	657.5999756
1450.809839	657.0
1451.33409	661.2000122
1451.858287	662.0
1452.382428	659.0
1452.906515	661.4000244
1453.430546	657.2000122
1453.954523	660.7999878
1454.478444	659.2000122
1455.002311	660.4000244
1455.526123	659.4000244
1456.049879	660.2000122
1456.573581	660.0
1457.097227	659.4000244
1457.620819	658.5999756
1458.144356	661.5999756
1458.667837	660.5999756
1459.191264	657.4000244
1459.714636	658.2000122
1460.237952	661.5999756
1460.761214	661.0
1461.284421	663.0
1461.807573	663.2000122
1462.33067	659.7999878
1462.853712	667.5999756
1463.376699	671.5999756
1463.899632	662.4000244
1464.422509	661.2000122
1464.945331	661.2000122
1465.468099	658.2000122
1465.990811	660.5999756
1466.513469	658.2000122
1467.036071	660.2000122
1467.558619	662.2000122
1468.081112	661.0
1468.60355	660.2000122
1469.125933	660.5999756
1469.648261	661.4000244
1470.170534	660.5999756
1470.692752	661.0
1471.214916	660.5999756
1471.737024	660.7999878
1472.259078	659.7999878
1472.781077	659.4000244
1473.303021	660.0
1473.82491	660.2000122
1474.346744	662.0
1474.868523	659.7999878
1475.390248	661.7999878
1475.911917	659.5999756
1476.433532	659.0
1476.955092	657.7999878
1477.476597	659.2000122
1477.998047	660.5999756
1478.519442	659.7999878
1479.040783	659.7999878
1479.562068	661.4000244
1480.083299	659.0
1480.604475	658.4000244
1481.125596	659.4000244
1481.646663	660.5999756
1482.167674	657.7999878
1482.688631	661.0
1483.209533	660.2000122
1483.73038	660.5999756
1484.251172	661.2000122
1484.771909	660.7999878
1485.292592	659.2000122
1485.81322	660.5999756
1486.333793	659.0
1486.854311	657.4000244
1487.374775	659.4000244
1487.895183	659.0
1488.415537	658.0
1488.935836	662.4000244
1489.456081	658.5999756
1489.97627	662.4000244
1490.496405	659.0
1491.016485	659.0
1491.536511	659.4000244
1492.056481	661.0
1492.576397	660.2000122
1493.096258	661.0
1493.616064	658.7999878
1494.135816	660.4000244
1494.655513	661.0
1495.175155	660.4000244
1495.694742	659.2000122
1496.214274	662.5999756
1496.733752	659.2000122
1497.253175	660.2000122
1497.772544	658.7999878
1498.291858	659.4000244
1498.811116	659.4000244
1499.330321	658.0
1499.84947	667.0
1500.368565	659.5999756
1500.887605	656.5999756
1501.406591	658.2000122
1501.925521	656.7999878
1502.444397	657.7999878
1502.963219	660.4000244
1503.481985	658.0
1504.000697	661.2000122
1504.519355	660.2000122
1505.037957	659.2000122
1505.556505	658.5999756
1506.074999	660.4000244
1506.593437	660.4000244
1507.111821	661.2000122
1507.63015	660.0
1508.148425	659.4000244
1508.666645	659.5999756
1509.18481	659.2000122
1509.702921	658.0
1510.220977	659.4000244
1510.738979	669.4000244
1511.256925	658.0
1511.774817	659.5999756
1512.292655	659.7999878
1512.810438	658.2000122
1513.328166	658.4000244
1513.84584	658.5999756
1514.363459	658.4000244
1514.881023	658.7999878
1515.398533	657.4000244
1515.915988	658.4000244
1516.433389	660.4000244
1516.950734	659.2000122
1517.468026	660.2000122
1517.985263	657.4000244
1518.502445	656.5999756
1519.019572	660.7999878
1519.536645	657.5999756
1520.053664	658.0
1520.570628	658.4000244
1521.087537	660.5999756
1521.604392	661.2000122
1522.121192	657.5999756
1522.637937	658.4000244
1523.154628	659.7999878
1523.671265	661.2000122
1524.187847	661.5999756
1524.704374	658.4000244
1525.220847	657.5999756
1525.737265	665.4000244
1526.253629	666.7999878
1526.769938	663.0
1527.286192	659.7999878
1527.802392	657.5999756
1528.318538	659.0
1528.834629	660.5999756
1529.350666	657.2000122
1529.866648	660.7999878
1530.382575	659.4000244
1530.898448	658.4000244
1531.414266	659.2000122
1531.93003	658.7999878
1532.44574	657.7999878
1532.961395	659.7999878
1533.476995	659.0
1533.992541	659.7999878
1534.508033	659.7999878
1535.02347	661.0
1535.538852	659.5999756
1536.05418	660.4000244
1536.569454	659.2000122
1537.084673	659.0
1537.599837	657.2000122
1538.114947	659.4000244
1538.630003	659.7999878
1539.145004	660.4000244
1539.659951	660.0
1540.174843	660.2000122
1540.689681	657.4000244
1541.204465	659.4000244
1541.719194	660.4000244
1542.233868	657.7999878
1542.748488	657.7999878
1543.263054	660.0
1543.777565	658.2000122
1544.292022	660.5999756
1544.806424	659.0
1545.320772	657.4000244
1545.835066	659.0
1546.349305	658.7999878
1546.863489	660.2000122
1547.37762	660.0
1547.891696	658.2000122
1548.405717	658.5999756
1548.919684	658.5999756
1549.433597	659.7999878
1549.947455	661.4000244
1550.461259	660.5999756
1550.975009	660.2000122
1551.488704	658.7999878
1552.002345	658.7999878
1552.515931	660.5999756
1553.029463	659.7999878
1553.542941	659.5999756
1554.056364	658.4000244
1554.569733	657.2000122
1555.083048	659.5999756
1555.596308	657.5999756
1556.109514	660.2000122
1556.622665	658.4000244
1557.135762	659.4000244
1557.648805	659.5999756
1558.161794	658.7999878
1558.674728	660.0
1559.187608	657.7999878
1559.700433	659.4000244
1560.213205	657.0
1560.725921	659.5999756
1561.238584	659.5999756
1561.751192	660.2000122
1562.263746	659.2000122
1562.776246	661.4000244
1563.288691	656.7999878
1563.801082	658.7999878
1564.313419	660.0
1564.825701	658.5999756
1565.337929	659.5999756
1565.850103	659.0
1566.362223	660.7999878
1566.874288	658.4000244
1567.386299	660.7999878
1567.898256	659.7999878
1568.410158	661.5999756
1568.922007	661.5999756
1569.4338	660.4000244
1569.94554	660.4000244
1570.457226	659.0
1570.968857	659.4000244
1571.480434	658.5999756
1571.991956	660.7999878
1572.503425	659.7999878
1573.014839	659.4000244
1573.526199	657.4000244
1574.037505	657.7999878
1574.548756	660.4000244
1575.059953	660.5999756
1575.571096	658.4000244
1576.082185	659.4000244
1576.59322	660.2000122
1577.1042	657.7999878
1577.615126	660.2000122
1578.125998	657.5999756
1578.636816	658.0
1579.14758	657.4000244
1579.658289	658.5999756
1580.168944	660.4000244
1580.679545	659.7999878
1581.190092	660.4000244
1581.700585	661.0
1582.211023	659.7999878
1582.721407	662.2000122
1583.231737	658.0
1583.742013	657.2000122
1584.252235	660.7999878
1584.762403	659.5999756
1585.272516	659.0
1585.782575	659.4000244
1586.292581	658.0
1586.802532	659.4000244
1587.312428	662.0
1587.822271	661.4000244
1588.33206	660.7999878
1588.841794	658.0
1589.351474	658.4000244
1589.8611	661.2000122
1590.370672	657.2000122
1590.88019	659.0
1591.389654	659.7999878
1591.899064	659.4000244
1592.408419	658.2000122
