1042.452273	687.2000122
1043.018714	689.0
1043.585098	684.7999878
1044.151424	689.7999878
1044.717692	690.5999756
1045.283903	686.7999878
1045.850056	683.4000244
1046.416151	684.0
1046.982188	686.7999878
1047.548167	685.2000122
1048.114089	686.7999878
1048.679953	680.2000122
1049.24576	683.7999878
1049.811509	681.4000244
1050.3772	684.5999756
1050.942833	684.0
1051.508408	683.0
1052.073926	680.5999756
1052.639387	684.4000244
1053.204789	683.0
1053.770134	680.2000122
1054.335421	682.4000244
1054.900651	683.2000122
1055.465823	681.0
1056.030937	680.0
1056.595993	682.7999878
1057.160992	682.5999756
1057.725934	681.7999878
1058.290817	682.0
1058.855643	679.7999878
1059.420411	679.0
1059.985122	684.2000122
1060.549775	675.5999756
1061.114371	678.0
1061.678908	677.7999878
1062.243389	679.0
1062.807811	680.0
1063.372176	679.7999878
1063.936483	679.5999756
1064.500733	677.2000122
1065.064925	680.0
1065.62906	679.5999756
1066.193137	680.7999878
1066.757156	676.7999878
1067.321118	676.0
1067.885022	682.5999756
1068.448869	678.4000244
1069.012658	683.2000122
1069.57639	679.2000122
1070.140063	688.5999756
1070.70368	679.7999878
1071.267239	676.0
1071.83074	679.4000244
1072.394184	678.4000244
1072.95757	678.2000122
1073.520899	679.7999878
1074.08417	683.2000122
1074.647383	682.0
1075.21054	678.5999756
1075.773638	681.2000122
1076.336679	684.4000244
1076.899663	681.2000122
1077.462589	678.5999756
1078.025457	678.0
1078.588268	680.0
1079.151022	680.7999878
1079.713718	676.2000122
1080.276356	680.0
1080.838937	681.0
1081.401461	677.5999756
1081.963927	679.5999756
1082.526336	681.5999756
1083.088687	679.5999756
1083.650981	679.2000122
1084.213217	679.2000122
1084.775396	680.7999878
1085.337517	680.7999878
1085.899581	676.2000122
1086.461587	679.2000122
1087.023536	680.5999756
1087.585428	684.2000122
1088.147262	680.5999756
1088.709039	682.0
1089.270758	679.5999756
1089.83242	676.2000122
1090.394024	682.2000122
1090.955571	680.2000122
1091.517061	681.2000122
1092.078493	678.0
1092.639868	678.7999878
1093.201185	678.0
1093.762445	681.2000122
1094.323648	678.7999878
1094.884793	680.4000244
1095.445881	678.4000244
1096.006911	682.2000122
1096.567884	679.4000244
1097.1288	686.0
1097.689659	680.7999878
1098.25046	678.4000244
1098.811203	679.5999756
1099.37189	676.0
1099.932518	677.0
1100.49309	680.5999756
1101.053604	679.7999878
1101.614061	682.7999878
1102.174461	681.2000122
1102.734803	680.0
1103.295088	681.2000122
1103.855316	682.7999878
1104.415486	679.7999878
1104.975599	680.2000122
1105.535655	680.0
1106.095653	678.7999878
1106.655594	684.4000244
1107.215478	685.2000122
1107.775305	684.5999756
1108.335074	686.2000122
1108.894786	687.7999878
1109.45444	690.4000244
1110.014038	686.2000122
1110.573578	688.5999756
1111.133061	687.5999756
1111.692486	692.2000122
1112.251854	689.2000122
1112.811165	693.7999878
1113.370419	693.7999878
1113.929616	691.2000122
1114.488755	691.4000244
1115.047837	691.0
1115.606862	694.5999756
1116.16583	689.4000244
1116.72474	690.2000122
1117.283593	688.0
1117.842389	682.0
1118.401128	684.5999756
1118.959809	688.0
1119.518433	681.7999878
1120.077	683.0
1120.63551	684.5999756
1121.193963	681.7999878
1121.752358	680.4000244
1122.310697	683.0
1122.868978	682.4000244
1123.427202	678.2000122
1123.985368	680.0
1124.543478	679.5999756
1125.10153	679.2000122
1125.659526	682.5999756
1126.217464	679.4000244
1126.775345	676.5999756
1127.333168	679.2000122
1127.890935	679.4000244
1128.448644	680.4000244
1129.006297	680.2000122
1129.563892	678.5999756
1130.12143	682.2000122
1130.678911	677.4000244
1131.236335	678.2000122
1131.793701	680.4000244
1132.351011	676.0
1132.908263	678.7999878
1133.465458	678.0
1134.022597	679.2000122
1134.579678	677.2000122
1135.136702	678.2000122
1135.693669	679.5999756
1136.250578	676.4000244
1136.807431	679.4000244
1137.364227	683.7999878
1137.920965	676.4000244
1138.477647	677.5999756
1139.034271	676.4000244
1139.590839	675.0
1140.147349	677.0
1140.703802	678.5999756
1141.260198	679.2000122
1141.816537	679.4000244
1142.37282	674.5999756
1142.929045	678.4000244
1143.485213	677.2000122
1144.041323	676.7999878
1144.597377	681.2000122
1145.153374	676.5999756
1145.709314	677.7999878
1146.265197	680.0
1146.821023	678.2000122
1147.376792	676.5999756
1147.932503	677.7999878
1148.488158	678.2000122
1149.043756	680.5999756
1149.599297	679.2000122
1150.154781	675.7999878
1150.710207	678.7999878
1151.265577	679.0
1151.82089	676.5999756
1152.376146	677.2000122
1152.931345	679.7999878
1153.486487	678.4000244
1154.041572	679.5999756
1154.5966	679.0
1155.151571	681.0
1155.706485	680.5999756
1156.261342	678.5999756
1156.816142	678.2000122
1157.370885	677.5999756
1157.925572	676.4000244
1158.480201	676.2000122
1159.034774	677.7999878
1159.589289	678.2000122
1160.143748	680.2000122
1160.698149	678.4000244
1161.252494	677.7999878
1161.806782	679.4000244
1162.361013	680.0
1162.915187	676.7999878
1163.469304	677.0
1164.023364	678.0
1164.577368	678.0
1165.131314	676.7999878
1165.685204	676.4000244
1166.239036	679.0
1166.792812	675.4000244
1167.346531	676.2000122
1167.900193	676.0
1168.453798	676.2000122
1169.007347	675.5999756
1169.560838	681.0
1170.114273	678.5999756
1170.66765	680.4000244
1171.220971	679.2000122
1171.774235	676.0
1172.327443	678.0
1172.880593	679.0
1173.433687	679.4000244
1173.986723	677.0
1174.539703	679.2000122
1175.092626	679.5999756
1175.645493	679.4000244
1176.198302	679.2000122
1176.751055	677.4000244
1177.303751	679.7999878
1177.85639	677.4000244
1178.408972	678.2000122
1178.961498	677.0
1179.513966	678.7999878
1180.066378	681.2000122
1180.618733	681.5999756
1181.171032	683.5999756
1181.723273	682.5999756
1182.275458	683.7999878
1182.827586	684.0
1183.379657	685.2000122
1183.931672	684.4000244
1184.48363	683.0
1185.035531	685.5999756
1185.587375	685.7999878
1186.139162	686.5999756
1186.690893	687.7999878
1187.242567	685.0
1187.794184	684.2000122
1188.345745	683.5999756
1188.897249	687.2000122
1189.448696	685.0
1190.000086	685.5999756
1190.55142	683.7999878
1191.102697	676.2000122
1191.653918	684.2000122
1192.205081	683.2000122
1192.756188	682.4000244
1193.307238	700.0
1193.858232	678.4000244
1194.409169	680.5999756
1194.960049	680.7999878
1195.510872	679.5999756
1196.061639	679.4000244
1196.612349	676.2000122
1197.163003	677.0
1197.713599	680.7999878
1198.264139	681.2000122
1198.814623	683.2000122
1199.36505	679.4000244
1199.91542	679.2000122
1200.465734	678.7999878
1201.01599	679.5999756
1201.566191	674.0
1202.116334	680.0
1202.666421	676.7999878
1203.216452	677.4000244
1203.766425	677.4000244
1204.316343	676.7999878
1204.866203	676.0
1205.416007	679.5999756
1205.965754	680.2000122
1206.515445	677.0
1207.065079	680.4000244
1207.614657	680.0
1208.164177	680.5999756
1208.713642	682.0
1209.26305	680.2000122
1209.812401	681.0
1210.361695	677.2000122
1210.910933	681.0
1211.460115	681.4000244
1212.00924	680.0
1212.558308	679.2000122
1213.10732	681.7999878
1213.656275	678.4000244
1214.205174	681.4000244
1214.754016	680.5999756
1215.302801	681.2000122
1215.85153	682.0
1216.400203	680.7999878
1216.948819	683.5999756
1217.497378	681.0
1218.045881	680.4000244
1219.691051	685.2000122
1220.239327	685.7999878
1220.787548	681.5999756
1221.335712	681.5999756
1221.883819	684.0
1222.43187	685.0
1222.979864	686.4000244
1223.527802	683.0
1224.075683	682.4000244
1224.623508	684.5999756
1225.171277	683.0
1225.718989	688.4000244
1226.266644	686.0
1226.814243	682.5999756
1227.361786	690.7999878
1227.909272	685.4000244
1228.456702	686.0
1229.004075	688.0
1229.551392	688.4000244
1230.098652	684.5999756
1230.645856	679.2000122
1231.193003	683.4000244
1231.740094	687.0
1232.287129	684.7999878
1232.834107	687.5999756
1233.381029	686.7999878
1233.927894	682.5999756
1234.474703	682.4000244
1235.021455	684.4000244
1235.568151	686.0
1236.114791	688.0
1236.661374	682.5999756
1237.207901	686.0
1237.754372	680.2000122
1238.300786	680.2000122
1238.847144	681.4000244
1239.393445	685.0
1239.93969	681.5999756
1240.485879	684.0
1241.032011	684.5999756
1241.578087	681.2000122
1242.124106	683.7999878
1242.67007	685.2000122
1243.215976	682.7999878
1243.761827	682.0
1244.307621	686.7999878
1244.853359	684.0
1245.39904	685.4000244
1245.944665	683.7999878
1246.490234	683.5999756
1247.035746	686.0
1247.581203	684.2000122
1248.126602	683.2000122
1248.671946	684.5999756
1249.217233	686.5999756
1249.762464	682.0
1250.307638	686.5999756
1250.852757	682.0
1251.397819	685.4000244
1251.942824	682.7999878
1252.487774	685.2000122
1253.032667	680.5999756
1253.577503	681.7999878
1254.122284	682.7999878
1254.667008	683.5999756
1255.211676	685.4000244
1255.756288	682.2000122
1256.300843	687.5999756
1256.845342	684.5999756
1257.389785	682.4000244
1257.934172	684.0
1258.478502	682.5999756
1259.022776	684.7999878
1259.566994	687.4000244
1260.111156	707.2000122
1260.655261	688.4000244
1261.199311	687.7999878
1261.743304	688.7999878
1262.28724	688.2000122
1262.831121	685.4000244
1263.374945	691.7999878
1263.918713	694.7999878
1264.462425	697.5999756
1265.006081	696.2000122
1265.54968	693.2000122
1266.093223	685.0
1266.636711	685.7999878
1267.180141	686.2000122
1267.723516	684.2000122
1268.266835	684.0
1268.810097	684.4000244
1269.353303	682.2000122
1269.896453	681.7999878
1270.439547	682.5999756
1270.982584	681.4000244
1271.525566	681.0
1272.068491	684.0
1272.61136	686.4000244
1273.154173	683.0
1273.69693	682.0
1274.239631	680.5999756
1274.782275	684.4000244
1275.324864	682.7999878
1275.867396	684.5999756
1276.409872	680.2000122
1276.952292	680.5999756
1277.494656	684.0
1278.036964	684.7999878
1278.579215	682.4000244
1279.121411	685.2000122
1279.66355	684.0
1280.205634	685.2000122
1280.747661	689.0
1281.289632	692.7999878
1281.831547	701.2000122
1282.373406	713.2000122
1282.915209	751.2000122
1283.456955	802.2000122
1283.998646	866.5999756
1284.540281	916.5999756
1285.081859	875.5999756
1285.623381	783.5999756
1286.164848	726.5999756
1286.706258	707.4000244
1287.247612	697.0
1287.788911	689.0
1288.330153	686.2000122
1288.871339	691.7999878
1289.412469	687.0
1289.953543	688.2000122
1290.494561	683.4000244
1291.035523	684.5999756
1291.576428	686.5999756
1292.117278	686.2000122
1292.658072	684.2000122
1293.19881	680.5999756
1293.739492	683.7999878
1294.280118	686.4000244
1294.820687	686.4000244
1295.361201	684.4000244
1295.901659	686.2000122
1296.442061	687.2000122
1296.982406	686.4000244
1297.522696	688.0
1298.06293	686.2000122
1298.603108	684.4000244
1299.143229	681.5999756
1299.683295	687.2000122
1300.223305	686.4000244
1300.763259	686.0
1301.303157	683.2000122
1301.842999	685.7999878
1302.382785	682.0
1302.922515	686.2000122
1303.462189	679.4000244
1304.001807	682.7999878
1304.541369	684.0
1305.080875	683.4000244
1305.620326	683.0
1306.15972	686.5999756
1306.699058	679.7999878
1307.238341	686.5999756
1307.777567	685.5999756
1308.316738	685.2000122
1308.855853	684.4000244
1309.394912	681.4000244
1309.933915	683.5999756
1310.472862	681.5999756
1311.011753	681.4000244
1311.550588	679.7999878
1312.089367	677.0
1312.62809	682.2000122
1313.166758	681.7999878
1313.70537	682.5999756
1314.243925	681.2000122
1314.782425	681.0
1315.320869	680.2000122
1315.859257	682.7999878
1316.397589	679.7999878
1316.935866	683.0
1317.474086	679.5999756
1318.012251	679.4000244
1318.55036	677.4000244
1319.088413	681.0
1319.62641	677.7999878
1320.164351	678.5999756
1320.702236	678.0
1321.240066	680.5999756
1321.777839	676.7999878
1322.315557	681.4000244
1322.853219	678.2000122
1323.390826	679.0
1323.928376	684.0
1324.465871	679.4000244
1325.003309	679.4000244
1325.540692	678.7999878
1326.07802	681.0
1326.615291	678.0
1327.152506	675.7999878
1327.689666	678.2000122
1328.22677	674.5999756
1328.763818	677.0
1329.300811	677.4000244
1329.837747	672.7999878
1330.374628	677.5999756
1330.911453	677.5999756
1331.448222	675.0
1331.984936	677.2000122
1332.521594	676.4000244
1333.058196	679.0
1333.594742	676.7999878
1334.131232	676.4000244
1334.667667	677.4000244
1335.204046	678.7999878
1335.740369	679.7999878
1336.276637	677.2000122
1336.812848	676.0
1337.349004	679.4000244
1337.885105	676.0
1338.421149	677.7999878
1338.957138	679.2000122
1339.493071	675.7999878
1340.028949	673.7999878
1340.56477	678.0
1341.100536	672.0
1341.636246	678.4000244
1342.171901	674.7999878
1342.7075	677.7999878
1343.243043	679.0
1343.77853	677.7999878
1344.313962	678.2000122
1344.849338	677.2000122
1345.384659	679.2000122
1345.919923	677.2000122
1346.455133	675.7999878
1346.990286	677.5999756
1347.525384	677.2000122
1348.060426	680.7999878
1348.595412	675.2000122
1349.130343	680.4000244
1349.665218	675.2000122
1350.200037	678.4000244
1350.734801	673.5999756
1351.269509	678.2000122
1351.804162	678.0
1352.338758	681.0
1352.8733	676.0
1353.407785	678.2000122
1353.942215	677.0
1354.476589	677.5999756
1355.010908	677.2000122
1355.545171	677.2000122
1356.079379	675.4000244
1356.61353	678.0
1357.147627	676.0
1357.681667	679.5999756
1358.215652	675.4000244
1358.749582	678.0
1359.283456	677.0
1359.817274	677.2000122
1360.351037	678.0
1360.884744	674.7999878
1361.418395	675.7999878
1361.951991	675.5999756
1362.485531	679.4000244
1363.019016	683.0
1363.552445	680.5999756
1364.085819	679.0
1364.619137	677.7999878
1365.1524	678.5999756
1365.685607	678.4000244
1366.218758	680.5999756
1366.751854	677.2000122
1367.284894	676.0
1367.817879	678.0
1368.350808	677.5999756
1368.883682	680.0
1369.4165	680.7999878
1369.949263	684.7999878
1370.48197	690.2000122
1371.014622	683.7999878
1371.547218	678.2000122
1372.079758	681.7999878
1372.612244	680.0
1373.144673	678.2000122
1373.677047	679.5999756
1374.209366	682.4000244
1374.741629	678.4000244
1375.273836	678.7999878
1375.805989	683.5999756
1376.338085	681.5999756
1376.870126	683.5999756
1377.402112	679.7999878
1377.934042	681.2000122
1378.465917	678.5999756
1378.997736	681.5999756
1379.5295	680.2000122
1380.061208	682.0
1380.592861	680.4000244
1381.124459	684.4000244
1381.656	685.2000122
1382.187487	687.2000122
1382.718918	684.4000244
1383.250294	684.7999878
1383.781614	684.4000244
1384.312879	696.0
1384.844088	690.0
1385.375242	700.5999756
1385.90634	702.5999756
1386.437383	723.2000122
1386.968371	770.7999878
1387.499303	873.0
1388.03018	1093.599976
1388.561001	1150.800049
1389.091767	923.0
1389.622478	762.0
1390.153133	717.4000244
1390.683733	699.7999878
1391.214277	693.7999878
1391.744766	683.4000244
1392.2752	685.0
1392.805578	680.0
1393.335901	685.2000122
1393.866168	686.7999878
1394.396381	682.5999756
1394.926537	679.5999756
1395.456639	681.0
1395.986685	680.2000122
1396.516675	680.2000122
1397.046611	677.7999878
1397.576491	678.5999756
1398.106315	679.2000122
1398.636084	676.7999878
1399.165798	682.4000244
1399.695457	678.0
1400.22506	680.7999878
1400.754608	681.7999878
1401.284101	676.0
1401.813538	675.7999878
1402.34292	682.4000244
1402.872247	678.7999878
1403.401518	677.4000244
1403.930734	680.4000244
1404.459895	681.2000122
1404.989	680.4000244
1405.51805	679.2000122
1406.047045	681.2000122
1406.575984	681.4000244
1407.104869	680.7999878
1407.633697	684.5999756
1408.162471	690.5999756
1408.691189	691.7999878
1409.219852	693.5999756
1409.74846	702.7999878
1410.277013	702.0
1410.80551	691.0
1411.333952	686.0
1411.862339	683.2000122
1412.39067	680.5999756
1412.918946	677.7999878
1413.447167	679.2000122
1413.975333	678.4000244
1414.503444	675.4000244
1415.031499	678.0
1415.559499	692.7999878
1416.087444	678.7999878
1416.615333	676.2000122
1417.143167	678.0
1417.670947	679.5999756
1418.19867	677.2000122
1418.726339	677.2000122
1419.253952	677.0
1419.781511	675.7999878
1420.309014	678.0
1420.836461	674.2000122
1421.363854	676.2000122
1421.891191	675.0
1422.418474	677.2000122
1422.945701	674.7999878
1423.472872	676.7999878
1423.999989	677.5999756
1424.52705	676.4000244
1425.054057	677.2000122
1425.581008	676.5999756
1426.107904	677.5999756
1426.634745	676.2000122
1427.16153	677.2000122
1427.688261	674.4000244
1428.214936	677.0
1428.741556	677.0
1429.268121	676.2000122
1429.794631	671.7999878
1430.321085	678.0
1430.847485	680.4000244
1431.373829	678.4000244
1431.900118	676.7999878
1432.426353	676.4000244
1432.952532	676.7999878
1433.478655	678.4000244
1434.004724	676.7999878
1434.530738	679.7999878
1435.056696	678.2000122
1435.5826	675.7999878
1436.108448	676.0
1436.634241	680.4000244
1437.159979	680.5999756
1437.685662	681.0
1438.21129	680.2000122
1438.736863	680.0
1439.262381	676.0
1439.787843	681.2000122
1440.313251	680.2000122
1440.838603	677.4000244
1441.3639	675.7999878
1441.889143	677.2000122
1442.41433	679.2000122
1442.939462	680.4000244
1443.464539	677.5999756
1443.989561	681.5999756
1444.514528	679.4000244
1445.03944	677.7999878
1445.564297	678.0
1446.089099	678.0
1446.613846	681.0
1447.138537	679.2000122
1447.663174	682.7999878
1448.187756	679.4000244
1448.712282	679.5999756
1449.236754	678.4000244
1449.761171	681.2000122
1450.285532	680.7999878
1450.809839	678.0
1451.33409	677.5999756
1451.858287	677.0
1452.382428	676.4000244
1452.906515	679.0
1453.430546	678.7999878
1453.954523	679.0
1454.478444	678.4000244
1455.002311	682.5999756
1455.526123	679.2000122
1456.049879	678.5999756
1456.573581	677.5999756
1457.097227	677.7999878
1457.620819	678.7999878
1458.144356	682.4000244
1458.667837	681.7999878
1459.191264	678.0
1459.714636	680.4000244
1460.237952	680.4000244
1460.761214	682.0
1461.284421	677.5999756
1461.807573	678.5999756
1462.33067	679.2000122
1462.853712	695.7999878
1463.376699	708.7999878
1463.899632	684.5999756
1464.422509	681.5999756
1464.945331	681.2000122
1465.468099	682.5999756
1465.990811	679.7999878
1466.513469	676.2000122
1467.036071	679.0
1467.558619	678.2000122
1468.081112	679.5999756
1468.60355	679.5999756
1469.125933	676.5999756
1469.648261	677.7999878
1470.170534	680.0
1470.692752	682.4000244
1471.214916	681.4000244
1471.737024	675.5999756
1472.259078	678.4000244
1472.781077	680.4000244
1473.303021	674.4000244
1473.82491	676.5999756
1474.346744	677.7999878
1474.868523	674.7999878
1475.390248	677.5999756
1475.911917	676.0
1476.433532	677.4000244
1476.955092	677.4000244
1477.476597	673.5999756
1477.998047	677.5999756
1478.519442	673.4000244
1479.040783	674.4000244
1479.562068	674.2000122
1480.083299	676.0
1480.604475	672.7999878
1481.125596	676.4000244
1481.646663	673.7999878
1482.167674	675.5999756
1482.688631	673.4000244
1483.209533	675.2000122
1483.73038	673.5999756
1484.251172	674.4000244
1484.771909	675.7999878
1485.292592	675.0
1485.81322	673.5999756
1486.333793	673.0
1486.854311	675.4000244
1487.374775	673.4000244
1487.895183	673.5999756
1488.415537	672.4000244
1488.935836	672.7999878
1489.456081	675.2000122
1489.97627	672.5999756
1490.496405	670.5999756
1491.016485	672.5999756
1491.536511	671.2000122
1492.056481	671.2000122
1492.576397	675.2000122
1493.096258	670.2000122
1493.616064	671.7999878
1494.135816	673.7999878
1494.655513	671.7999878
1495.175155	670.5999756
1495.694742	672.7999878
1496.214274	673.5999756
1496.733752	672.7999878
1497.253175	670.5999756
1497.772544	673.5999756
1498.291858	670.7999878
1498.811116	672.7999878
1499.330321	672.5999756
1499.84947	684.2000122
1500.368565	672.0
1500.887605	674.5999756
1501.406591	671.4000244
1501.925521	675.2000122
1502.444397	673.7999878
1502.963219	672.0
1503.481985	675.2000122
1504.000697	671.0
1504.519355	672.5999756
1505.037957	672.4000244
1505.556505	671.5999756
1506.074999	670.5999756
1506.593437	672.5999756
1507.111821	671.5999756
1507.63015	670.5999756
1508.148425	672.7999878
1508.666645	672.4000244
1509.18481	670.7999878
1509.702921	670.4000244
1510.220977	672.0
1510.738979	680.5999756
1511.256925	672.5999756
1511.774817	671.4000244
1512.292655	672.0
1512.810438	673.5999756
1513.328166	675.2000122
1513.84584	673.0
1514.363459	673.5999756
1514.881023	673.2000122
1515.398533	674.2000122
1515.915988	673.0
1516.433389	673.5999756
1516.950734	671.2000122
1517.468026	671.7999878
1517.985263	672.0
1518.502445	671.4000244
1519.019572	671.2000122
1519.536645	671.7999878
1520.053664	671.2000122
1520.570628	670.7999878
1521.087537	671.0
1521.604392	672.4000244
1522.121192	672.4000244
1522.637937	672.2000122
1523.154628	671.4000244
1523.671265	671.2000122
1524.187847	672.5999756
1524.704374	673.5999756
1525.220847	670.4000244
1525.737265	680.7999878
1526.253629	692.5999756
1526.769938	683.5999756
1527.286192	674.2000122
1527.802392	672.0
1528.318538	669.5999756
1528.834629	669.4000244
1529.350666	671.5999756
1529.866648	670.4000244
1530.382575	671.2000122
1530.898448	670.5999756
1531.414266	672.7999878
1531.93003	670.5999756
1532.44574	672.0
1532.961395	673.4000244
1533.476995	672.4000244
1533.992541	673.2000122
1534.508033	673.0
1535.02347	672.5999756
1535.538852	669.5999756
1536.05418	670.4000244
1536.569454	671.5999756
1537.084673	673.5999756
1537.599837	672.0
1538.114947	672.2000122
1538.630003	670.4000244
1539.145004	671.4000244
1539.659951	673.5999756
1540.174843	670.5999756
1540.689681	670.7999878
1541.204465	674.4000244
1541.719194	672.2000122
1542.233868	671.2000122
1542.748488	670.2000122
1543.263054	672.2000122
1543.777565	670.5999756
1544.292022	672.4000244
1544.806424	671.0
1545.320772	671.4000244
1545.835066	673.0
1546.349305	672.5999756
1546.863489	672.0
1547.37762	673.0
1547.891696	671.7999878
1548.405717	675.5999756
1548.919684	674.2000122
1549.433597	670.7999878
1549.947455	672.2000122
1550.461259	671.7999878
1550.975009	674.0
1551.488704	672.0
1552.002345	670.0
1552.515931	673.5999756
1553.029463	670.5999756
1553.542941	673.4000244
1554.056364	677.0
1554.569733	671.5999756
1555.083048	672.0
1555.596308	670.5999756
1556.109514	671.0
1556.622665	672.2000122
1557.135762	672.5999756
1557.648805	672.7999878
1558.161794	670.7999878
1558.674728	673.0
1559.187608	671.2000122
1559.700433	673.5999756
1560.213205	673.4000244
1560.725921	676.4000244
1561.238584	673.0
1561.751192	673.2000122
1562.263746	673.7999878
1562.776246	673.7999878
1563.288691	674.5999756
1563.801082	673.7999878
1564.313419	676.0
1564.825701	675.0
1565.337929	674.0
1565.850103	671.4000244
1566.362223	677.0
1566.874288	675.5999756
1567.386299	675.0
1567.898256	679.4000244
1568.410158	676.4000244
1568.922007	673.4000244
1569.4338	675.0
1569.94554	674.5999756
1570.457226	673.7999878
1570.968857	671.7999878
1571.480434	674.0
1571.991956	675.5999756
1572.503425	675.4000244
1573.014839	669.5999756
1573.526199	673.4000244
1574.037505	671.4000244
1574.548756	676.0
1575.059953	674.5999756
1575.571096	674.0
1576.082185	674.5999756
1576.59322	672.4000244
1577.1042	671.7999878
1577.615126	675.5999756
1578.125998	673.2000122
1578.636816	673.4000244
1579.14758	669.7999878
1579.658289	677.7999878
1580.168944	673.7999878
1580.679545	674.5999756
1581.190092	674.5999756
1581.700585	675.4000244
1582.211023	673.0
1582.721407	676.4000244
1583.231737	673.7999878
1583.742013	675.2000122
1584.252235	673.7999878
1584.762403	675.2000122
1585.272516	676.7999878
1585.782575	676.0
1586.292581	673.2000122
1586.802532	677.0
1587.312428	674.7999878
1587.822271	672.4000244
1588.33206	672.7999878
1588.841794	673.5999756
1589.351474	671.4000244
1589.8611	674.4000244
1590.370672	674.7999878
1590.88019	672.7999878
1591.389654	674.4000244
1591.899064	674.7999878
1592.408419	673.5999756
