1042.452273	719.4000244
1043.018714	721.5999756
1043.585098	719.5999756
1044.151424	722.7999878
1044.717692	713.7999878
1045.283903	718.5999756
1045.850056	718.7999878
1046.416151	717.2000122
1046.982188	718.4000244
1047.548167	721.7999878
1048.114089	717.5999756
1048.679953	713.0
1049.24576	717.2000122
1049.811509	716.2000122
1050.3772	714.7999878
1050.942833	711.2000122
1051.508408	713.7999878
1052.073926	715.7999878
1052.639387	716.7999878
1053.204789	719.0
1053.770134	714.5999756
1054.335421	714.2000122
1054.900651	710.5999756
1055.465823	714.7999878
1056.030937	715.5999756
1056.595993	708.4000244
1057.160992	715.7999878
1057.725934	709.5999756
1058.290817	715.0
1058.855643	711.7999878
1059.420411	707.7999878
1059.985122	710.7999878
1060.549775	709.5999756
1061.114371	713.2000122
1061.678908	709.7999878
1062.243389	709.2000122
1062.807811	708.7999878
1063.372176	713.0
1063.936483	711.0
1064.500733	711.4000244
1065.064925	708.0
1065.62906	712.4000244
1066.193137	711.2000122
1066.757156	710.4000244
1067.321118	712.2000122
1067.885022	712.0
1068.448869	709.0
1069.012658	705.7999878
1069.57639	710.5999756
1070.140063	718.2000122
1070.70368	714.2000122
1071.267239	711.0
1071.83074	708.7999878
1072.394184	710.4000244
1072.95757	709.7999878
1073.520899	713.5999756
1074.08417	708.0
1074.647383	709.4000244
1075.21054	713.2000122
1075.773638	711.2000122
1076.336679	709.4000244
1076.899663	709.7999878
1077.462589	710.2000122
1078.025457	707.4000244
1078.588268	711.4000244
1079.151022	710.2000122
1079.713718	706.2000122
1080.276356	710.2000122
1080.838937	711.2000122
1081.401461	713.7999878
1081.963927	710.4000244
1082.526336	715.2000122
1083.088687	714.5999756
1083.650981	715.5999756
1084.213217	711.2000122
1084.775396	714.4000244
1085.337517	710.0
1085.899581	715.2000122
1086.461587	708.4000244
1087.023536	714.4000244
1087.585428	715.0
1088.147262	713.5999756
1088.709039	716.2000122
1089.270758	711.0
1089.83242	713.0
1090.394024	715.0
1090.955571	713.5999756
1091.517061	715.0
1092.078493	710.7999878
1092.639868	714.2000122
1093.201185	714.4000244
1093.762445	710.5999756
1094.323648	709.7999878
1094.884793	713.5999756
1095.445881	715.5999756
1096.006911	711.4000244
1096.567884	713.5999756
1097.1288	718.2000122
1097.689659	713.4000244
1098.25046	712.5999756
1098.811203	713.5999756
1099.37189	714.7999878
1099.932518	712.2000122
1100.49309	714.7999878
1101.053604	714.5999756
1101.614061	712.7999878
1102.174461	716.4000244
1102.734803	710.5999756
1103.295088	715.5999756
1103.855316	712.5999756
1104.415486	713.0
1104.975599	713.7999878
1105.535655	717.4000244
1106.095653	713.2000122
1106.655594	718.5999756
1107.215478	717.7999878
1107.775305	718.0
1108.335074	721.4000244
1108.894786	720.4000244
1109.45444	718.7999878
1110.014038	723.2000122
1110.573578	726.7999878
1111.133061	727.0
1111.692486	730.7999878
1112.251854	731.4000244
1112.811165	733.2000122
1113.370419	728.2000122
1113.929616	727.0
1114.488755	731.4000244
1115.047837	728.4000244
1115.606862	730.4000244
1116.16583	727.5999756
1116.72474	725.4000244
1117.283593	723.4000244
1117.842389	719.5999756
1118.401128	719.4000244
1118.959809	719.7999878
1119.518433	719.2000122
1120.077	719.5999756
1120.63551	715.7999878
1121.193963	715.5999756
1121.752358	717.4000244
1122.310697	712.7999878
1122.868978	718.0
1123.427202	709.5999756
1123.985368	715.2000122
1124.543478	709.5999756
1125.10153	708.7999878
1125.659526	710.5999756
1126.217464	711.2000122
1126.775345	709.0
1127.333168	715.2000122
1127.890935	712.4000244
1128.448644	712.0
1129.006297	709.5999756
1129.563892	708.2000122
1130.12143	711.5999756
1130.678911	709.5999756
1131.236335	710.2000122
1131.793701	706.4000244
1132.351011	714.7999878
1132.908263	711.2000122
1133.465458	712.5999756
1134.022597	711.7999878
1134.579678	711.7999878
1135.136702	708.5999756
1135.693669	707.7999878
1136.250578	713.0
1136.807431	712.5999756
1137.364227	710.4000244
1137.920965	711.0
1138.477647	710.2000122
1139.034271	711.2000122
1139.590839	704.7999878
1140.147349	708.2000122
1140.703802	708.0
1141.260198	708.7999878
1141.816537	708.4000244
1142.37282	710.2000122
1142.929045	708.4000244
1143.485213	710.4000244
1144.041323	706.0
1144.597377	710.2000122
1145.153374	706.0
1145.709314	709.4000244
1146.265197	707.4000244
1146.821023	710.0
1147.376792	712.2000122
1147.932503	707.5999756
1148.488158	712.0
1149.043756	709.2000122
1149.599297	708.0
1150.154781	712.2000122
1150.710207	713.2000122
1151.265577	708.5999756
1151.82089	708.4000244
1152.376146	708.2000122
1152.931345	711.2000122
1153.486487	711.2000122
1154.041572	708.7999878
1154.5966	708.0
1155.151571	709.4000244
1155.706485	711.5999756
1156.261342	712.0
1156.816142	715.0
1157.370885	708.4000244
1157.925572	710.4000244
1158.480201	710.7999878
1159.034774	710.4000244
1159.589289	706.4000244
1160.143748	711.5999756
1160.698149	711.0
1161.252494	710.0
1161.806782	712.0
1162.361013	708.2000122
1162.915187	707.4000244
1163.469304	709.4000244
1164.023364	709.0
1164.577368	709.0
1165.131314	708.2000122
1165.685204	706.7999878
1166.239036	709.5999756
1166.792812	711.0
1167.346531	710.7999878
1167.900193	707.2000122
1168.453798	711.2000122
1169.007347	704.0
1169.560838	707.0
1170.114273	708.7999878
1170.66765	711.2000122
1171.220971	706.2000122
1171.774235	715.0
1172.327443	706.2000122
1172.880593	711.4000244
1173.433687	712.5999756
1173.986723	710.0
1174.539703	711.4000244
1175.092626	706.5999756
1175.645493	711.2000122
1176.198302	714.0
1176.751055	714.0
1177.303751	711.2000122
1177.85639	710.7999878
1178.408972	714.4000244
1178.961498	718.0
1179.513966	716.4000244
1180.066378	709.7999878
1180.618733	713.5999756
1181.171032	719.4000244
1181.723273	717.7999878
1182.275458	718.4000244
1182.827586	720.7999878
1183.379657	721.2000122
1183.931672	720.7999878
1184.48363	722.7999878
1185.035531	725.5999756
1185.587375	719.5999756
1186.139162	719.5999756
1186.690893	721.2000122
1187.242567	717.7999878
1187.794184	723.4000244
1188.345745	719.5999756
1188.897249	720.4000244
1189.448696	722.5999756
1190.000086	720.4000244
1190.55142	718.7999878
1191.102697	719.5999756
1191.653918	718.0
1192.205081	713.0
1192.756188	717.0
1193.307238	735.0
1193.858232	709.7999878
1194.409169	714.5999756
1194.960049	712.7999878
1195.510872	713.0
1196.061639	712.5999756
1196.612349	711.4000244
1197.163003	711.5999756
1197.713599	703.0
1198.264139	710.0
1198.814623	707.5999756
1199.36505	709.4000244
1199.91542	708.5999756
1200.465734	709.2000122
1201.01599	709.5999756
1201.566191	707.4000244
1202.116334	709.5999756
1202.666421	706.2000122
1203.216452	706.2000122
1203.766425	705.2000122
1204.316343	713.2000122
1204.866203	706.0
1205.416007	710.0
1205.965754	708.4000244
1206.515445	711.0
1207.065079	708.4000244
1207.614657	708.0
1208.164177	711.5999756
1208.713642	715.0
1209.26305	712.5999756
1209.812401	709.5999756
1210.361695	712.0
1210.910933	712.0
1211.460115	712.0
1212.00924	713.2000122
1212.558308	712.0
1213.10732	711.0
1213.656275	715.0
1214.205174	710.7999878
1214.754016	715.4000244
1215.302801	716.2000122
1215.85153	712.7999878
1216.400203	711.7999878
1216.948819	711.4000244
1217.497378	712.5999756
1218.045881	712.7999878
1218.594327	714.0
1219.142717	714.0
1219.691051	714.0
1220.239327	715.0
1220.787548	712.5999756
1221.335712	713.5999756
1221.883819	716.5999756
1222.43187	717.4000244
1222.979864	717.0
1223.527802	719.4000244
1224.075683	720.0
1224.623508	720.7999878
1225.171277	716.5999756
1225.718989	719.5999756
1226.266644	716.5999756
1226.814243	717.2000122
1227.361786	722.7999878
1227.909272	717.4000244
1228.456702	715.7999878
1229.004075	718.7999878
1229.551392	717.4000244
1230.098652	722.2000122
1230.645856	718.4000244
1231.193003	722.0
1231.740094	723.7999878
1232.287129	717.7999878
1232.834107	717.2000122
1233.381029	722.0
1233.927894	714.7999878
1234.474703	721.4000244
1235.021455	719.2000122
1235.568151	715.5999756
1236.114791	721.5999756
1236.661374	716.5999756
1237.207901	720.4000244
1237.754372	718.7999878
1238.300786	716.7999878
1238.847144	716.2000122
1239.393445	717.2000122
1239.93969	715.7999878
1240.485879	715.0
1241.032011	720.5999756
1241.578087	720.4000244
1242.124106	713.4000244
1242.67007	717.4000244
1243.215976	712.4000244
1243.761827	719.2000122
1244.307621	716.5999756
1244.853359	719.4000244
1245.39904	718.7999878
1245.944665	720.7999878
1246.490234	723.0
1247.035746	717.0
1247.581203	720.2000122
1248.126602	721.7999878
1248.671946	715.5999756
1249.217233	717.7999878
1249.762464	720.4000244
1250.307638	718.7999878
1250.852757	722.2000122
1251.397819	722.2000122
1251.942824	715.2000122
1252.487774	721.5999756
1253.032667	721.0
1253.577503	719.2000122
1254.122284	723.4000244
1254.667008	722.0
1255.211676	717.0
1255.756288	715.7999878
1256.300843	722.0
1256.845342	721.7999878
1257.389785	717.7999878
1257.934172	712.7999878
1258.478502	721.7999878
1259.022776	713.7999878
1259.566994	715.7999878
1260.111156	739.5999756
1260.655261	718.2000122
1261.199311	719.2000122
1261.743304	725.0
1262.28724	719.2000122
1262.831121	720.5999756
1263.374945	722.0
1263.918713	725.2000122
1264.462425	725.4000244
1265.006081	723.0
1265.54968	718.0
1266.093223	719.0
1266.636711	715.5999756
1267.180141	713.7999878
1267.723516	714.4000244
1268.266835	714.4000244
1268.810097	715.2000122
1269.353303	718.2000122
1269.896453	716.4000244
1270.439547	716.0
1270.982584	715.7999878
1271.525566	712.0
1272.068491	717.4000244
1272.61136	718.7999878
1273.154173	717.0
1273.69693	710.4000244
1274.239631	710.7999878
1274.782275	716.4000244
1275.324864	716.7999878
1275.867396	713.4000244
1276.409872	718.7999878
1276.952292	710.7999878
1277.494656	720.5999756
1278.036964	721.0
1278.579215	717.0
1279.121411	718.7999878
1279.66355	721.0
1280.205634	718.5999756
1280.747661	723.2000122
1281.289632	725.4000244
1281.831547	735.5999756
1282.373406	751.7999878
1282.915209	792.0
1283.456955	843.5999756
1283.998646	884.7999878
1284.540281	889.4000244
1285.081859	844.5999756
1285.623381	776.5999756
1286.164848	745.4000244
1286.706258	730.2000122
1287.247612	726.5999756
1287.788911	724.7999878
1288.330153	723.2000122
1288.871339	720.7999878
1289.412469	718.0
1289.953543	724.2000122
1290.494561	712.4000244
1291.035523	719.5999756
1291.576428	718.2000122
1292.117278	723.4000244
1292.658072	718.4000244
1293.19881	723.7999878
1293.739492	718.5999756
1294.280118	720.2000122
1294.820687	723.5999756
1295.361201	721.4000244
1295.901659	723.5999756
1296.442061	722.2000122
1296.982406	719.0
1297.522696	712.2000122
1298.06293	721.5999756
1298.603108	721.0
1299.143229	719.7999878
1299.683295	715.2000122
1300.223305	718.4000244
1300.763259	718.0
1301.303157	717.2000122
1301.842999	719.4000244
1302.382785	721.2000122
1302.922515	719.0
1303.462189	719.4000244
1304.001807	711.7999878
1304.541369	720.4000244
1305.080875	715.5999756
1305.620326	711.2000122
1306.15972	717.2000122
1306.699058	712.4000244
1307.238341	723.4000244
1307.777567	716.7999878
1308.316738	715.2000122
1308.855853	717.2000122
1309.394912	715.0
1309.933915	717.2000122
1310.472862	713.2000122
1311.011753	715.2000122
1311.550588	712.0
1312.089367	703.2000122
1312.62809	717.7999878
1313.166758	716.2000122
1313.70537	715.0
1314.243925	712.7999878
1314.782425	711.7999878
1315.320869	715.0
1315.859257	713.0
1316.397589	710.5999756
1316.935866	716.7999878
1317.474086	714.4000244
1318.012251	714.2000122
1318.55036	708.4000244
1319.088413	710.0
1319.62641	707.5999756
1320.164351	707.4000244
1320.702236	711.2000122
1321.240066	713.5999756
1321.777839	713.7999878
1322.315557	710.2000122
1322.853219	710.5999756
1323.390826	710.2000122
1323.928376	712.4000244
1324.465871	711.7999878
1325.003309	704.0
1325.540692	708.0
1326.07802	711.4000244
1326.615291	710.5999756
1327.152506	712.0
1327.689666	711.7999878
1328.22677	708.0
1328.763818	706.7999878
1329.300811	706.7999878
1329.837747	712.0
1330.374628	707.0
1330.911453	708.0
1331.448222	709.2000122
1331.984936	709.4000244
1332.521594	712.2000122
1333.058196	712.4000244
1333.594742	707.0
1334.131232	707.5999756
1334.667667	711.0
1335.204046	710.0
1335.740369	709.7999878
1336.276637	712.4000244
1336.812848	711.2000122
1337.349004	707.2000122
1337.885105	709.5999756
1338.421149	710.2000122
1338.957138	710.2000122
1339.493071	706.0
1340.028949	709.5999756
1340.56477	710.5999756
1341.100536	712.7999878
1341.636246	711.7999878
1342.171901	711.7999878
1342.7075	707.7999878
1343.243043	708.2000122
1343.77853	709.5999756
1344.313962	711.2000122
1344.849338	711.4000244
1345.384659	711.4000244
1345.919923	710.7999878
1346.455133	708.7999878
1346.990286	712.2000122
1347.525384	715.4000244
1348.060426	712.0
1348.595412	713.5999756
1349.130343	708.7999878
1349.665218	709.5999756
1350.200037	709.5999756
1350.734801	708.5999756
1351.269509	712.7999878
1351.804162	710.7999878
1352.338758	707.7999878
1352.8733	709.7999878
1353.407785	713.2000122
1353.942215	708.4000244
1354.476589	708.7999878
1355.010908	713.5999756
1355.545171	712.4000244
1356.079379	712.7999878
1356.61353	710.0
1357.147627	712.5999756
1357.681667	706.2000122
1358.215652	707.2000122
1358.749582	708.4000244
1359.283456	708.2000122
1359.817274	713.2000122
1360.351037	710.2000122
1360.884744	711.4000244
1361.418395	707.5999756
1361.951991	714.2000122
1362.485531	708.0
1363.019016	712.7999878
1363.552445	715.4000244
1364.085819	711.7999878
1364.619137	711.7999878
1365.1524	712.2000122
1365.685607	714.7999878
1366.218758	713.7999878
1366.751854	710.7999878
1367.284894	709.2000122
1367.817879	709.5999756
1368.350808	711.7999878
1368.883682	710.5999756
1369.4165	713.5999756
1369.949263	718.0
1370.48197	719.5999756
1371.014622	713.4000244
1371.547218	710.0
1372.079758	714.0
1372.612244	710.7999878
1373.144673	713.4000244
1373.677047	710.5999756
1374.209366	711.5999756
1374.741629	712.0
1375.273836	711.7999878
1375.805989	713.7999878
1376.338085	714.7999878
1376.870126	710.5999756
1377.402112	708.7999878
1377.934042	710.4000244
1378.465917	710.2000122
1378.997736	710.0
1379.5295	711.7999878
1380.061208	710.7999878
1380.592861	716.4000244
1381.124459	716.2000122
1381.656	714.2000122
1382.187487	712.7999878
1382.718918	716.0
1383.250294	718.5999756
1383.781614	720.2000122
1384.312879	721.7999878
1384.844088	725.2000122
1385.375242	730.0
1385.90634	740.4000244
1386.437383	766.0
1386.968371	812.0
1387.499303	933.5999756
1388.03018	1089.199951
1388.561001	1062.400024
1389.091767	882.7999878
1389.622478	774.4000244
1390.153133	743.7999878
1390.683733	731.4000244
1391.214277	720.7999878
1391.744766	714.2000122
1392.2752	721.2000122
1392.805578	718.0
1393.335901	717.0
1393.866168	717.0
1394.396381	712.7999878
1394.926537	714.7999878
1395.456639	716.5999756
1395.986685	710.7999878
1396.516675	709.5999756
1397.046611	713.2000122
1397.576491	707.2000122
1398.106315	714.2000122
1398.636084	710.5999756
1399.165798	710.7999878
1399.695457	713.0
1400.22506	712.2000122
1400.754608	709.4000244
1401.284101	716.0
1401.813538	711.5999756
1402.34292	713.5999756
1402.872247	711.5999756
1403.401518	710.5999756
1403.930734	708.7999878
1404.459895	713.5999756
1404.989	711.0
1405.51805	712.7999878
1406.047045	714.5999756
1406.575984	716.5999756
1407.104869	713.5999756
1407.633697	714.0
1408.162471	720.0
1408.691189	724.0
1409.219852	732.5999756
1409.74846	734.7999878
1410.277013	731.7999878
1410.80551	722.0
1411.333952	723.5999756
1411.862339	713.0
1412.39067	714.0
1412.918946	712.4000244
1413.447167	712.4000244
1413.975333	705.2000122
1414.503444	711.7999878
1415.031499	711.4000244
1415.559499	726.2000122
1416.087444	715.2000122
1416.615333	712.0
1417.143167	711.2000122
1417.670947	712.2000122
1418.19867	711.7999878
1418.726339	712.0
1419.253952	708.7999878
1419.781511	709.5999756
1420.309014	709.2000122
1420.836461	708.2000122
1421.363854	703.7999878
1421.891191	712.0
1422.418474	709.7999878
1422.945701	710.0
1423.472872	707.5999756
1423.999989	713.5999756
1424.52705	710.7999878
1425.054057	707.7999878
1425.581008	710.2000122
1426.107904	711.4000244
1426.634745	705.4000244
1427.16153	711.0
1427.688261	708.7999878
1428.214936	708.7999878
1428.741556	708.0
1429.268121	709.2000122
1429.794631	710.5999756
1430.321085	709.2000122
1430.847485	714.0
1431.373829	713.4000244
1431.900118	709.5999756
1432.426353	708.0
1432.952532	705.0
1433.478655	710.4000244
1434.004724	712.5999756
1434.530738	709.5999756
1435.056696	711.0
1435.5826	712.5999756
1436.108448	712.5999756
1436.634241	713.0
1437.159979	710.2000122
1437.685662	709.4000244
1438.21129	710.5999756
1438.736863	712.5999756
1439.262381	717.0
1439.787843	713.2000122
1440.313251	715.7999878
1440.838603	707.5999756
1441.3639	712.0
1441.889143	715.5999756
1442.41433	715.0
1442.939462	715.5999756
1443.464539	708.2000122
1443.989561	712.0
1444.514528	714.0
1445.03944	714.7999878
1445.564297	716.5999756
1446.089099	716.4000244
1446.613846	713.5999756
1447.138537	716.0
1447.663174	711.2000122
1448.187756	720.2000122
1448.712282	715.0
1449.236754	710.5999756
1449.761171	709.5999756
1450.285532	711.2000122
1450.809839	717.4000244
1451.33409	714.0
1451.858287	715.0
1452.382428	714.7999878
1452.906515	713.5999756
1453.430546	713.0
1453.954523	715.4000244
1454.478444	716.2000122
1455.002311	713.7999878
1455.526123	712.2000122
1456.049879	711.4000244
1456.573581	715.7999878
1457.097227	715.5999756
1457.620819	715.4000244
1458.144356	717.2000122
1458.667837	715.4000244
1459.191264	712.7999878
1459.714636	714.0
1460.237952	713.4000244
1460.761214	714.5999756
1461.284421	717.0
1461.807573	718.2000122
1462.33067	717.2000122
1463.899632	723.2000122
1464.422509	714.7999878
1464.945331	709.0
1465.468099	715.2000122
1465.990811	717.7999878
1466.513469	710.7999878
1467.036071	717.0
1467.558619	715.7999878
1468.081112	715.0
1468.60355	713.4000244
1469.125933	710.7999878
1469.648261	714.5999756
1470.170534	714.2000122
1470.692752	709.5999756
1471.214916	712.0
1471.737024	711.4000244
1472.259078	717.4000244
1472.781077	710.5999756
1473.303021	714.2000122
1473.82491	711.4000244
1474.346744	707.2000122
1474.868523	712.0
1475.390248	709.7999878
1475.911917	708.2000122
1476.433532	709.0
1476.955092	707.5999756
1477.476597	709.7999878
1477.998047	707.7999878
1478.519442	706.5999756
1479.040783	710.2000122
1479.562068	707.2000122
1480.083299	709.5999756
1480.604475	710.4000244
1481.125596	709.2000122
1481.646663	708.0
1482.167674	708.7999878
1482.688631	711.0
1483.209533	706.2000122
1483.73038	710.0
1484.251172	705.5999756
1484.771909	710.4000244
1485.292592	707.0
1485.81322	710.0
1486.333793	706.2000122
1486.854311	706.5999756
1487.374775	706.2000122
1487.895183	705.7999878
1488.415537	704.7999878
1488.935836	708.4000244
1489.456081	705.5999756
1489.97627	704.7999878
1490.496405	705.4000244
1491.016485	708.0
1491.536511	705.7999878
1492.056481	704.2000122
1492.576397	704.2000122
1493.096258	706.0
1493.616064	707.4000244
1494.135816	702.7999878
1494.655513	704.0
1495.175155	704.0
1495.694742	702.7999878
1496.214274	704.0
1496.733752	703.4000244
1497.253175	700.2000122
1497.772544	703.5999756
1498.291858	703.0
1498.811116	708.5999756
1499.330321	703.4000244
1499.84947	711.7999878
1500.368565	702.5999756
1500.887605	700.4000244
1501.406591	702.0
1501.925521	705.4000244
1502.444397	705.2000122
1502.963219	708.0
1503.481985	702.7999878
1504.000697	704.7999878
1504.519355	704.4000244
1505.037957	704.2000122
1505.556505	705.7999878
1506.074999	703.7999878
1506.593437	704.5999756
1507.111821	702.4000244
1507.63015	703.4000244
1508.148425	703.4000244
1508.666645	703.5999756
1509.18481	703.5999756
1509.702921	708.0
1510.220977	703.2000122
1510.738979	717.2000122
1511.256925	704.0
1511.774817	706.7999878
1512.292655	706.0
1512.810438	704.2000122
1513.328166	704.2000122
1513.84584	704.2000122
1514.363459	703.7999878
1514.881023	703.5999756
1515.398533	707.7999878
1515.915988	702.5999756
1516.433389	704.2000122
1516.950734	705.5999756
1517.468026	700.7999878
1517.985263	701.0
1518.502445	704.4000244
1519.019572	700.7999878
1519.536645	707.7999878
1520.053664	705.4000244
1520.570628	710.7999878
1521.087537	699.2000122
1521.604392	704.2000122
1522.121192	709.0
1522.637937	705.2000122
1523.154628	705.5999756
1523.671265	706.2000122
1524.187847	700.5999756
1524.704374	705.0
1525.220847	709.5999756
1525.737265	717.0
1526.769938	722.2000122
1527.286192	708.5999756
1527.802392	707.7999878
1528.318538	705.7999878
1528.834629	704.2000122
1529.350666	705.2000122
1529.866648	705.7999878
1530.382575	704.2000122
1530.898448	704.5999756
1531.414266	708.0
1531.93003	704.5999756
1532.44574	698.4000244
1532.961395	701.5999756
1533.476995	705.0
1533.992541	703.5999756
1534.508033	704.4000244
1535.02347	704.5999756
1535.538852	700.7999878
1536.05418	706.2000122
1536.569454	704.2000122
1537.084673	706.0
1537.599837	709.0
1538.114947	706.0
1538.630003	705.5999756
1539.145004	703.2000122
1539.659951	705.5999756
1540.174843	704.4000244
1540.689681	702.7999878
1541.204465	703.2000122
1541.719194	702.7999878
1542.233868	707.2000122
1542.748488	704.4000244
1543.263054	708.0
1543.777565	709.0
1544.292022	705.0
1544.806424	703.7999878
1545.320772	707.2000122
1545.835066	703.7999878
1546.349305	705.4000244
1546.863489	705.0
1547.37762	703.5999756
1547.891696	704.7999878
1548.405717	701.5999756
1548.919684	702.4000244
1549.433597	702.5999756
1549.947455	706.5999756
1550.461259	703.5999756
1550.975009	702.4000244
1551.488704	704.2000122
1552.002345	706.2000122
1552.515931	707.4000244
1553.029463	707.2000122
1553.542941	709.5999756
1554.056364	707.0
1554.569733	704.5999756
1555.083048	703.5999756
1555.596308	709.0
1556.109514	707.2000122
1556.622665	704.7999878
1557.135762	706.0
1557.648805	708.7999878
1558.161794	706.0
1558.674728	705.4000244
1559.187608	705.7999878
1559.700433	702.7999878
1560.213205	707.0
1560.725921	707.0
1561.238584	707.5999756
1561.751192	708.5999756
1562.263746	706.2000122
1562.776246	703.4000244
1563.288691	705.5999756
1563.801082	710.2000122
1564.313419	707.7999878
1564.825701	705.2000122
1565.337929	708.5999756
1565.850103	712.2000122
1566.362223	710.7999878
1566.874288	711.2000122
1567.386299	709.7999878
1567.898256	713.7999878
1568.410158	712.0
1568.922007	712.5999756
1569.4338	709.0
1569.94554	709.4000244
1570.457226	708.5999756
1570.968857	708.0
1571.480434	710.7999878
1571.991956	709.4000244
1572.503425	708.0
1573.014839	710.5999756
1573.526199	706.0
1574.037505	707.5999756
1574.548756	707.2000122
1575.059953	708.4000244
1575.571096	704.7999878
1576.082185	708.2000122
1576.59322	704.0
1577.1042	708.5999756
1577.615126	709.2000122
1578.125998	709.5999756
1578.636816	708.0
1579.14758	709.2000122
1579.658289	712.7999878
1580.168944	709.5999756
1580.679545	709.7999878
1581.190092	711.0
1581.700585	706.4000244
1582.211023	711.0
1582.721407	714.2000122
1583.231737	715.0
1583.742013	713.2000122
1584.252235	710.2000122
1584.762403	710.5999756
1585.272516	703.4000244
1585.782575	705.5999756
1586.292581	707.5999756
1586.802532	708.7999878
1587.312428	713.2000122
1587.822271	708.0
1588.33206	712.4000244
1588.841794	708.2000122
1589.351474	712.0
1589.8611	702.5999756
1590.370672	711.0
1590.88019	708.5999756
1591.389654	706.2000122
1591.899064	711.2000122
1592.408419	707.7999878
