1042.452273	719.7999878
1043.018714	713.2000122
1043.585098	718.0
1044.151424	711.7999878
1044.717692	713.2000122
1045.283903	714.7999878
1045.850056	715.0
1046.416151	715.2000122
1046.982188	709.7999878
1047.548167	713.4000244
1048.114089	709.0
1048.679953	713.7999878
1049.24576	708.2000122
1049.811509	710.5999756
1050.3772	712.5999756
1050.942833	711.0
1051.508408	710.4000244
1052.073926	704.4000244
1052.639387	706.5999756
1053.204789	707.5999756
1053.770134	709.2000122
1054.335421	708.5999756
1054.900651	709.7999878
1055.465823	708.0
1056.030937	710.0
1056.595993	708.0
1057.160992	708.2000122
1057.725934	703.0
1058.290817	701.7999878
1058.855643	709.7999878
1059.420411	705.5999756
1059.985122	709.0
1060.549775	703.4000244
1061.114371	705.4000244
1061.678908	705.2000122
1062.243389	706.4000244
1062.807811	710.7999878
1063.372176	705.5999756
1063.936483	704.5999756
1064.500733	710.7999878
1065.064925	703.2000122
1065.62906	707.7999878
1066.193137	700.7999878
1066.757156	705.4000244
1067.321118	702.7999878
1067.885022	704.4000244
1068.448869	705.2000122
1069.012658	706.4000244
1069.57639	705.7999878
1070.140063	709.2000122
1070.70368	707.0
1071.267239	704.0
1071.83074	706.5999756
1072.394184	705.4000244
1072.95757	705.2000122
1073.520899	701.7999878
1074.08417	707.2000122
1075.773638	707.2000122
1076.336679	706.2000122
1076.899663	705.0
1077.462589	703.5999756
1078.025457	706.0
1078.588268	705.5999756
1079.151022	703.5999756
1079.713718	707.4000244
1080.276356	703.7999878
1080.838937	704.2000122
1081.401461	704.4000244
1081.963927	710.2000122
1082.526336	705.0
1083.088687	703.0
1083.650981	704.5999756
1084.213217	704.5999756
1084.775396	706.2000122
1085.337517	705.2000122
1085.899581	703.5999756
1086.461587	705.4000244
1087.023536	704.5999756
1087.585428	702.7999878
1088.147262	705.5999756
1088.709039	707.4000244
1089.270758	704.0
1089.83242	705.4000244
1090.394024	703.0
1090.955571	702.2000122
1091.517061	706.4000244
1092.078493	705.5999756
1092.639868	705.0
1093.201185	703.4000244
1093.762445	704.7999878
1094.323648	703.2000122
1094.884793	707.7999878
1095.445881	710.0
1096.006911	701.7999878
1096.567884	709.4000244
1097.1288	716.0
1097.689659	707.5999756
1098.25046	705.2000122
1098.811203	707.2000122
1099.37189	707.4000244
1099.932518	705.7999878
1100.49309	706.5999756
1101.053604	708.4000244
1101.614061	704.5999756
1102.174461	751.4000244
1102.734803	813.2000122
1103.295088	706.2000122
1103.855316	708.0
1104.415486	706.7999878
1104.975599	706.7999878
1105.535655	707.5999756
1106.095653	710.5999756
1106.655594	709.4000244
1107.215478	707.2000122
1107.775305	708.2000122
1108.335074	710.2000122
1108.894786	705.5999756
1109.45444	714.5999756
1110.014038	708.7999878
1110.573578	716.4000244
1111.133061	715.5999756
1111.692486	716.2000122
1112.251854	721.0
1112.811165	716.2000122
1113.370419	716.7999878
1113.929616	718.7999878
1114.488755	716.0
1115.047837	713.7999878
1115.606862	715.5999756
1116.16583	715.4000244
1116.72474	708.7999878
1117.283593	718.0
1117.842389	715.5999756
1118.401128	712.0
1118.959809	710.5999756
1119.518433	710.2000122
1120.077	710.5999756
1120.63551	705.2000122
1121.193963	704.7999878
1121.752358	709.7999878
1122.310697	708.7999878
1122.868978	710.5999756
1123.427202	707.0
1123.985368	706.4000244
1124.543478	703.4000244
1125.10153	707.0
1125.659526	708.2000122
1126.217464	706.5999756
1126.775345	708.5999756
1127.333168	706.0
1127.890935	710.2000122
1128.448644	709.7999878
1129.006297	706.4000244
1129.563892	705.7999878
1130.12143	706.4000244
1130.678911	705.0
1131.236335	708.5999756
1131.793701	703.5999756
1132.351011	702.7999878
1132.908263	703.0
1133.465458	701.0
1134.022597	704.2000122
1134.579678	704.2000122
1135.136702	703.5999756
1135.693669	704.2000122
1136.250578	707.4000244
1136.807431	700.5999756
1137.364227	702.5999756
1137.920965	704.2000122
1138.477647	701.0
1139.034271	701.4000244
1139.590839	706.5999756
1140.147349	701.2000122
1140.703802	703.2000122
1141.260198	701.4000244
1141.816537	700.7999878
1142.37282	702.4000244
1142.929045	702.7999878
1143.485213	699.0
1144.041323	703.2000122
1144.597377	705.4000244
1145.153374	705.2000122
1145.709314	707.0
1146.265197	704.4000244
1146.821023	703.7999878
1147.376792	706.0
1147.932503	701.4000244
1148.488158	698.5999756
1149.043756	701.0
1149.599297	705.5999756
1150.154781	698.7999878
1150.710207	701.2000122
1151.265577	704.0
1151.82089	705.4000244
1152.376146	700.7999878
1152.931345	705.0
1153.486487	706.2000122
1154.041572	706.7999878
1154.5966	699.4000244
1155.151571	709.0
1155.706485	700.4000244
1156.261342	701.5999756
1156.816142	710.7999878
1157.370885	701.4000244
1157.925572	701.7999878
1158.480201	705.0
1159.034774	707.7999878
1159.589289	708.4000244
1160.143748	704.7999878
1160.698149	711.4000244
1161.252494	709.2000122
1161.806782	704.2000122
1162.361013	703.4000244
1162.915187	703.4000244
1163.469304	703.5999756
1164.023364	705.7999878
1164.577368	699.7999878
1165.131314	704.5999756
1165.685204	701.2000122
1166.239036	702.2000122
1166.792812	706.5999756
1167.346531	704.0
1167.900193	706.2000122
1168.453798	704.7999878
1169.007347	704.0
1169.560838	700.0
1170.114273	700.7999878
1170.66765	703.2000122
1171.220971	702.7999878
1171.774235	701.5999756
1172.327443	704.4000244
1172.880593	705.0
1173.433687	703.7999878
1173.986723	702.5999756
1174.539703	702.2000122
1175.092626	703.7999878
1175.645493	706.0
1176.198302	704.4000244
1176.751055	704.5999756
1177.303751	702.7999878
1177.85639	705.0
1178.408972	705.7999878
1178.961498	708.4000244
1179.513966	706.2000122
1180.066378	703.0
1180.618733	704.2000122
1181.171032	707.2000122
1181.723273	707.5999756
1182.275458	709.7999878
1182.827586	709.2000122
1183.379657	712.5999756
1183.931672	708.5999756
1184.48363	708.4000244
1185.035531	708.4000244
1185.587375	711.0
1186.139162	709.2000122
1186.690893	710.7999878
1187.242567	706.2000122
1187.794184	710.0
1188.345745	712.7999878
1188.897249	713.7999878
1189.448696	709.7999878
1190.000086	708.0
1190.55142	707.7999878
1191.102697	711.5999756
1191.653918	708.4000244
1192.205081	704.2000122
1192.756188	708.0
1193.307238	720.5999756
1193.858232	702.5999756
1194.409169	702.5999756
1194.960049	706.2000122
1195.510872	706.0
1196.061639	704.0
1196.612349	700.4000244
1197.163003	702.7999878
1197.713599	703.5999756
1198.264139	701.2000122
1198.814623	701.5999756
1199.36505	702.2000122
1199.91542	703.0
1200.465734	703.4000244
1201.01599	708.4000244
1201.566191	703.4000244
1202.116334	700.0
1202.666421	697.7999878
1203.216452	701.7999878
1203.766425	701.4000244
1204.316343	704.4000244
1204.866203	704.2000122
1205.416007	702.0
1205.965754	701.7999878
1206.515445	701.7999878
1207.065079	705.7999878
1207.614657	698.0
1208.164177	704.0
1208.713642	705.0
1209.26305	702.5999756
1209.812401	702.4000244
1210.361695	708.2000122
1210.910933	702.4000244
1211.460115	702.0
1212.00924	705.2000122
1212.558308	702.2000122
1213.10732	705.7999878
1213.656275	705.4000244
1214.205174	703.2000122
1214.754016	706.7999878
1215.302801	705.7999878
1215.85153	705.5999756
1216.400203	708.2000122
1216.948819	707.4000244
1217.497378	705.4000244
1218.045881	706.4000244
1218.594327	704.4000244
1219.142717	710.7999878
1219.691051	705.5999756
1220.239327	706.0
1220.787548	703.2000122
1221.335712	709.0
1221.883819	709.4000244
1222.43187	708.0
1222.979864	707.0
1223.527802	708.0
1224.075683	705.5999756
1224.623508	708.2000122
1225.171277	709.2000122
1225.718989	709.7999878
1226.266644	706.0
1226.814243	709.7999878
1227.361786	704.4000244
1227.909272	710.2000122
1228.456702	707.4000244
1229.004075	705.2000122
1229.551392	707.0
1230.098652	706.4000244
1230.645856	711.5999756
1231.193003	710.7999878
1231.740094	710.0
1232.287129	710.2000122
1232.834107	710.5999756
1233.381029	710.5999756
1233.927894	706.7999878
1234.474703	710.5999756
1235.021455	709.2000122
1235.568151	705.2000122
1236.114791	711.7999878
1236.661374	709.5999756
1237.207901	706.0
1237.754372	703.4000244
1238.300786	709.7999878
1238.847144	710.2000122
1239.393445	704.7999878
1239.93969	709.4000244
1240.485879	710.4000244
1241.032011	709.0
1241.578087	707.5999756
1242.124106	706.5999756
1242.67007	708.5999756
1243.215976	704.5999756
1243.761827	707.4000244
1244.307621	705.4000244
1244.853359	709.2000122
1245.39904	706.2000122
1245.944665	709.5999756
1246.490234	707.5999756
1247.035746	710.0
1247.581203	709.2000122
1248.126602	708.4000244
1248.671946	709.7999878
1249.217233	708.0
1249.762464	708.0
1250.307638	710.5999756
1250.852757	705.4000244
1251.397819	707.4000244
1251.942824	711.2000122
1252.487774	708.7999878
1253.032667	706.0
1253.577503	709.4000244
1254.122284	705.2000122
1254.667008	708.4000244
1255.211676	709.7999878
1255.756288	713.0
1256.300843	708.2000122
1256.845342	713.2000122
1257.389785	712.2000122
1257.934172	708.5999756
1258.478502	708.5999756
1259.022776	711.4000244
1259.566994	711.7999878
1260.111156	730.4000244
1260.655261	711.5999756
1261.199311	711.0
1261.743304	714.5999756
1262.28724	715.2000122
1262.831121	713.0
1263.374945	724.0
1263.918713	723.2000122
1264.462425	726.2000122
1265.006081	721.4000244
1265.54968	718.7999878
1266.093223	714.2000122
1266.636711	711.7999878
1267.180141	711.5999756
1267.723516	710.4000244
1268.266835	708.4000244
1268.810097	711.7999878
1269.353303	705.7999878
1269.896453	709.0
1270.439547	705.4000244
1270.982584	708.2000122
1271.525566	703.4000244
1272.068491	705.4000244
1272.61136	711.7999878
1273.154173	709.2000122
1273.69693	706.5999756
1274.239631	707.2000122
1274.782275	706.5999756
1275.324864	706.7999878
1275.867396	707.0
1276.409872	707.5999756
1276.952292	710.7999878
1277.494656	711.7999878
1278.036964	703.7999878
1278.579215	713.4000244
1279.121411	709.4000244
1279.66355	712.4000244
1280.205634	711.7999878
1280.747661	720.0
1281.289632	719.7999878
1281.831547	736.5999756
1282.373406	750.4000244
1282.915209	794.5999756
1283.456955	862.2000122
1283.998646	956.7999878
1284.540281	993.5999756
1285.081859	918.7999878
1285.623381	818.7999878
1286.164848	751.0
1286.706258	735.7999878
1287.247612	720.2000122
1287.788911	715.7999878
1288.330153	713.7999878
1288.871339	716.0
1289.412469	713.2000122
1289.953543	713.4000244
1290.494561	713.7999878
1291.035523	712.4000244
1291.576428	708.7999878
1292.117278	709.0
1292.658072	707.7999878
1293.19881	710.0
1293.739492	706.2000122
1294.280118	712.0
1294.820687	709.4000244
1295.361201	713.4000244
1295.901659	709.7999878
1296.442061	709.4000244
1296.982406	707.0
1297.522696	714.0
1298.06293	707.2000122
1298.603108	708.2000122
1299.143229	707.4000244
1299.683295	711.0
1300.223305	711.7999878
1300.763259	708.7999878
1301.303157	709.2000122
1301.842999	705.2000122
1302.382785	703.7999878
1302.922515	706.5999756
1303.462189	707.7999878
1304.001807	709.4000244
1304.541369	709.5999756
1305.080875	705.7999878
1305.620326	706.4000244
1306.15972	709.4000244
1306.699058	715.0
1307.238341	705.4000244
1307.777567	711.0
1308.316738	708.5999756
1308.855853	706.2000122
1309.394912	705.7999878
1309.933915	711.5999756
1310.472862	706.7999878
1311.011753	710.4000244
1311.550588	703.4000244
1312.089367	704.7999878
1312.62809	705.4000244
1313.166758	705.4000244
1313.70537	708.5999756
1314.243925	701.0
1314.782425	708.4000244
1315.320869	704.0
1315.859257	706.5999756
1316.397589	702.2000122
1316.935866	706.5999756
1317.474086	705.5999756
1318.012251	704.4000244
1318.55036	702.4000244
1319.088413	704.5999756
1319.62641	703.2000122
1320.164351	703.5999756
1320.702236	706.0
1321.240066	696.2000122
1321.777839	697.5999756
1322.315557	706.7999878
1322.853219	704.5999756
1323.390826	707.0
1323.928376	706.5999756
1324.465871	701.5999756
1325.003309	704.0
1325.540692	704.4000244
1326.07802	705.4000244
1326.615291	700.7999878
1327.152506	700.5999756
1327.689666	702.5999756
1328.22677	700.5999756
1328.763818	705.5999756
1329.300811	702.0
1329.837747	701.7999878
1330.374628	700.5999756
1330.911453	702.4000244
1331.448222	707.4000244
1331.984936	699.5999756
1332.521594	700.2000122
1333.058196	709.5999756
1333.594742	701.2000122
1334.131232	701.0
1334.667667	706.4000244
1335.204046	702.2000122
1335.740369	699.7999878
1336.276637	702.5999756
1336.812848	705.2000122
1337.349004	703.2000122
1337.885105	708.7999878
1338.421149	698.2000122
1338.957138	702.4000244
1339.493071	703.2000122
1340.028949	700.2000122
1340.56477	703.5999756
1341.100536	701.2000122
1341.636246	706.7999878
1342.171901	698.0
1342.7075	702.2000122
1343.243043	701.2000122
1343.77853	704.0
1344.313962	701.7999878
1344.849338	701.2000122
1345.384659	706.2000122
1345.919923	704.7999878
1346.455133	702.4000244
1346.990286	705.0
1347.525384	701.0
1348.060426	703.2000122
1348.595412	703.2000122
1349.130343	697.5999756
1349.665218	700.4000244
1350.200037	699.4000244
1350.734801	702.4000244
1351.269509	702.2000122
1351.804162	699.4000244
1352.338758	701.2000122
1352.8733	706.5999756
1353.407785	702.2000122
1353.942215	707.5999756
1354.476589	701.2000122
1355.010908	699.5999756
1355.545171	703.2000122
1356.079379	704.4000244
1356.61353	706.4000244
1357.147627	702.7999878
1357.681667	700.2000122
1358.215652	702.4000244
1358.749582	703.2000122
1359.283456	703.0
1359.817274	703.5999756
1360.351037	702.5999756
1360.884744	706.5999756
1361.418395	701.5999756
1361.951991	705.2000122
1362.485531	703.4000244
1363.019016	699.4000244
1363.552445	701.5999756
1364.085819	699.7999878
1364.619137	703.7999878
1365.1524	704.2000122
1365.685607	704.5999756
1366.218758	706.5999756
1366.751854	703.0
1367.284894	702.2000122
1367.817879	708.0
1368.350808	705.7999878
1368.883682	708.4000244
1369.4165	707.2000122
1369.949263	716.5999756
1370.48197	711.5999756
1371.014622	704.5999756
1371.547218	701.4000244
1372.079758	703.0
1372.612244	703.7999878
1373.144673	702.0
1373.677047	705.4000244
1374.209366	701.0
1374.741629	706.4000244
1375.273836	706.4000244
1375.805989	701.2000122
1376.338085	707.0
1376.870126	707.5999756
1377.402112	709.0
1377.934042	706.0
1378.465917	704.5999756
1378.997736	708.4000244
1379.5295	710.4000244
1380.061208	710.2000122
1380.592861	704.4000244
1381.124459	709.4000244
1381.656	708.5999756
1382.187487	713.4000244
1382.718918	713.2000122
1383.250294	708.7999878
1383.781614	719.7999878
1384.312879	719.7999878
1384.844088	721.7999878
1385.375242	726.0
1385.90634	743.7999878
1386.437383	766.0
1386.968371	831.0
1387.499303	992.2000122
1388.03018	1241.599976
1388.561001	1248.400024
1389.091767	983.7999878
1389.622478	812.7999878
1390.153133	753.0
1390.683733	730.7999878
1391.214277	720.5999756
1391.744766	718.5999756
1392.2752	716.4000244
1392.805578	715.4000244
1393.335901	711.2000122
1393.866168	717.7999878
1394.396381	712.2000122
1394.926537	705.2000122
1395.456639	700.0
1395.986685	707.0
1396.516675	700.0
1397.046611	707.4000244
1397.576491	707.0
1398.106315	707.4000244
1398.636084	705.7999878
1399.165798	704.0
1399.695457	705.5999756
1400.22506	706.2000122
1400.754608	703.5999756
1401.284101	701.4000244
1401.813538	702.0
1402.34292	707.4000244
1402.872247	706.4000244
1403.401518	703.5999756
1403.930734	703.7999878
1404.459895	705.2000122
1404.989	708.5999756
1405.51805	709.4000244
1406.047045	706.4000244
1406.575984	701.5999756
1407.104869	710.7999878
1407.633697	708.7999878
1408.162471	715.7999878
1408.691189	722.5999756
1409.219852	725.7999878
1409.74846	738.4000244
1410.277013	733.7999878
1410.80551	720.4000244
1411.333952	713.5999756
1411.862339	712.2000122
1412.39067	707.4000244
1412.918946	707.5999756
1413.447167	703.4000244
1413.975333	701.0
1414.503444	707.0
1415.031499	702.0
1415.559499	716.7999878
1416.087444	703.4000244
1416.615333	704.4000244
1417.143167	707.2000122
1417.670947	705.4000244
1418.19867	699.2000122
1418.726339	703.2000122
1419.253952	699.2000122
1419.781511	703.0
1420.309014	705.2000122
1420.836461	700.7999878
1421.363854	704.7999878
1421.891191	702.0
1422.418474	703.7999878
1422.945701	706.0
1423.472872	701.5999756
1423.999989	700.7999878
1424.52705	699.4000244
1425.054057	708.0
1425.581008	701.0
1426.107904	707.4000244
1426.634745	705.2000122
1427.16153	699.4000244
1427.688261	700.4000244
1428.214936	703.4000244
1428.741556	704.4000244
1429.268121	701.4000244
1429.794631	704.2000122
1430.321085	704.2000122
1430.847485	702.2000122
1431.373829	706.2000122
1431.900118	702.2000122
1432.426353	704.7999878
1432.952532	706.5999756
1433.478655	702.2000122
1434.004724	701.4000244
1434.530738	700.0
1435.056696	702.2000122
1435.5826	702.4000244
1436.108448	702.4000244
1436.634241	700.4000244
1437.159979	704.2000122
1437.685662	703.2000122
1438.21129	702.2000122
1438.736863	698.4000244
1439.262381	701.4000244
1439.787843	702.4000244
1440.313251	704.0
1440.838603	703.4000244
1441.3639	703.4000244
1441.889143	700.7999878
1442.41433	704.4000244
1442.939462	702.5999756
1443.464539	708.4000244
1443.989561	706.2000122
1444.514528	706.4000244
1445.03944	705.4000244
1445.564297	705.5999756
1446.089099	700.2000122
1446.613846	701.5999756
1447.138537	702.7999878
1447.663174	706.4000244
1448.187756	701.7999878
1448.712282	708.0
1449.236754	700.2000122
1449.761171	704.5999756
1450.285532	703.2000122
1450.809839	704.0
1451.33409	703.4000244
1451.858287	703.2000122
1452.382428	702.5999756
1452.906515	700.4000244
1453.430546	703.5999756
1453.954523	706.5999756
1454.478444	706.7999878
1455.002311	702.7999878
1455.526123	703.7999878
1456.049879	704.7999878
1456.573581	703.5999756
1457.097227	707.0
1457.620819	708.2000122
1458.144356	703.7999878
1458.667837	703.0
1459.191264	703.2000122
1459.714636	702.4000244
1460.237952	702.4000244
1460.761214	701.5999756
1461.284421	703.0
1461.807573	703.0
1462.33067	705.2000122
1462.853712	723.7999878
1463.899632	709.4000244
1464.422509	703.0
1464.945331	705.2000122
1465.468099	700.0
1465.990811	703.4000244
1466.513469	705.2000122
1467.036071	703.0
1467.558619	703.5999756
1468.081112	705.4000244
1468.60355	701.2000122
1469.125933	701.0
1469.648261	708.4000244
1470.170534	707.5999756
1470.692752	700.7999878
1471.214916	702.7999878
1471.737024	698.0
1472.259078	699.4000244
1472.781077	704.2000122
1473.303021	702.7999878
1473.82491	701.4000244
1474.346744	705.0
1474.868523	696.4000244
1475.390248	697.4000244
1475.911917	699.4000244
1476.433532	704.0
1476.955092	699.0
1477.476597	703.4000244
1477.998047	699.2000122
1478.519442	701.0
1479.040783	700.2000122
1479.562068	699.4000244
1480.083299	703.2000122
1480.604475	697.4000244
1481.125596	699.5999756
1481.646663	698.7999878
1482.167674	697.5999756
1482.688631	698.7999878
1483.209533	701.4000244
1483.73038	698.5999756
1484.251172	695.7999878
1484.771909	697.2000122
1485.292592	695.7999878
1485.81322	699.7999878
1486.333793	698.5999756
1486.854311	698.7999878
1487.374775	702.4000244
1487.895183	696.0
1488.415537	695.5999756
1488.935836	696.2000122
1489.456081	697.5999756
1489.97627	700.4000244
1490.496405	693.0
1491.016485	698.4000244
1491.536511	700.2000122
1492.056481	697.4000244
1492.576397	692.2000122
1493.096258	696.5999756
1493.616064	695.2000122
1494.135816	695.7999878
1494.655513	695.0
1495.175155	695.5999756
1495.694742	702.2000122
1496.214274	696.0
1496.733752	697.5999756
1497.253175	700.0
1497.772544	698.7999878
1498.291858	698.2000122
1498.811116	698.5999756
1499.330321	695.7999878
1499.84947	705.5999756
1500.368565	699.2000122
1500.887605	695.5999756
1501.406591	698.7999878
1501.925521	695.0
1502.444397	696.0
1502.963219	693.7999878
1503.481985	695.7999878
1504.000697	694.5999756
1504.519355	697.5999756
1505.037957	697.0
1505.556505	701.7999878
1506.074999	697.4000244
1506.593437	697.4000244
1507.111821	699.0
1507.63015	696.0
1508.148425	698.7999878
1508.666645	694.4000244
1509.18481	695.2000122
1509.702921	695.5999756
1510.220977	698.5999756
1510.738979	710.2000122
1511.256925	695.0
1511.774817	701.5999756
1512.292655	702.4000244
1512.810438	697.2000122
1513.328166	695.7999878
1513.84584	695.7999878
1514.363459	699.2000122
1514.881023	698.4000244
1515.398533	697.4000244
1515.915988	698.2000122
1516.433389	696.5999756
1516.950734	694.4000244
1517.468026	699.7999878
1517.985263	695.2000122
1518.502445	698.2000122
1519.019572	696.7999878
1519.536645	694.4000244
1520.053664	694.0
1520.570628	698.4000244
1521.087537	698.0
1521.604392	699.0
1522.121192	693.0
1522.637937	699.5999756
1523.154628	695.7999878
1523.671265	696.0
1524.187847	694.7999878
1524.704374	695.2000122
1525.220847	694.0
1525.737265	710.5999756
1526.253629	726.5999756
1526.769938	712.2000122
1527.286192	701.5999756
1527.802392	694.0
1528.318538	702.4000244
1528.834629	693.2000122
1529.350666	696.7999878
1529.866648	698.2000122
1530.382575	695.0
1530.898448	697.7999878
1531.414266	697.4000244
1531.93003	696.5999756
1532.44574	697.5999756
1532.961395	696.7999878
1533.476995	700.4000244
1533.992541	695.5999756
1534.508033	693.2000122
1535.02347	696.7999878
1535.538852	697.2000122
1536.05418	695.5999756
1536.569454	696.2000122
1537.084673	698.7999878
1537.599837	696.7999878
1538.114947	696.0
1538.630003	696.4000244
1539.145004	701.2000122
1539.659951	697.7999878
1540.174843	697.7999878
1540.689681	695.4000244
1541.204465	696.0
1541.719194	693.5999756
1542.233868	696.5999756
1542.748488	693.0
1543.263054	695.7999878
1543.777565	694.5999756
1544.292022	698.4000244
1544.806424	696.0
1545.320772	698.2000122
1545.835066	697.5999756
1546.349305	697.0
1546.863489	695.4000244
1547.37762	699.0
1547.891696	700.0
1548.405717	700.0
1548.919684	697.0
1549.433597	699.2000122
1549.947455	698.7999878
1550.461259	697.0
1550.975009	699.4000244
1551.488704	696.0
1552.002345	698.0
1552.515931	698.0
1553.029463	696.7999878
1553.542941	699.4000244
1554.056364	699.7999878
1554.569733	699.0
1555.083048	697.5999756
1555.596308	696.5999756
1556.109514	700.0
1556.622665	697.0
1557.135762	698.0
1557.648805	696.7999878
1558.161794	697.7999878
1558.674728	700.4000244
1559.187608	698.5999756
1559.700433	698.4000244
1560.213205	695.7999878
1560.725921	700.5999756
1561.238584	700.4000244
1561.751192	703.2000122
1562.263746	700.4000244
1562.776246	699.7999878
1563.288691	697.4000244
1563.801082	698.4000244
1564.313419	699.5999756
1564.825701	697.7999878
1565.337929	701.0
1565.850103	700.7999878
1566.362223	700.4000244
1566.874288	703.2000122
1567.386299	701.2000122
1567.898256	704.0
1568.410158	701.0
1568.922007	701.2000122
1569.4338	698.0
1569.94554	698.4000244
1570.457226	698.4000244
1570.968857	701.2000122
1571.480434	697.5999756
1571.991956	695.4000244
1572.503425	699.5999756
1573.014839	697.4000244
1573.526199	699.4000244
1574.037505	697.7999878
1574.548756	697.2000122
1575.059953	696.0
1575.571096	697.4000244
1576.082185	698.0
1576.59322	695.0
1577.1042	700.7999878
1577.615126	699.0
1578.125998	698.0
1578.636816	698.2000122
1579.14758	700.5999756
1579.658289	698.5999756
1580.168944	699.4000244
1580.679545	699.7999878
1581.190092	697.5999756
1581.700585	697.4000244
1582.211023	703.4000244
1582.721407	698.2000122
1583.231737	698.7999878
1583.742013	702.5999756
1584.252235	700.2000122
1584.762403	702.0
1585.272516	696.0
1585.782575	702.4000244
1586.292581	698.2000122
1586.802532	696.2000122
1587.312428	700.7999878
1587.822271	697.4000244
1588.33206	701.0
1588.841794	698.4000244
1589.351474	698.7999878
1589.8611	694.5999756
1590.370672	694.2000122
1590.88019	699.2000122
1591.389654	699.5999756
1591.899064	702.7999878
1592.408419	696.5999756
