1042.452273	714.4000244
1043.018714	714.2000122
1043.585098	719.7999878
1044.151424	713.0
1044.717692	710.4000244
1045.283903	708.0
1045.850056	713.7999878
1046.416151	710.4000244
1046.982188	712.0
1047.548167	709.4000244
1048.114089	710.5999756
1048.679953	710.4000244
1049.24576	705.0
1049.811509	711.4000244
1050.3772	707.5999756
1050.942833	708.2000122
1051.508408	706.2000122
1052.073926	707.4000244
1052.639387	705.4000244
1053.204789	710.4000244
1053.770134	708.4000244
1054.335421	705.7999878
1054.900651	707.7999878
1055.465823	704.5999756
1056.030937	699.7999878
1056.595993	705.7999878
1057.160992	702.4000244
1057.725934	705.7999878
1058.290817	706.4000244
1058.855643	703.4000244
1059.420411	702.0
1059.985122	705.5999756
1060.549775	704.7999878
1061.114371	705.7999878
1061.678908	700.7999878
1062.243389	703.5999756
1062.807811	704.2000122
1063.372176	701.0
1063.936483	702.7999878
1064.500733	705.0
1065.064925	702.2000122
1065.62906	705.0
1066.193137	701.4000244
1066.757156	702.2000122
1067.321118	707.7999878
1067.885022	702.0
1068.448869	704.7999878
1069.012658	704.4000244
1069.57639	709.5999756
1070.140063	713.0
1070.70368	705.5999756
1071.267239	703.7999878
1071.83074	701.4000244
1072.394184	703.4000244
1072.95757	702.7999878
1073.520899	702.4000244
1074.08417	703.5999756
1074.647383	705.2000122
1075.21054	703.0
1075.773638	700.7999878
1076.336679	701.0
1076.899663	705.0
1077.462589	702.0
1078.025457	701.2000122
1078.588268	707.4000244
1079.151022	707.2000122
1079.713718	706.2000122
1080.276356	701.7999878
1080.838937	700.5999756
1081.401461	704.5999756
1081.963927	703.4000244
1082.526336	704.5999756
1083.088687	705.4000244
1083.650981	707.4000244
1084.213217	706.2000122
1084.775396	706.2000122
1085.337517	706.4000244
1085.899581	703.7999878
1086.461587	708.2000122
1087.023536	700.0
1087.585428	705.5999756
1088.147262	705.2000122
1088.709039	701.4000244
1089.270758	702.2000122
1089.83242	703.0
1090.394024	700.0
1090.955571	708.4000244
1091.517061	700.0
1092.078493	705.4000244
1092.639868	706.7999878
1093.201185	700.0
1093.762445	704.5999756
1094.323648	702.5999756
1094.884793	704.4000244
1095.445881	705.2000122
1096.006911	703.4000244
1096.567884	706.2000122
1097.1288	715.2000122
1097.689659	702.2000122
1098.25046	705.7999878
1098.811203	698.5999756
1099.37189	702.5999756
1099.932518	699.2000122
1100.49309	701.5999756
1101.053604	702.0
1101.614061	700.2000122
1102.174461	703.0
1102.734803	704.2000122
1103.295088	704.7999878
1103.855316	701.5999756
1104.415486	707.2000122
1104.975599	702.0
1105.535655	703.0
1106.095653	703.2000122
1106.655594	703.4000244
1107.215478	707.0
1107.775305	708.2000122
1108.335074	711.4000244
1108.894786	710.7999878
1109.45444	707.5999756
1110.014038	717.4000244
1110.573578	715.0
1111.133061	711.4000244
1111.692486	716.2000122
1112.251854	717.4000244
1112.811165	715.7999878
1113.370419	712.7999878
1113.929616	715.4000244
1114.488755	713.2000122
1115.047837	710.0
1115.606862	709.0
1116.16583	712.4000244
1116.72474	711.4000244
1117.283593	711.0
1117.842389	710.0
1118.401128	708.0
1118.959809	708.0
1119.518433	703.2000122
1120.077	708.7999878
1120.63551	706.5999756
1121.193963	703.5999756
1121.752358	706.4000244
1122.310697	707.2000122
1122.868978	702.7999878
1123.427202	705.7999878
1123.985368	702.0
1124.543478	703.4000244
1125.10153	700.4000244
1125.659526	707.4000244
1126.217464	701.0
1126.775345	706.5999756
1127.333168	702.5999756
1127.890935	708.5999756
1128.448644	705.5999756
1129.006297	703.0
1129.563892	704.7999878
1130.12143	705.5999756
1130.678911	705.7999878
1131.236335	704.2000122
1131.793701	702.4000244
1132.351011	704.5999756
1132.908263	706.2000122
1133.465458	704.2000122
1134.022597	701.7999878
1134.579678	703.7999878
1135.136702	701.2000122
1135.693669	700.5999756
1136.250578	700.2000122
1136.807431	699.7999878
1137.364227	704.7999878
1137.920965	698.0
1138.477647	704.5999756
1139.034271	701.2000122
1139.590839	700.5999756
1140.147349	698.5999756
1140.703802	699.4000244
1141.260198	699.5999756
1141.816537	701.5999756
1142.37282	699.5999756
1142.929045	699.4000244
1143.485213	701.0
1144.041323	703.4000244
1144.597377	702.2000122
1145.153374	702.2000122
1145.709314	700.5999756
1146.265197	697.7999878
1146.821023	702.0
1147.376792	704.2000122
1147.932503	702.0
1148.488158	700.0
1149.043756	705.4000244
1149.599297	702.4000244
1150.154781	700.0
1150.710207	701.0
1151.265577	697.4000244
1151.82089	699.2000122
1152.376146	699.7999878
1152.931345	702.5999756
1153.486487	699.4000244
1154.041572	700.7999878
1154.5966	697.4000244
1155.151571	701.7999878
1155.706485	698.2000122
1156.261342	704.0
1156.816142	698.7999878
1157.370885	703.7999878
1157.925572	700.0
1158.480201	702.7999878
1159.034774	702.4000244
1159.589289	703.7999878
1160.143748	699.2000122
1160.698149	702.2000122
1161.252494	707.0
1161.806782	701.0
1162.361013	697.5999756
1162.915187	701.2000122
1163.469304	703.7999878
1164.023364	698.7999878
1164.577368	698.7999878
1165.131314	701.0
1165.685204	700.4000244
1166.239036	704.0
1166.792812	700.2000122
1167.346531	704.0
1167.900193	700.4000244
1168.453798	701.4000244
1169.007347	702.0
1169.560838	702.5999756
1170.114273	700.2000122
1170.66765	701.5999756
1171.220971	698.5999756
1171.774235	700.7999878
1172.327443	702.5999756
1172.880593	702.2000122
1173.433687	702.5999756
1173.986723	702.5999756
1174.539703	701.7999878
1175.092626	705.0
1175.645493	702.5999756
1176.198302	703.0
1176.751055	699.2000122
1177.303751	704.4000244
1177.85639	705.2000122
1178.408972	706.5999756
1178.961498	702.7999878
1179.513966	706.7999878
1180.066378	706.2000122
1180.618733	707.2000122
1181.171032	701.7999878
1181.723273	705.7999878
1182.275458	707.0
1182.827586	705.2000122
1183.379657	709.0
1183.931672	703.4000244
1184.48363	706.4000244
1185.035531	712.2000122
1185.587375	711.0
1186.139162	706.5999756
1186.690893	712.4000244
1187.242567	706.7999878
1187.794184	709.0
1188.345745	708.0
1188.897249	709.0
1189.448696	704.0
1190.000086	710.5999756
1190.55142	708.5999756
1191.102697	707.5999756
1191.653918	709.7999878
1192.205081	701.5999756
1192.756188	706.4000244
1193.307238	722.0
1193.858232	704.0
1194.409169	701.5999756
1194.960049	705.0
1195.510872	699.2000122
1196.061639	701.5999756
1196.612349	705.4000244
1197.163003	699.4000244
1197.713599	700.4000244
1198.264139	697.7999878
1198.814623	700.4000244
1199.36505	699.5999756
1199.91542	701.7999878
1200.465734	701.4000244
1201.01599	701.4000244
1201.566191	698.7999878
1202.116334	700.4000244
1202.666421	701.4000244
1203.216452	698.7999878
1203.766425	699.5999756
1204.316343	702.5999756
1204.866203	700.5999756
1205.416007	701.5999756
1205.965754	701.0
1206.515445	702.2000122
1207.065079	702.5999756
1207.614657	700.5999756
1208.164177	700.5999756
1208.713642	695.2000122
1209.26305	701.0
1209.812401	697.7999878
1210.361695	697.5999756
1210.910933	704.0
1211.460115	700.5999756
1212.00924	706.0
1212.558308	698.5999756
1213.10732	702.0
1213.656275	702.5999756
1214.205174	705.4000244
1214.754016	704.2000122
1215.302801	705.5999756
1215.85153	702.2000122
1216.400203	701.7999878
1216.948819	706.0
1217.497378	699.7999878
1218.045881	699.4000244
1218.594327	705.2000122
1219.142717	703.7999878
1219.691051	705.2000122
1220.239327	708.7999878
1220.787548	702.5999756
1221.335712	702.7999878
1221.883819	706.4000244
1222.43187	704.7999878
1222.979864	707.0
1223.527802	708.0
1224.075683	705.4000244
1224.623508	708.2000122
1225.171277	701.0
1225.718989	710.7999878
1226.266644	704.7999878
1226.814243	705.7999878
1227.361786	712.0
1227.909272	705.0
1228.456702	708.4000244
1229.004075	709.2000122
1229.551392	713.0
1230.098652	704.7999878
1230.645856	705.2000122
1231.193003	710.5999756
1231.740094	709.2000122
1232.287129	705.5999756
1232.834107	709.2000122
1233.381029	706.5999756
1233.927894	708.4000244
1234.474703	704.7999878
1235.021455	702.5999756
1235.568151	706.0
1236.114791	707.5999756
1236.661374	704.5999756
1237.207901	705.2000122
1237.754372	710.0
1238.300786	705.4000244
1238.847144	706.0
1239.393445	707.5999756
1239.93969	710.0
1240.485879	709.7999878
1241.032011	701.5999756
1241.578087	706.5999756
1242.124106	708.4000244
1242.67007	708.4000244
1243.215976	707.7999878
1243.761827	705.7999878
1244.307621	709.0
1244.853359	708.4000244
1245.39904	703.5999756
1245.944665	709.2000122
1246.490234	708.7999878
1247.035746	705.0
1247.581203	706.5999756
1248.126602	709.5999756
1248.671946	708.7999878
1249.217233	707.5999756
1249.762464	710.0
1250.307638	709.0
1250.852757	707.7999878
1251.397819	711.2000122
1251.942824	708.2000122
1252.487774	705.4000244
1253.032667	707.2000122
1253.577503	704.4000244
1254.122284	707.2000122
1254.667008	706.2000122
1255.211676	708.7999878
1255.756288	712.5999756
1256.300843	705.7999878
1256.845342	709.2000122
1257.389785	707.4000244
1257.934172	706.2000122
1258.478502	707.2000122
1259.022776	711.0
1259.566994	710.4000244
1260.111156	728.2000122
1260.655261	703.0
1261.199311	711.2000122
1261.743304	708.4000244
1262.28724	711.4000244
1262.831121	717.0
1263.374945	715.0
1263.918713	724.4000244
1264.462425	722.2000122
1265.006081	713.5999756
1265.54968	717.4000244
1266.093223	710.0
1266.636711	701.4000244
1267.180141	709.0
1267.723516	704.7999878
1268.266835	710.5999756
1268.810097	710.7999878
1269.353303	706.2000122
1269.896453	704.2000122
1270.439547	703.0
1270.982584	704.7999878
1271.525566	705.4000244
1272.068491	706.0
1272.61136	704.7999878
1273.154173	705.2000122
1273.69693	707.4000244
1274.239631	706.0
1274.782275	703.0
1275.324864	705.5999756
1275.867396	705.5999756
1276.409872	704.5999756
1276.952292	701.7999878
1277.494656	709.5999756
1278.036964	706.4000244
1278.579215	707.5999756
1279.121411	708.2000122
1279.66355	711.5999756
1280.205634	712.2000122
1280.747661	716.2000122
1281.289632	720.7999878
1281.831547	732.0
1282.373406	742.0
1282.915209	791.4000244
1283.456955	853.7999878
1283.998646	936.7999878
1284.540281	970.5999756
1285.081859	903.4000244
1285.623381	808.7999878
1286.164848	756.5999756
1286.706258	729.7999878
1287.247612	719.0
1287.788911	714.5999756
1288.330153	712.2000122
1288.871339	718.7999878
1289.412469	708.7999878
1289.953543	711.0
1290.494561	709.0
1291.035523	709.0
1291.576428	703.7999878
1292.117278	711.5999756
1292.658072	712.0
1293.19881	708.5999756
1293.739492	710.0
1294.280118	709.7999878
1294.820687	705.7999878
1295.361201	707.7999878
1295.901659	705.5999756
1296.442061	709.0
1296.982406	707.2000122
1297.522696	709.0
1298.06293	709.5999756
1298.603108	707.5999756
1299.143229	706.0
1299.683295	703.4000244
1300.223305	705.4000244
1300.763259	704.2000122
1301.303157	707.0
1301.842999	707.2000122
1302.382785	704.2000122
1302.922515	705.4000244
1303.462189	704.5999756
1304.001807	704.0
1304.541369	706.2000122
1305.080875	704.4000244
1305.620326	702.7999878
1306.15972	703.0
1306.699058	706.5999756
1307.238341	705.2000122
1307.777567	709.0
1308.316738	701.5999756
1308.855853	704.0
1309.394912	705.2000122
1309.933915	708.5999756
1310.472862	705.0
1311.011753	706.0
1311.550588	703.7999878
1312.089367	705.7999878
1312.62809	703.2000122
1313.166758	700.4000244
1313.70537	702.7999878
1314.243925	702.4000244
1314.782425	703.5999756
1315.320869	700.2000122
1315.859257	701.4000244
1316.397589	701.2000122
1316.935866	704.0
1317.474086	701.4000244
1318.012251	703.0
1318.55036	702.7999878
1319.088413	699.4000244
1319.62641	701.5999756
1320.164351	701.2000122
1320.702236	705.4000244
1321.240066	696.0
1321.777839	698.0
1322.315557	700.0
1322.853219	702.7999878
1323.390826	699.5999756
1323.928376	705.5999756
1324.465871	697.2000122
1325.003309	700.7999878
1325.540692	705.5999756
1326.07802	703.2000122
1326.615291	699.4000244
1327.152506	699.4000244
1327.689666	698.4000244
1328.22677	701.5999756
1328.763818	702.5999756
1329.300811	701.5999756
1329.837747	696.5999756
1330.374628	700.2000122
1330.911453	697.7999878
1331.448222	700.4000244
1331.984936	699.5999756
1332.521594	699.0
1333.058196	699.7999878
1333.594742	703.2000122
1334.131232	696.0
1334.667667	699.2000122
1335.204046	698.5999756
1335.740369	700.0
1336.276637	701.7999878
1336.812848	697.5999756
1337.349004	700.2000122
1337.885105	700.5999756
1338.421149	704.4000244
1338.957138	697.0
1339.493071	700.2000122
1340.028949	701.0
1340.56477	700.2000122
1341.100536	697.0
1341.636246	702.2000122
1342.171901	699.4000244
1342.7075	703.5999756
1343.243043	702.0
1343.77853	700.5999756
1344.313962	698.2000122
1344.849338	701.7999878
1345.384659	695.4000244
1345.919923	701.2000122
1346.455133	701.2000122
1346.990286	699.5999756
1347.525384	701.4000244
1348.060426	698.0
1348.595412	701.2000122
1349.130343	698.2000122
1349.665218	696.7999878
1350.200037	699.5999756
1350.734801	701.4000244
1351.269509	698.4000244
1351.804162	699.7999878
1352.338758	699.7999878
1352.8733	699.4000244
1353.407785	697.5999756
1353.942215	698.5999756
1354.476589	701.4000244
1355.010908	699.0
1355.545171	699.0
1356.079379	699.5999756
1356.61353	700.0
1357.147627	700.7999878
1357.681667	696.4000244
1358.215652	702.5999756
1358.749582	702.4000244
1359.283456	702.2000122
1359.817274	698.5999756
1360.351037	700.5999756
1360.884744	703.0
1361.418395	696.4000244
1361.951991	699.7999878
1362.485531	702.4000244
1363.019016	698.5999756
1363.552445	701.5999756
1364.085819	704.5999756
1364.619137	701.5999756
1365.1524	701.0
1365.685607	702.2000122
1366.218758	700.0
1366.751854	700.0
1367.284894	703.2000122
1367.817879	705.2000122
1368.350808	704.7999878
1368.883682	701.7999878
1369.4165	701.2000122
1369.949263	707.5999756
1370.48197	709.2000122
1371.014622	707.7999878
1371.547218	699.7999878
1372.079758	702.7999878
1372.612244	724.0
1373.677047	714.4000244
1374.209366	702.0
1374.741629	703.4000244
1375.273836	701.7999878
1375.805989	704.2000122
1376.338085	704.2000122
1376.870126	699.2000122
1377.402112	704.4000244
1377.934042	703.4000244
1378.465917	702.4000244
1378.997736	703.5999756
1379.5295	706.4000244
1380.061208	703.7999878
1380.592861	706.4000244
1381.124459	707.2000122
1381.656	705.0
1382.187487	707.0
1382.718918	707.5999756
1383.250294	707.7999878
1383.781614	708.5999756
1384.312879	711.5999756
1384.844088	717.4000244
1385.375242	724.7999878
1385.90634	740.7999878
1386.437383	763.0
1386.968371	819.4000244
1387.499303	973.5999756
1388.03018	1220.800049
1388.561001	1227.0
1389.091767	947.2000122
1389.622478	799.7999878
1390.153133	743.7999878
1390.683733	727.7999878
1391.214277	718.5999756
1391.744766	718.4000244
1392.2752	709.2000122
1392.805578	709.4000244
1393.335901	705.2000122
1393.866168	713.5999756
1394.396381	705.7999878
1394.926537	704.5999756
1395.456639	702.7999878
1395.986685	703.7999878
1396.516675	704.2000122
1397.046611	702.7999878
1397.576491	698.2000122
1398.106315	707.7999878
1398.636084	703.7999878
1399.165798	707.2000122
1399.695457	703.4000244
1400.22506	703.0
1400.754608	701.5999756
1401.284101	704.4000244
1401.813538	700.7999878
1402.34292	704.5999756
1402.872247	701.2000122
1403.401518	703.7999878
1403.930734	705.5999756
1404.459895	702.7999878
1404.989	706.0
1405.51805	703.0
1406.047045	707.7999878
1406.575984	707.5999756
1407.104869	706.4000244
1407.633697	707.7999878
1408.162471	715.5999756
1408.691189	716.0
1409.219852	729.4000244
1409.74846	731.0
1410.277013	728.5999756
1410.80551	719.0
1411.333952	715.7999878
1411.862339	703.5999756
1412.39067	707.4000244
1412.918946	704.5999756
1413.447167	702.0
1413.975333	705.5999756
1414.503444	698.4000244
1415.031499	700.4000244
1415.559499	714.2000122
1416.087444	703.4000244
1416.615333	699.7999878
1417.143167	701.2000122
1417.670947	702.5999756
1418.19867	699.7999878
1418.726339	699.5999756
1419.253952	704.2000122
1419.781511	701.7999878
1420.309014	701.2000122
1420.836461	696.7999878
1421.363854	700.7999878
1421.891191	697.7999878
1422.418474	698.7999878
1422.945701	703.0
1423.472872	700.5999756
1423.999989	697.5999756
1424.52705	701.0
1425.054057	703.4000244
1425.581008	698.5999756
1426.107904	706.2000122
1426.634745	698.5999756
1427.16153	695.7999878
1427.688261	699.2000122
1428.214936	701.4000244
1428.741556	705.4000244
1429.268121	696.2000122
1429.794631	704.2000122
1430.321085	704.5999756
1430.847485	696.2000122
1431.373829	699.2000122
1431.900118	701.2000122
1432.426353	700.2000122
1432.952532	701.4000244
1433.478655	699.7999878
1434.004724	699.4000244
1434.530738	702.0
1435.056696	699.0
1435.5826	697.7999878
1436.108448	699.7999878
1436.634241	698.2000122
1437.159979	699.0
1437.685662	700.5999756
1438.21129	702.0
1438.736863	700.0
1439.262381	699.7999878
1439.787843	698.5999756
1440.313251	701.5999756
1440.838603	700.7999878
1441.3639	702.4000244
1441.889143	698.4000244
1442.41433	702.5999756
1442.939462	701.2000122
1443.464539	704.2000122
1443.989561	704.0
1444.514528	699.7999878
1445.03944	701.2000122
1445.564297	705.0
1446.089099	702.7999878
1446.613846	701.7999878
1447.138537	703.2000122
1447.663174	704.0
1448.187756	704.0
1448.712282	699.5999756
1449.236754	706.7999878
1449.761171	706.4000244
1450.285532	699.0
1450.809839	702.5999756
1451.33409	701.5999756
1451.858287	699.2000122
1452.382428	700.7999878
1452.906515	699.5999756
1453.430546	702.5999756
1453.954523	699.2000122
1454.478444	703.2000122
1455.002311	704.2000122
1455.526123	700.5999756
1456.049879	700.0
1456.573581	706.2000122
1457.097227	702.0
1457.620819	696.4000244
1458.144356	705.2000122
1458.667837	704.5999756
1459.191264	705.4000244
1459.714636	700.0
1460.237952	700.5999756
1460.761214	706.0
1461.284421	705.2000122
1461.807573	703.0
1462.33067	703.5999756
1462.853712	725.0
1463.376699	741.7999878
1463.899632	713.7999878
1464.422509	703.7999878
1464.945331	700.2000122
1465.468099	701.5999756
1465.990811	702.4000244
1466.513469	702.4000244
1467.036071	703.5999756
1467.558619	703.4000244
1468.081112	701.2000122
1468.60355	702.7999878
1469.125933	701.5999756
1469.648261	701.0
1470.170534	702.4000244
1470.692752	700.0
1471.214916	699.7999878
1471.737024	697.0
1472.259078	700.2000122
1472.781077	697.7999878
1473.303021	702.4000244
1473.82491	699.5999756
1474.346744	696.0
1474.868523	699.5999756
1475.390248	695.5999756
1475.911917	700.0
1476.433532	698.4000244
1476.955092	699.2000122
1477.476597	696.0
1477.998047	696.0
1478.519442	700.7999878
1479.040783	694.5999756
1479.562068	696.0
1480.083299	698.7999878
1480.604475	696.0
1481.125596	698.7999878
1481.646663	694.4000244
1482.167674	699.4000244
1482.688631	700.4000244
1483.209533	698.7999878
1483.73038	694.7999878
1484.251172	695.7999878
1484.771909	693.4000244
1485.292592	696.5999756
1485.81322	691.5999756
1486.333793	698.7999878
1486.854311	697.7999878
1487.374775	695.0
1487.895183	699.0
1488.415537	694.5999756
1488.935836	700.0
1489.456081	698.2000122
1489.97627	698.7999878
1490.496405	692.5999756
1491.016485	697.2000122
1491.536511	693.0
1492.056481	696.2000122
1492.576397	697.5999756
1493.096258	696.2000122
1493.616064	694.0
1494.135816	696.0
1494.655513	693.4000244
1495.175155	694.4000244
1495.694742	691.2000122
1496.214274	692.2000122
1496.733752	695.0
1497.253175	694.4000244
1497.772544	698.4000244
1498.291858	694.2000122
1498.811116	693.5999756
1499.330321	696.4000244
1499.84947	704.0
1500.368565	698.5999756
1500.887605	695.2000122
1501.406591	696.5999756
1501.925521	693.5999756
1502.444397	698.0
1502.963219	695.2000122
1503.481985	696.4000244
1504.000697	697.7999878
1504.519355	695.7999878
1505.037957	692.2000122
1505.556505	693.0
1506.074999	701.0
1506.593437	690.4000244
1507.111821	696.7999878
1507.63015	689.5999756
1508.148425	696.2000122
1508.666645	693.7999878
1509.18481	694.0
1509.702921	696.0
1510.220977	696.4000244
1510.738979	707.0
1511.256925	696.5999756
1511.774817	698.4000244
1512.292655	696.5999756
1512.810438	695.0
1513.328166	695.5999756
1513.84584	694.2000122
1514.363459	696.0
1514.881023	690.7999878
1515.398533	692.5999756
1515.915988	692.7999878
1516.433389	693.0
1516.950734	694.5999756
1517.468026	691.0
1517.985263	693.2000122
1518.502445	695.4000244
1519.019572	694.0
1519.536645	693.0
1520.053664	696.4000244
1520.570628	692.7999878
1521.087537	692.0
1521.604392	696.2000122
1522.121192	693.2000122
1522.637937	696.0
1523.154628	696.2000122
1523.671265	693.5999756
1524.187847	695.0
1524.704374	694.2000122
1525.220847	698.5999756
1525.737265	706.5999756
1526.253629	722.7999878
1526.769938	709.7999878
1527.286192	699.4000244
1527.802392	697.5999756
1528.318538	696.5999756
1528.834629	695.2000122
1529.350666	693.2000122
1529.866648	693.4000244
1530.382575	695.5999756
1530.898448	696.5999756
1531.414266	696.0
1531.93003	696.2000122
1532.44574	696.7999878
1532.961395	699.0
1533.476995	697.7999878
1533.992541	695.0
1534.508033	693.0
1535.02347	694.4000244
1535.538852	699.7999878
1536.05418	695.0
1536.569454	699.2000122
1537.084673	695.4000244
1537.599837	696.4000244
1538.114947	696.2000122
1538.630003	695.7999878
1539.145004	696.7999878
1539.659951	697.7999878
1540.174843	696.2000122
1540.689681	695.2000122
1541.204465	692.7999878
1541.719194	697.5999756
1542.233868	695.4000244
1542.748488	695.4000244
1543.263054	694.4000244
1543.777565	694.7999878
1544.292022	693.2000122
1544.806424	695.0
1545.320772	694.0
1545.835066	694.4000244
1546.349305	699.2000122
1546.863489	695.5999756
1547.37762	693.4000244
1547.891696	695.7999878
1548.405717	695.5999756
1548.919684	693.2000122
1549.433597	697.0
1549.947455	697.2000122
1550.461259	696.4000244
1550.975009	700.4000244
1551.488704	697.0
1552.002345	698.2000122
1552.515931	695.7999878
1553.029463	694.5999756
1553.542941	698.2000122
1554.056364	693.7999878
1554.569733	696.5999756
1555.083048	694.2000122
1555.596308	696.5999756
1556.109514	694.2000122
1556.622665	693.0
1557.135762	694.7999878
1557.648805	696.5999756
1558.161794	690.4000244
1558.674728	692.2000122
1559.187608	693.5999756
1559.700433	698.2000122
1560.213205	695.4000244
1560.725921	694.0
1561.238584	698.7999878
1561.751192	698.0
1562.263746	701.0
1562.776246	697.0
1563.288691	696.2000122
1563.801082	697.4000244
1564.313419	697.5999756
1564.825701	697.7999878
1565.337929	701.0
1565.850103	695.7999878
1566.362223	698.2000122
1566.874288	701.0
1567.386299	696.5999756
1567.898256	701.2000122
1568.410158	700.4000244
1568.922007	697.7999878
1569.4338	697.5999756
1569.94554	697.4000244
1570.457226	701.4000244
1570.968857	697.0
1571.480434	695.4000244
1571.991956	695.7999878
1572.503425	698.2000122
1573.014839	694.5999756
1573.526199	696.2000122
1574.037505	695.0
1574.548756	694.4000244
1575.059953	696.0
1575.571096	697.0
1576.082185	702.0
1576.59322	696.2000122
1577.1042	696.2000122
1577.615126	699.2000122
1578.125998	694.7999878
1578.636816	699.5999756
1579.14758	697.4000244
1579.658289	695.5999756
1580.168944	700.4000244
1580.679545	697.2000122
1581.190092	699.0
1581.700585	698.7999878
1582.211023	692.7999878
1582.721407	698.7999878
1583.231737	699.5999756
1583.742013	697.0
1584.252235	695.4000244
1584.762403	699.0
1585.272516	697.0
1585.782575	699.0
1586.292581	693.7999878
1586.802532	699.5999756
1587.312428	697.7999878
1587.822271	694.0
1588.33206	700.5999756
1588.841794	699.0
1589.351474	697.4000244
1589.8611	699.0
1590.370672	698.5999756
1590.88019	696.0
1591.389654	695.0
1591.899064	698.5999756
1592.408419	700.2000122
