1042.452273	698.7999878
1043.018714	702.5999756
1043.585098	700.4000244
1044.151424	702.5999756
1044.717692	703.5999756
1045.283903	699.2000122
1045.850056	702.0
1046.416151	696.5999756
1046.982188	699.5999756
1047.548167	698.5999756
1048.114089	693.2000122
1048.679953	696.5999756
1049.24576	696.2000122
1049.811509	695.5999756
1050.3772	693.2000122
1050.942833	693.2000122
1051.508408	694.2000122
1052.073926	690.0
1052.639387	693.4000244
1053.204789	696.0
1053.770134	693.5999756
1054.335421	691.5999756
1054.900651	692.2000122
1055.465823	693.7999878
1056.030937	691.0
1056.595993	693.5999756
1057.160992	692.7999878
1057.725934	690.4000244
1058.290817	690.4000244
1058.855643	690.7999878
1059.420411	687.7999878
1059.985122	689.7999878
1060.549775	689.7999878
1061.114371	689.7999878
1061.678908	690.4000244
1062.243389	689.5999756
1062.807811	689.5999756
1063.372176	689.7999878
1063.936483	688.4000244
1064.500733	693.5999756
1065.064925	688.7999878
1065.62906	690.2000122
1066.193137	688.4000244
1066.757156	689.7999878
1067.321118	690.4000244
1067.885022	692.2000122
1068.448869	688.0
1069.012658	691.7999878
1069.57639	690.5999756
1070.140063	697.2000122
1070.70368	687.2000122
1071.267239	689.7999878
1071.83074	691.2000122
1072.394184	685.0
1072.95757	688.2000122
1073.520899	690.4000244
1074.08417	696.2000122
1074.647383	689.4000244
1075.21054	688.4000244
1075.773638	689.0
1076.336679	691.0
1076.899663	688.5999756
1077.462589	689.0
1078.025457	693.4000244
1078.588268	688.2000122
1079.151022	687.4000244
1079.713718	689.2000122
1080.276356	688.7999878
1080.838937	690.0
1081.401461	689.2000122
1081.963927	693.2000122
1082.526336	689.5999756
1083.088687	686.5999756
1083.650981	689.0
1084.213217	688.5999756
1084.775396	694.2000122
1085.337517	691.2000122
1085.899581	689.2000122
1086.461587	689.0
1087.023536	690.0
1087.585428	691.2000122
1088.147262	695.2000122
1088.709039	693.0
1089.270758	690.4000244
1089.83242	693.4000244
1090.394024	691.2000122
1090.955571	693.4000244
1091.517061	693.5999756
1092.078493	693.0
1092.639868	689.0
1093.201185	691.4000244
1093.762445	690.2000122
1094.323648	692.5999756
1094.884793	690.4000244
1095.445881	693.2000122
1096.006911	692.2000122
1096.567884	686.7999878
1097.1288	698.5999756
1097.689659	690.0
1098.25046	689.0
1098.811203	690.7999878
1099.37189	690.0
1099.932518	689.5999756
1100.49309	689.5999756
1101.053604	687.5999756
1101.614061	690.5999756
1102.174461	689.4000244
1102.734803	688.4000244
1103.295088	694.5999756
1103.855316	692.5999756
1104.415486	690.5999756
1104.975599	690.2000122
1105.535655	692.4000244
1106.095653	693.5999756
1106.655594	693.7999878
1107.215478	693.4000244
1107.775305	692.0
1108.335074	691.2000122
1108.894786	694.2000122
1109.45444	697.2000122
1110.014038	693.4000244
1110.573578	695.7999878
1111.133061	693.7999878
1111.692486	698.0
1112.251854	700.0
1112.811165	696.4000244
1113.370419	696.2000122
1113.929616	696.7999878
1114.488755	694.0
1115.047837	694.4000244
1115.606862	694.4000244
1116.16583	695.2000122
1116.72474	692.5999756
1117.283593	691.0
1117.842389	692.0
1118.401128	693.0
1118.959809	692.0
1119.518433	694.5999756
1120.077	689.5999756
1120.63551	693.4000244
1121.193963	689.2000122
1121.752358	690.2000122
1122.310697	687.5999756
1122.868978	690.0
1123.427202	695.5999756
1123.985368	687.7999878
1124.543478	689.0
1125.10153	691.5999756
1125.659526	689.2000122
1126.217464	687.2000122
1126.775345	690.0
1127.333168	684.7999878
1127.890935	689.0
1128.448644	689.0
1129.006297	688.0
1129.563892	688.4000244
1130.12143	690.0
1130.678911	688.2000122
1131.236335	689.7999878
1131.793701	690.4000244
1132.351011	687.2000122
1132.908263	689.5999756
1133.465458	688.5999756
1134.022597	688.4000244
1134.579678	687.5999756
1135.136702	687.2000122
1135.693669	688.0
1136.250578	686.5999756
1136.807431	687.7999878
1137.364227	685.4000244
1137.920965	684.2000122
1138.477647	686.5999756
1139.034271	689.7999878
1139.590839	683.5999756
1140.147349	687.5999756
1140.703802	688.2000122
1141.260198	689.7999878
1141.816537	687.2000122
1142.37282	685.4000244
1142.929045	688.4000244
1143.485213	686.5999756
1144.041323	688.2000122
1144.597377	688.0
1145.153374	688.4000244
1145.709314	687.7999878
1146.265197	690.0
1146.821023	687.4000244
1147.376792	690.2000122
1147.932503	689.5999756
1148.488158	688.5999756
1149.043756	682.7999878
1149.599297	686.7999878
1150.154781	687.2000122
1150.710207	691.0
1151.265577	689.2000122
1151.82089	689.5999756
1152.376146	684.0
1152.931345	688.4000244
1153.486487	687.2000122
1154.041572	689.0
1154.5966	688.4000244
1155.151571	690.0
1155.706485	689.0
1156.261342	687.5999756
1156.816142	687.2000122
1157.370885	689.4000244
1157.925572	689.0
1158.480201	689.4000244
1159.034774	688.0
1159.589289	691.2000122
1160.143748	689.7999878
1160.698149	691.5999756
1161.252494	686.4000244
1161.806782	686.7999878
1162.361013	690.0
1162.915187	687.4000244
1163.469304	685.0
1164.023364	688.5999756
1164.577368	689.7999878
1165.131314	687.0
1165.685204	686.0
1166.239036	692.0
1166.792812	688.4000244
1167.346531	689.2000122
1167.900193	688.2000122
1168.453798	686.2000122
1169.007347	682.4000244
1169.560838	687.0
1170.114273	689.5999756
1170.66765	692.5999756
1171.220971	685.4000244
1171.774235	685.0
1172.327443	685.7999878
1172.880593	685.0
1173.433687	686.5999756
1173.986723	688.5999756
1174.539703	687.4000244
1175.092626	689.5999756
1175.645493	687.5999756
1176.198302	688.2000122
1176.751055	689.5999756
1177.303751	692.5999756
1177.85639	683.0
1178.408972	689.4000244
1178.961498	691.5999756
1179.513966	691.7999878
1180.066378	693.2000122
1180.618733	689.2000122
1181.171032	690.7999878
1181.723273	691.0
1182.275458	694.4000244
1182.827586	690.4000244
1183.379657	696.4000244
1183.931672	691.5999756
1184.48363	689.2000122
1185.035531	697.2000122
1185.587375	693.7999878
1186.139162	696.0
1186.690893	692.7999878
1187.242567	695.2000122
1187.794184	692.2000122
1188.345745	690.7999878
1188.897249	693.7999878
1189.448696	691.4000244
1190.000086	695.5999756
1190.55142	690.0
1191.102697	693.0
1191.653918	691.2000122
1192.205081	687.5999756
1192.756188	690.4000244
1193.307238	708.0
1193.858232	687.7999878
1194.409169	687.4000244
1194.960049	689.2000122
1195.510872	693.5999756
1196.061639	687.7999878
1196.612349	689.2000122
1197.163003	686.7999878
1197.713599	690.7999878
1198.264139	687.2000122
1198.814623	688.4000244
1199.36505	689.2000122
1199.91542	685.2000122
1200.465734	689.7999878
1201.01599	684.7999878
1201.566191	686.4000244
1202.116334	685.5999756
1202.666421	686.5999756
1203.216452	685.4000244
1203.766425	685.5999756
1204.316343	688.2000122
1204.866203	689.4000244
1205.416007	686.7999878
1205.965754	688.4000244
1206.515445	686.5999756
1207.065079	691.4000244
1207.614657	686.4000244
1208.164177	685.5999756
1208.713642	690.2000122
1209.26305	685.0
1209.812401	689.7999878
1210.361695	687.2000122
1210.910933	688.7999878
1211.460115	689.2000122
1212.00924	691.2000122
1212.558308	688.2000122
1213.10732	690.2000122
1213.656275	689.7999878
1214.205174	688.2000122
1214.754016	690.0
1215.302801	689.0
1215.85153	691.7999878
1216.400203	686.5999756
1216.948819	687.2000122
1217.497378	690.0
1218.045881	687.5999756
1218.594327	689.4000244
1219.142717	686.7999878
1219.691051	691.5999756
1220.239327	688.2000122
1220.787548	690.2000122
1221.335712	691.7999878
1221.883819	687.7999878
1222.43187	693.2000122
1222.979864	695.4000244
1223.527802	691.5999756
1224.075683	689.5999756
1224.623508	690.5999756
1225.171277	689.4000244
1225.718989	690.4000244
1226.266644	690.5999756
1226.814243	691.7999878
1227.361786	694.2000122
1227.909272	695.4000244
1228.456702	688.5999756
1229.004075	692.5999756
1229.551392	693.7999878
1230.098652	695.5999756
1230.645856	692.5999756
1231.193003	690.4000244
1231.740094	696.2000122
1232.287129	692.7999878
1232.834107	693.5999756
1233.381029	691.5999756
1233.927894	691.7999878
1234.474703	689.2000122
1235.021455	691.4000244
1235.568151	690.4000244
1236.114791	690.5999756
1236.661374	691.0
1237.207901	691.0
1237.754372	692.5999756
1238.300786	693.7999878
1238.847144	692.2000122
1239.393445	694.0
1239.93969	689.0
1240.485879	688.7999878
1241.032011	693.7999878
1241.578087	690.2000122
1242.124106	693.7999878
1242.67007	692.5999756
1243.215976	689.7999878
1243.761827	690.5999756
1244.307621	691.2000122
1244.853359	691.0
1245.39904	688.4000244
1245.944665	692.5999756
1246.490234	689.0
1247.035746	692.5999756
1247.581203	689.2000122
1248.126602	693.2000122
1248.671946	694.7999878
1249.217233	692.2000122
1249.762464	691.7999878
1250.307638	692.5999756
1250.852757	695.4000244
1251.397819	691.5999756
1251.942824	695.4000244
1252.487774	691.5999756
1253.032667	690.0
1253.577503	692.5999756
1254.122284	685.4000244
1254.667008	692.7999878
1255.211676	690.7999878
1255.756288	688.2000122
1256.300843	692.2000122
1256.845342	687.0
1257.389785	691.7999878
1257.934172	690.2000122
1258.478502	689.5999756
1259.022776	692.7999878
1259.566994	690.7999878
1260.111156	711.2000122
1260.655261	698.0
1261.199311	690.2000122
1261.743304	693.0
1262.28724	692.7999878
1262.831121	694.5999756
1263.374945	696.4000244
1263.918713	693.4000244
1264.462425	696.4000244
1265.006081	697.7999878
1265.54968	693.0
1266.093223	691.7999878
1266.636711	689.2000122
1267.180141	690.2000122
1267.723516	690.2000122
1268.266835	691.7999878
1268.810097	692.0
1269.353303	688.4000244
1269.896453	690.4000244
1270.439547	688.5999756
1270.982584	690.4000244
1271.525566	687.2000122
1272.068491	691.5999756
1272.61136	689.7999878
1273.154173	694.0
1273.69693	690.4000244
1274.239631	691.0
1274.782275	688.4000244
1275.324864	689.0
1275.867396	689.0
1276.409872	692.5999756
1276.952292	684.7999878
1277.494656	689.0
1278.036964	687.5999756
1278.579215	688.7999878
1279.121411	688.5999756
1279.66355	689.4000244
1280.205634	690.0
1280.747661	690.2000122
1281.289632	694.0
1281.831547	702.0
1282.373406	708.5999756
1282.915209	729.0
1283.456955	755.7999878
1283.998646	775.7999878
1284.540281	765.4000244
1285.081859	744.5999756
1285.623381	712.7999878
1286.164848	702.5999756
1286.706258	692.4000244
1287.247612	691.2000122
1287.788911	692.2000122
1288.330153	694.0
1288.871339	690.2000122
1289.412469	695.2000122
1289.953543	695.0
1290.494561	690.7999878
1291.035523	692.0
1291.576428	692.7999878
1292.117278	690.0
1292.658072	688.5999756
1293.19881	693.7999878
1293.739492	688.0
1294.280118	692.2000122
1294.820687	692.7999878
1295.361201	693.4000244
1295.901659	692.7999878
1296.442061	691.2000122
1296.982406	688.0
1297.522696	691.4000244
1298.06293	690.5999756
1298.603108	692.7999878
1299.143229	689.7999878
1299.683295	693.0
1300.223305	688.5999756
1300.763259	694.2000122
1301.303157	688.7999878
1301.842999	692.2000122
1302.382785	693.5999756
1302.922515	691.0
1303.462189	690.0
1304.001807	690.7999878
1304.541369	689.4000244
1305.080875	692.0
1305.620326	687.0
1306.15972	689.5999756
1306.699058	690.7999878
1307.238341	688.0
1307.777567	688.2000122
1308.316738	689.0
1308.855853	686.0
1309.394912	688.4000244
1309.933915	690.5999756
1310.472862	688.5999756
1311.011753	688.5999756
1311.550588	685.7999878
1312.089367	690.4000244
1312.62809	689.4000244
1313.166758	687.7999878
1313.70537	690.5999756
1314.243925	690.4000244
1314.782425	686.4000244
1315.320869	688.4000244
1315.859257	691.4000244
1316.397589	694.7999878
1316.935866	689.4000244
1317.474086	689.0
1318.012251	691.0
1318.55036	688.2000122
1319.088413	687.5999756
1319.62641	686.0
1320.164351	683.0
1320.702236	683.2000122
1321.240066	687.7999878
1321.777839	687.0
1322.315557	688.4000244
1322.853219	689.2000122
1323.390826	687.4000244
1323.928376	689.5999756
1324.465871	686.0
1325.003309	689.7999878
1325.540692	690.4000244
1326.07802	692.0
1326.615291	687.2000122
1327.152506	686.5999756
1327.689666	688.2000122
1328.22677	684.7999878
1328.763818	686.7999878
1329.300811	689.5999756
1329.837747	688.5999756
1330.374628	689.4000244
1330.911453	685.2000122
1331.448222	686.5999756
1331.984936	689.5999756
1332.521594	688.0
1333.058196	686.5999756
1333.594742	685.7999878
1334.131232	684.5999756
1334.667667	687.5999756
1335.204046	689.5999756
1335.740369	684.7999878
1336.276637	685.5999756
1336.812848	685.7999878
1337.349004	686.2000122
1337.885105	690.0
1338.421149	686.2000122
1338.957138	684.7999878
1339.493071	682.7999878
1340.028949	690.0
1340.56477	689.4000244
1341.100536	692.5999756
1341.636246	690.2000122
1342.171901	686.7999878
1342.7075	686.7999878
1343.243043	688.0
1343.77853	687.0
1344.313962	687.2000122
1344.849338	685.4000244
1345.384659	686.5999756
1345.919923	686.2000122
1346.455133	686.2000122
1346.990286	690.0
1347.525384	687.4000244
1348.060426	682.5999756
1348.595412	686.2000122
1349.130343	686.2000122
1349.665218	688.2000122
1350.200037	687.0
1350.734801	682.4000244
1351.269509	687.0
1351.804162	688.5999756
1352.338758	687.4000244
1352.8733	684.0
1353.407785	687.7999878
1353.942215	685.7999878
1354.476589	683.5999756
1355.010908	688.4000244
1355.545171	689.5999756
1356.079379	686.7999878
1356.61353	686.5999756
1357.147627	689.0
1357.681667	687.4000244
1358.215652	687.2000122
1358.749582	685.2000122
1359.283456	686.7999878
1359.817274	688.7999878
1360.351037	686.4000244
1360.884744	689.5999756
1361.418395	686.7999878
1361.951991	688.0
1362.485531	689.2000122
1363.019016	685.4000244
1363.552445	687.5999756
1364.085819	689.4000244
1364.619137	685.5999756
1365.1524	687.0
1365.685607	690.4000244
1366.218758	687.5999756
1366.751854	687.0
1367.284894	686.4000244
1367.817879	688.5999756
1368.350808	690.7999878
1368.883682	687.0
1369.4165	691.4000244
1369.949263	690.7999878
1370.48197	688.5999756
1371.014622	687.2000122
1371.547218	687.4000244
1372.079758	685.0
1372.612244	690.0
1373.144673	689.4000244
1373.677047	687.5999756
1374.209366	689.2000122
1374.741629	692.5999756
1375.273836	689.7999878
1375.805989	688.2000122
1376.338085	683.2000122
1376.870126	688.7999878
1377.402112	688.2000122
1377.934042	685.7999878
1378.465917	688.7999878
1378.997736	688.5999756
1379.5295	691.0
1380.061208	689.2000122
1380.592861	690.2000122
1381.124459	691.0
1381.656	687.4000244
1382.187487	690.2000122
1382.718918	687.7999878
1383.250294	692.4000244
1383.781614	693.4000244
1384.312879	691.4000244
1384.844088	697.2000122
1385.375242	694.7999878
1385.90634	703.2000122
1386.437383	711.2000122
1386.968371	741.7999878
1387.499303	800.2000122
1388.03018	871.0
1388.561001	834.7999878
1389.091767	758.7999878
1389.622478	716.2000122
1390.153133	701.2000122
1390.683733	694.4000244
1391.214277	691.4000244
1391.744766	691.0
1392.2752	688.7999878
1392.805578	691.0
1393.335901	689.4000244
1393.866168	688.2000122
1394.396381	690.0
1394.926537	686.0
1395.456639	688.2000122
1395.986685	688.2000122
1396.516675	689.5999756
1397.046611	688.0
1397.576491	687.7999878
1398.106315	690.5999756
1398.636084	686.2000122
1399.165798	687.2000122
1399.695457	688.4000244
1400.22506	688.0
1400.754608	690.0
1401.284101	688.0
1401.813538	688.2000122
1402.34292	689.0
1402.872247	687.2000122
1403.401518	684.0
1403.930734	688.5999756
1404.459895	687.4000244
1404.989	689.5999756
1405.51805	688.5999756
1406.047045	687.7999878
1406.575984	689.4000244
1407.104869	690.2000122
1407.633697	691.4000244
1408.162471	693.7999878
1408.691189	693.7999878
1409.219852	695.7999878
1409.74846	695.0
1410.277013	694.7999878
1410.80551	691.2000122
1411.333952	688.4000244
1411.862339	691.2000122
1412.39067	685.7999878
1412.918946	687.7999878
1413.447167	687.4000244
1413.975333	689.4000244
1414.503444	687.7999878
1415.031499	686.0
1415.559499	699.2000122
1416.087444	687.7999878
1416.615333	687.4000244
1417.143167	688.2000122
1417.670947	686.4000244
1418.19867	687.4000244
1418.726339	688.7999878
1419.253952	687.0
1419.781511	690.0
1420.309014	689.2000122
1420.836461	689.7999878
1421.363854	685.0
1421.891191	688.5999756
1422.418474	688.0
1422.945701	686.4000244
1423.472872	686.0
1423.999989	685.5999756
1424.52705	687.4000244
1425.054057	688.2000122
1425.581008	687.7999878
1426.107904	688.0
1426.634745	689.0
1427.16153	686.4000244
1427.688261	688.0
1428.214936	685.5999756
1428.741556	686.5999756
1429.268121	685.4000244
1429.794631	685.2000122
1430.321085	688.4000244
1430.847485	685.5999756
1431.373829	689.2000122
1431.900118	686.2000122
1432.426353	690.5999756
1432.952532	684.2000122
1433.478655	686.7999878
1434.004724	687.7999878
1434.530738	686.0
1435.056696	684.7999878
1435.5826	688.4000244
1436.108448	688.2000122
1436.634241	688.7999878
1437.159979	688.5999756
1437.685662	685.7999878
1438.21129	687.4000244
1438.736863	687.4000244
1439.262381	690.4000244
1439.787843	689.7999878
1440.313251	687.0
1440.838603	689.4000244
1441.3639	689.5999756
1441.889143	688.2000122
1442.41433	689.0
1442.939462	689.4000244
1443.464539	690.5999756
1443.989561	689.2000122
1444.514528	689.2000122
1445.03944	691.5999756
1445.564297	691.4000244
1446.089099	688.5999756
1446.613846	693.2000122
1447.138537	684.5999756
1447.663174	692.7999878
1448.187756	693.2000122
1448.712282	691.2000122
1449.236754	687.7999878
1449.761171	687.2000122
1450.285532	690.7999878
1450.809839	689.4000244
1451.33409	690.4000244
1451.858287	689.4000244
1452.382428	688.2000122
1452.906515	687.4000244
1453.430546	690.5999756
1453.954523	686.5999756
1454.478444	690.5999756
1455.002311	686.0
1455.526123	688.4000244
1456.049879	691.7999878
1456.573581	690.2000122
1457.097227	688.2000122
1457.620819	693.4000244
1458.144356	689.7999878
1458.667837	690.7999878
1459.191264	693.4000244
1459.714636	689.0
1460.237952	688.0
1460.761214	689.7999878
1461.284421	692.0
1461.807573	693.5999756
1462.33067	692.2000122
1462.853712	708.2000122
1463.376699	725.7999878
1463.899632	697.7999878
1464.422509	690.4000244
1464.945331	690.0
1465.468099	691.0
1465.990811	689.7999878
1466.513469	685.2000122
1467.036071	689.0
1467.558619	691.2000122
1468.081112	685.4000244
1468.60355	689.2000122
1469.125933	689.2000122
1469.648261	689.4000244
1470.170534	692.0
1470.692752	687.0
1471.214916	693.2000122
1471.737024	689.4000244
1472.259078	693.2000122
1472.781077	691.0
1473.303021	687.7999878
1473.82491	688.7999878
1474.346744	690.5999756
1474.868523	689.4000244
1475.390248	689.2000122
1475.911917	689.5999756
1476.433532	688.2000122
1476.955092	688.7999878
1477.476597	689.7999878
1477.998047	688.2000122
1478.519442	685.0
1479.040783	689.5999756
1479.562068	688.2000122
1480.083299	689.7999878
1480.604475	686.4000244
1481.125596	686.0
1481.646663	689.5999756
1482.167674	685.0
1482.688631	684.7999878
1483.209533	687.0
1483.73038	690.5999756
1484.251172	685.4000244
1484.771909	689.0
1485.292592	685.5999756
1485.81322	688.0
1486.333793	685.5999756
1486.854311	685.5999756
1487.374775	686.0
1487.895183	686.0
1488.415537	685.4000244
1488.935836	683.7999878
1489.456081	684.2000122
1489.97627	682.4000244
1490.496405	686.7999878
1491.016485	685.4000244
1491.536511	685.4000244
1492.056481	688.2000122
1492.576397	686.0
1493.096258	688.5999756
1493.616064	683.7999878
1494.135816	686.5999756
1494.655513	685.7999878
1495.175155	685.4000244
1495.694742	686.5999756
1496.214274	682.2000122
1496.733752	685.0
1497.253175	687.5999756
1497.772544	682.7999878
1498.291858	687.4000244
1498.811116	685.5999756
1499.330321	683.0
1499.84947	695.4000244
1500.368565	683.7999878
1500.887605	681.5999756
1501.406591	685.4000244
1501.925521	686.4000244
1502.444397	682.4000244
1502.963219	684.4000244
1503.481985	685.7999878
1504.000697	684.4000244
1504.519355	685.7999878
1505.037957	680.4000244
1505.556505	685.7999878
1506.074999	688.5999756
1506.593437	683.4000244
1507.111821	687.7999878
1507.63015	686.2000122
1508.148425	680.7999878
1508.666645	685.5999756
1509.18481	684.7999878
1509.702921	685.2000122
1510.220977	682.5999756
1510.738979	695.7999878
1511.256925	685.4000244
1511.774817	682.5999756
1512.292655	688.0
1512.810438	684.4000244
1513.328166	687.4000244
1513.84584	686.0
1514.363459	684.7999878
1514.881023	684.0
1515.398533	687.0
1515.915988	683.2000122
1516.433389	686.7999878
1516.950734	684.7999878
1517.468026	688.0
1517.985263	687.0
1518.502445	687.4000244
1519.019572	684.0
1519.536645	684.2000122
1520.053664	686.4000244
1520.570628	684.0
1521.087537	683.2000122
1521.604392	683.4000244
1522.121192	685.0
1522.637937	685.4000244
1523.154628	688.7999878
1523.671265	684.5999756
1524.187847	684.7999878
1524.704374	685.2000122
1525.220847	687.2000122
1525.737265	693.4000244
1526.769938	696.4000244
1527.286192	687.0
1527.802392	682.0
1528.318538	684.0
1528.834629	683.5999756
1529.350666	686.5999756
1529.866648	685.2000122
1530.382575	682.5999756
1530.898448	685.5999756
1531.414266	684.2000122
1531.93003	685.0
1532.44574	686.2000122
1532.961395	686.7999878
1533.476995	688.2000122
1533.992541	683.2000122
1534.508033	685.2000122
1535.02347	686.0
1535.538852	682.5999756
1536.05418	687.7999878
1536.569454	687.5999756
1537.084673	686.4000244
1537.599837	683.7999878
1538.114947	686.4000244
1538.630003	683.0
1539.145004	684.7999878
1539.659951	687.4000244
1540.174843	685.0
1540.689681	687.0
1541.204465	683.7999878
1541.719194	681.7999878
1542.233868	685.2000122
1542.748488	688.0
1543.263054	686.7999878
1543.777565	687.5999756
1544.292022	685.7999878
1544.806424	687.5999756
1545.320772	687.7999878
1545.835066	688.7999878
1546.349305	685.0
1546.863489	686.2000122
1547.37762	683.4000244
1547.891696	687.7999878
1548.405717	688.5999756
1548.919684	686.2000122
1549.433597	685.0
1549.947455	686.0
1550.461259	688.0
1550.975009	687.2000122
1551.488704	687.7999878
1552.002345	686.0
1552.515931	687.4000244
1553.029463	691.0
1553.542941	690.5999756
1554.056364	683.7999878
1554.569733	690.0
1555.083048	685.0
1555.596308	686.5999756
1556.109514	686.5999756
1556.622665	687.4000244
1557.135762	688.7999878
1557.648805	683.4000244
1558.161794	686.5999756
1558.674728	690.5999756
1559.187608	689.2000122
1559.700433	686.4000244
1560.213205	688.0
1560.725921	688.5999756
1561.238584	686.2000122
1561.751192	687.5999756
1562.263746	691.0
1562.776246	689.0
1563.288691	687.0
1563.801082	690.5999756
1564.313419	689.4000244
1564.825701	686.4000244
1565.337929	690.0
1565.850103	689.5999756
1566.362223	689.4000244
1566.874288	689.5999756
1567.386299	691.5999756
1567.898256	692.5999756
1568.410158	689.0
1568.922007	692.0
1569.4338	689.5999756
1569.94554	685.4000244
1570.457226	690.5999756
1570.968857	688.5999756
1571.480434	686.2000122
1571.991956	686.4000244
1572.503425	685.2000122
1573.014839	685.7999878
1573.526199	685.0
1574.037505	689.5999756
1574.548756	688.7999878
1575.059953	687.4000244
1575.571096	690.2000122
1576.082185	689.7999878
1576.59322	690.2000122
1577.1042	689.2000122
1577.615126	689.2000122
1578.125998	687.4000244
1578.636816	685.2000122
1579.14758	691.7999878
1579.658289	689.0
1580.168944	684.7999878
1580.679545	687.4000244
1581.190092	691.7999878
1581.700585	689.4000244
1582.211023	691.2000122
1582.721407	686.2000122
1583.231737	687.4000244
1583.742013	688.2000122
1584.252235	690.5999756
1584.762403	688.7999878
1585.272516	686.5999756
1585.782575	686.7999878
1586.292581	689.2000122
1586.802532	688.0
1587.312428	689.0
1587.822271	686.7999878
1588.33206	685.4000244
1588.841794	686.4000244
1589.351474	686.2000122
1589.8611	688.0
1590.370672	688.7999878
1590.88019	687.5999756
1591.389654	686.2000122
1591.899064	692.7999878
1592.408419	686.0
