1042.452273	680.7999878
1043.018714	679.7999878
1043.585098	679.7999878
1044.151424	680.5999756
1044.717692	678.5999756
1045.283903	675.4000244
1045.850056	676.7999878
1046.416151	675.0
1046.982188	676.5999756
1047.548167	673.5999756
1048.114089	673.0
1048.679953	673.7999878
1049.24576	673.2000122
1049.811509	674.0
1050.3772	673.7999878
1050.942833	675.2000122
1051.508408	671.4000244
1052.073926	668.4000244
1052.639387	671.5999756
1053.204789	670.7999878
1053.770134	668.5999756
1054.335421	667.7999878
1054.900651	669.2000122
1055.465823	672.0
1056.030937	666.4000244
1056.595993	668.2000122
1057.160992	670.2000122
1057.725934	669.2000122
1058.290817	667.4000244
1058.855643	671.4000244
1059.420411	669.7999878
1059.985122	668.4000244
1060.549775	666.0
1061.114371	668.2000122
1061.678908	667.4000244
1062.243389	668.4000244
1062.807811	666.5999756
1063.372176	669.7999878
1063.936483	667.4000244
1064.500733	668.4000244
1065.064925	667.5999756
1065.62906	668.7999878
1066.193137	667.2000122
1066.757156	666.0
1067.321118	667.0
1067.885022	666.7999878
1068.448869	669.4000244
1069.012658	666.4000244
1069.57639	669.4000244
1070.140063	675.4000244
1070.70368	667.2000122
1071.267239	667.7999878
1071.83074	667.4000244
1072.394184	670.7999878
1072.95757	668.5999756
1073.520899	666.4000244
1074.08417	668.4000244
1074.647383	666.4000244
1075.21054	669.4000244
1075.773638	666.0
1076.336679	670.2000122
1076.899663	668.7999878
1077.462589	667.7999878
1078.025457	668.5999756
1078.588268	670.4000244
1079.151022	665.0
1079.713718	667.7999878
1080.276356	670.7999878
1080.838937	668.2000122
1081.401461	667.0
1081.963927	667.0
1082.526336	673.2000122
1083.088687	668.4000244
1083.650981	673.4000244
1084.213217	669.7999878
1084.775396	671.2000122
1085.337517	675.7999878
1085.899581	670.4000244
1086.461587	669.2000122
1087.023536	673.2000122
1087.585428	672.2000122
1088.147262	671.5999756
1088.709039	672.2000122
1089.270758	674.2000122
1089.83242	673.5999756
1090.394024	675.4000244
1090.955571	678.5999756
1091.517061	673.4000244
1092.078493	679.4000244
1092.639868	679.5999756
1093.201185	675.7999878
1093.762445	675.0
1094.323648	675.7999878
1094.884793	675.7999878
1095.445881	675.7999878
1096.006911	674.5999756
1096.567884	675.7999878
1097.1288	682.4000244
1097.689659	671.0
1098.25046	673.4000244
1098.811203	670.5999756
1099.37189	669.4000244
1099.932518	672.5999756
1100.49309	668.7999878
1101.053604	671.2000122
1101.614061	670.5999756
1102.174461	672.5999756
1102.734803	669.4000244
1103.295088	670.4000244
1103.855316	667.2000122
1104.415486	667.5999756
1104.975599	666.0
1105.535655	670.7999878
1106.095653	667.4000244
1106.655594	666.5999756
1107.215478	668.5999756
1107.775305	665.4000244
1108.335074	667.5999756
1108.894786	668.0
1109.45444	667.0
1110.014038	669.0
1110.573578	663.5999756
1111.133061	665.0
1111.692486	667.4000244
1112.251854	668.0
1112.811165	668.4000244
1113.370419	665.7999878
1113.929616	665.5999756
1114.488755	665.5999756
1115.047837	665.0
1115.606862	665.2000122
1116.16583	668.0
1116.72474	666.0
1117.283593	668.7999878
1117.842389	663.0
1118.401128	667.5999756
1118.959809	664.7999878
1119.518433	665.7999878
1120.077	666.5999756
1120.63551	664.7999878
1121.193963	664.5999756
1121.752358	664.0
1122.310697	663.2000122
1122.868978	663.2000122
1123.427202	665.4000244
1123.985368	665.0
1124.543478	665.0
1125.10153	665.5999756
1125.659526	666.4000244
1126.217464	664.0
1126.775345	662.7999878
1127.333168	664.0
1127.890935	664.7999878
1128.448644	666.7999878
1129.006297	664.7999878
1129.563892	664.5999756
1130.12143	666.2000122
1130.678911	664.4000244
1131.236335	666.4000244
1131.793701	667.0
1132.351011	663.4000244
1132.908263	664.5999756
1133.465458	663.0
1134.022597	662.5999756
1134.579678	664.0
1135.136702	662.7999878
1135.693669	667.0
1136.250578	663.5999756
1136.807431	663.0
1137.364227	666.4000244
1137.920965	665.7999878
1138.477647	662.0
1139.034271	663.4000244
1139.590839	661.5999756
1140.147349	665.0
1140.703802	665.4000244
1141.260198	664.2000122
1141.816537	664.5999756
1142.37282	665.0
1142.929045	664.0
1143.485213	664.7999878
1144.041323	665.7999878
1144.597377	666.7999878
1145.153374	663.7999878
1145.709314	666.4000244
1146.265197	664.4000244
1146.821023	666.0
1147.376792	664.2000122
1147.932503	664.4000244
1148.488158	664.2000122
1149.043756	665.5999756
1149.599297	665.2000122
1150.154781	667.5999756
1150.710207	664.4000244
1151.265577	663.2000122
1151.82089	664.2000122
1152.376146	664.5999756
1152.931345	667.2000122
1153.486487	664.7999878
1154.041572	662.5999756
1154.5966	666.4000244
1155.151571	662.5999756
1155.706485	663.5999756
1156.261342	664.0
1156.816142	665.4000244
1157.370885	664.4000244
1157.925572	663.2000122
1158.480201	661.7999878
1159.034774	666.7999878
1159.589289	664.0
1160.143748	664.7999878
1160.698149	664.2000122
1161.252494	665.0
1161.806782	662.0
1162.361013	664.4000244
1162.915187	665.2000122
1163.469304	661.7999878
1164.023364	664.0
1164.577368	664.7999878
1165.131314	663.5999756
1165.685204	665.2000122
1166.239036	663.0
1166.792812	662.7999878
1167.346531	664.5999756
1167.900193	662.4000244
1168.453798	664.7999878
1169.007347	663.0
1169.560838	666.0
1170.114273	666.2000122
1170.66765	661.4000244
1171.220971	663.7999878
1171.774235	662.4000244
1172.327443	663.5999756
1172.880593	661.7999878
1173.433687	662.5999756
1173.986723	665.2000122
1174.539703	664.4000244
1175.092626	660.4000244
1175.645493	664.0
1176.198302	662.0
1176.751055	661.5999756
1177.303751	663.0
1177.85639	664.2000122
1178.408972	664.4000244
1178.961498	665.7999878
1179.513966	662.7999878
1180.066378	663.2000122
1180.618733	662.5999756
1181.171032	664.0
1181.723273	664.2000122
1182.275458	665.5999756
1182.827586	662.4000244
1183.379657	662.5999756
1183.931672	663.4000244
1184.48363	663.7999878
1185.035531	663.5999756
1185.587375	666.4000244
1186.139162	663.7999878
1186.690893	662.7999878
1187.242567	663.5999756
1187.794184	664.4000244
1188.345745	664.7999878
1188.897249	664.5999756
1189.448696	662.7999878
1190.000086	664.2000122
1190.55142	663.5999756
1191.102697	663.5999756
1191.653918	664.4000244
1192.205081	662.7999878
1192.756188	664.0
1193.307238	688.7999878
1193.858232	665.4000244
1194.409169	662.0
1194.960049	664.5999756
1195.510872	665.2000122
1196.061639	663.2000122
1196.612349	662.2000122
1197.163003	664.5999756
1197.713599	665.7999878
1198.264139	665.5999756
1198.814623	663.7999878
1199.36505	665.4000244
1199.91542	664.2000122
1200.465734	662.2000122
1201.01599	663.2000122
1201.566191	664.0
1202.116334	663.2000122
1202.666421	666.0
1203.216452	665.5999756
1203.766425	665.0
1204.316343	665.0
1204.866203	663.4000244
1205.416007	667.2000122
1205.965754	663.2000122
1206.515445	664.0
1207.065079	666.7999878
1207.614657	664.0
1208.164177	666.7999878
1208.713642	663.2000122
1209.26305	664.0
1209.812401	666.0
1210.361695	664.7999878
1210.910933	665.5999756
1211.460115	663.7999878
1212.00924	664.4000244
1212.558308	663.4000244
1213.10732	666.0
1213.656275	664.5999756
1214.205174	663.5999756
1214.754016	666.0
1215.302801	664.2000122
1215.85153	664.7999878
1216.400203	662.5999756
1216.948819	661.5999756
1217.497378	663.4000244
1218.045881	664.5999756
1218.594327	664.7999878
1219.142717	662.2000122
1219.691051	664.0
1220.239327	663.5999756
1220.787548	665.0
1221.335712	663.7999878
1221.883819	662.2000122
1222.43187	664.4000244
1222.979864	663.7999878
1223.527802	663.5999756
1224.075683	666.0
1224.623508	663.7999878
1225.171277	668.4000244
1225.718989	663.7999878
1226.266644	667.0
1226.814243	664.4000244
1227.361786	664.7999878
1227.909272	663.0
1228.456702	663.2000122
1229.004075	666.2000122
1229.551392	661.7999878
1230.098652	664.5999756
1230.645856	662.5999756
1231.193003	662.5999756
1231.740094	668.7999878
1232.287129	664.4000244
1232.834107	664.5999756
1233.381029	666.2000122
1233.927894	660.7999878
1234.474703	665.4000244
1235.021455	663.7999878
1235.568151	662.5999756
1236.114791	663.7999878
1236.661374	664.4000244
1237.207901	659.0
1237.754372	666.2000122
1238.300786	663.5999756
1238.847144	665.5999756
1239.393445	664.5999756
1239.93969	664.4000244
1240.485879	662.4000244
1241.032011	667.0
1241.578087	663.5999756
1242.124106	662.0
1242.67007	666.2000122
1243.215976	667.4000244
1243.761827	663.4000244
1244.307621	666.4000244
1244.853359	665.7999878
1245.39904	664.2000122
1245.944665	664.5999756
1246.490234	663.5999756
1247.035746	662.0
1247.581203	663.4000244
1248.126602	665.4000244
1248.671946	663.5999756
1249.217233	666.4000244
1249.762464	665.7999878
1250.307638	665.4000244
1250.852757	663.5999756
1251.397819	662.5999756
1251.942824	663.4000244
1252.487774	665.4000244
1253.032667	665.2000122
1253.577503	666.0
1254.122284	664.4000244
1254.667008	662.7999878
1255.211676	665.4000244
1255.756288	663.7999878
1256.300843	664.5999756
1256.845342	663.7999878
1257.389785	663.4000244
1257.934172	664.2000122
1258.478502	664.2000122
1259.022776	664.0
1259.566994	665.2000122
1260.655261	665.5999756
1261.199311	665.7999878
1261.743304	665.4000244
1262.28724	670.4000244
1262.831121	669.2000122
1263.374945	672.4000244
1263.918713	674.0
1264.462425	676.5999756
1265.006081	675.5999756
1265.54968	673.0
1266.093223	668.4000244
1266.636711	669.4000244
1267.180141	667.7999878
1267.723516	667.0
1268.266835	668.2000122
1268.810097	667.0
1269.353303	664.7999878
1269.896453	664.0
1270.439547	662.0
1270.982584	662.5999756
1271.525566	667.2000122
1272.068491	666.4000244
1272.61136	665.4000244
1273.154173	665.2000122
1273.69693	664.4000244
1274.239631	666.5999756
1274.782275	665.2000122
1275.324864	664.7999878
1275.867396	665.7999878
1276.409872	668.2000122
1276.952292	663.4000244
1277.494656	668.5999756
1278.036964	666.7999878
1278.579215	667.0
1279.121411	666.2000122
1279.66355	667.0
1280.205634	670.7999878
1280.747661	672.4000244
1281.289632	670.4000244
1281.831547	678.2000122
1282.373406	687.0
1282.915209	712.0
1283.456955	748.5999756
1283.998646	810.4000244
1284.540281	863.7999878
1285.081859	828.0
1285.623381	758.7999878
1286.164848	702.4000244
1286.706258	683.0
1287.247612	674.2000122
1287.788911	670.7999878
1288.330153	671.5999756
1288.871339	671.7999878
1289.412469	667.7999878
1289.953543	667.0
1290.494561	668.0
1291.035523	666.0
1291.576428	669.7999878
1292.117278	665.0
1292.658072	667.2000122
1293.19881	665.5999756
1293.739492	664.5999756
1294.280118	666.2000122
1294.820687	665.5999756
1295.361201	664.7999878
1295.901659	664.0
1296.442061	665.0
1296.982406	664.5999756
1297.522696	665.4000244
1298.06293	665.7999878
1298.603108	664.0
1299.143229	662.5999756
1299.683295	663.2000122
1300.223305	669.5999756
1300.763259	664.2000122
1301.303157	665.7999878
1301.842999	664.0
1302.382785	665.2000122
1302.922515	664.5999756
1303.462189	665.4000244
1304.001807	665.7999878
1304.541369	664.0
1305.080875	664.2000122
1305.620326	664.2000122
1306.15972	664.7999878
1306.699058	662.7999878
1307.238341	663.0
1307.777567	665.0
1308.316738	663.7999878
1308.855853	666.0
1309.394912	665.5999756
1309.933915	662.2000122
1310.472862	663.4000244
1311.011753	661.7999878
1311.550588	662.4000244
1312.089367	664.5999756
1312.62809	663.2000122
1313.166758	663.0
1313.70537	663.5999756
1314.243925	664.2000122
1314.782425	662.5999756
1315.320869	663.5999756
1315.859257	664.0
1316.397589	662.2000122
1316.935866	666.2000122
1317.474086	664.2000122
1318.012251	662.0
1318.55036	667.7999878
1319.088413	663.4000244
1319.62641	663.4000244
1320.164351	664.2000122
1320.702236	661.5999756
1321.240066	665.0
1321.777839	665.4000244
1322.315557	666.0
1322.853219	663.4000244
1323.390826	664.2000122
1323.928376	670.5999756
1324.465871	664.0
1325.003309	664.0
1325.540692	665.7999878
1326.07802	666.2000122
1326.615291	664.2000122
1327.152506	663.2000122
1327.689666	665.5999756
1328.22677	663.4000244
1328.763818	661.7999878
1329.300811	661.5999756
1329.837747	661.2000122
1330.374628	664.0
1330.911453	665.4000244
1331.448222	663.7999878
1331.984936	664.7999878
1332.521594	665.2000122
1333.058196	662.7999878
1333.594742	664.4000244
1334.131232	662.2000122
1334.667667	664.7999878
1335.204046	665.4000244
1335.740369	663.4000244
1336.276637	663.4000244
1336.812848	663.0
1337.349004	662.7999878
1337.885105	663.2000122
1338.421149	663.7999878
1338.957138	665.7999878
1339.493071	661.4000244
1340.028949	666.7999878
1340.56477	663.0
1341.100536	663.2000122
1341.636246	663.5999756
1342.171901	665.2000122
1342.7075	663.0
1343.243043	665.7999878
1343.77853	663.0
1344.313962	662.0
1344.849338	664.5999756
1345.384659	664.5999756
1345.919923	666.5999756
1346.455133	664.0
1346.990286	665.4000244
1347.525384	664.5999756
1348.060426	664.4000244
1348.595412	664.5999756
1349.130343	666.4000244
1349.665218	663.4000244
1350.200037	662.7999878
1350.734801	665.2000122
1351.269509	662.4000244
1351.804162	664.5999756
1352.338758	666.4000244
1352.8733	665.7999878
1353.407785	667.0
1353.942215	663.4000244
1354.476589	665.5999756
1355.010908	666.0
1355.545171	667.0
1356.079379	664.2000122
1356.61353	664.0
1357.147627	662.0
1357.681667	664.7999878
1358.215652	665.5999756
1358.749582	664.5999756
1359.283456	665.2000122
1359.817274	663.5999756
1360.351037	664.7999878
1360.884744	663.7999878
1361.418395	664.5999756
1361.951991	665.4000244
1362.485531	664.0
1363.019016	664.2000122
1363.552445	665.0
1364.085819	663.5999756
1364.619137	667.0
1365.1524	666.4000244
1365.685607	667.2000122
1366.218758	669.0
1366.751854	666.4000244
1367.284894	666.5999756
1367.817879	664.4000244
1368.350808	664.7999878
1368.883682	666.0
1369.4165	667.0
1369.949263	671.2000122
1370.48197	674.2000122
1371.014622	666.7999878
1371.547218	666.2000122
1372.079758	665.4000244
1372.612244	666.0
1373.144673	666.2000122
1373.677047	665.4000244
1374.209366	666.4000244
1374.741629	663.5999756
1375.273836	665.5999756
1375.805989	664.5999756
1376.338085	665.4000244
1376.870126	666.0
1377.402112	665.5999756
1377.934042	666.7999878
1378.465917	667.7999878
1378.997736	665.2000122
1379.5295	666.4000244
1380.061208	669.0
1380.592861	667.0
1381.124459	667.5999756
1381.656	667.7999878
1382.187487	669.4000244
1382.718918	666.4000244
1383.250294	667.7999878
1383.781614	671.5999756
1384.312879	674.2000122
1384.844088	678.7999878
1385.375242	679.2000122
1385.90634	685.7999878
1386.437383	698.0
1386.968371	735.2000122
1387.499303	820.4000244
1388.03018	993.0
1388.561001	1069.0
1389.091767	880.2000122
1389.622478	744.5999756
1390.153133	699.4000244
1390.683733	683.2000122
1391.214277	677.2000122
1391.744766	674.7999878
1392.2752	671.7999878
1392.805578	671.0
1393.335901	667.2000122
1393.866168	668.7999878
1394.396381	667.4000244
1394.926537	665.0
1395.456639	667.2000122
1395.986685	665.2000122
1396.516675	666.5999756
1397.046611	667.4000244
1397.576491	664.0
1398.106315	670.2000122
1398.636084	663.4000244
1399.165798	668.2000122
1399.695457	664.7999878
1400.22506	665.2000122
1400.754608	665.0
1401.284101	665.5999756
1401.813538	663.7999878
1402.34292	666.5999756
1402.872247	666.5999756
1403.401518	665.7999878
1403.930734	663.5999756
1404.459895	663.7999878
1404.989	666.0
1405.51805	664.0
1406.047045	667.2000122
1406.575984	665.5999756
1407.104869	667.2000122
1407.633697	672.2000122
1408.162471	673.4000244
1408.691189	678.5999756
1409.219852	682.7999878
1409.74846	686.5999756
1410.277013	686.4000244
1410.80551	678.4000244
1411.333952	673.7999878
1411.862339	670.4000244
1412.39067	668.5999756
1412.918946	668.7999878
1413.447167	664.0
1413.975333	663.7999878
1414.503444	665.5999756
1415.031499	666.5999756
1415.559499	674.7999878
1416.087444	664.7999878
1416.615333	667.4000244
1417.143167	664.7999878
1417.670947	662.2000122
1418.19867	664.5999756
1418.726339	665.2000122
1419.253952	663.2000122
1419.781511	662.0
1420.309014	662.7999878
1420.836461	665.7999878
1421.363854	665.5999756
1421.891191	663.2000122
1422.418474	664.2000122
1422.945701	664.2000122
1423.472872	664.2000122
1423.999989	661.0
1424.52705	664.0
1425.054057	666.0
1425.581008	664.7999878
1426.107904	664.2000122
1426.634745	663.7999878
1427.16153	662.5999756
1427.688261	663.5999756
1428.214936	661.7999878
1428.741556	665.4000244
1429.268121	663.5999756
1429.794631	665.0
1430.321085	663.0
1430.847485	663.0
1431.373829	664.7999878
1431.900118	663.4000244
1432.426353	663.0
1432.952532	663.2000122
1433.478655	664.0
1434.004724	664.0
1434.530738	665.5999756
1435.056696	665.5999756
1435.5826	661.7999878
1436.108448	662.2000122
1436.634241	661.5999756
1437.159979	663.5999756
1437.685662	664.7999878
1438.21129	663.4000244
1438.736863	664.5999756
1439.262381	663.5999756
1439.787843	665.7999878
1440.313251	663.7999878
1440.838603	663.4000244
1441.3639	662.4000244
1441.889143	665.2000122
1442.41433	664.4000244
1442.939462	660.4000244
1443.464539	663.0
1443.989561	664.5999756
1444.514528	662.7999878
1445.03944	663.5999756
1445.564297	664.4000244
1446.089099	662.5999756
1446.613846	662.5999756
1447.138537	663.4000244
1447.663174	663.5999756
1448.187756	666.2000122
1448.712282	666.2000122
1449.236754	664.2000122
1449.761171	664.0
1450.285532	663.5999756
1450.809839	662.4000244
1451.33409	662.4000244
1451.858287	662.7999878
1452.382428	662.7999878
1452.906515	662.2000122
1453.430546	661.7999878
1453.954523	662.0
1454.478444	660.5999756
1455.002311	664.4000244
1455.526123	664.0
1456.049879	661.7999878
1456.573581	663.7999878
1457.097227	661.0
1457.620819	662.7999878
1458.144356	664.7999878
1458.667837	661.0
1459.191264	663.7999878
1459.714636	657.7999878
1460.237952	661.7999878
1460.761214	662.4000244
1461.284421	664.2000122
1461.807573	663.0
1462.33067	662.7999878
1462.853712	674.4000244
1463.376699	687.5999756
1463.899632	669.5999756
1464.422509	663.0
1464.945331	663.7999878
1465.468099	663.5999756
1465.990811	664.0
1466.513469	661.5999756
1467.036071	662.4000244
1467.558619	664.2000122
1468.081112	663.4000244
1468.60355	662.4000244
1469.125933	662.4000244
1469.648261	664.2000122
1470.170534	666.5999756
1470.692752	661.2000122
1471.214916	664.7999878
1471.737024	662.7999878
1472.259078	659.5999756
1472.781077	665.0
1473.303021	662.4000244
1473.82491	663.0
1474.346744	663.7999878
1474.868523	664.4000244
1475.390248	659.7999878
1475.911917	661.7999878
1476.433532	660.2000122
1476.955092	661.5999756
1477.476597	660.4000244
1477.998047	664.2000122
1478.519442	663.5999756
1479.040783	663.7999878
1479.562068	663.2000122
1480.083299	663.4000244
1480.604475	661.7999878
1481.125596	663.5999756
1481.646663	662.4000244
1482.167674	663.0
1482.688631	664.0
1483.209533	661.5999756
1483.73038	662.4000244
1484.251172	659.4000244
1484.771909	662.0
1485.292592	664.2000122
1485.81322	661.2000122
1486.333793	661.0
1486.854311	662.4000244
1487.374775	661.0
1487.895183	659.7999878
1488.415537	663.4000244
1488.935836	662.4000244
1489.456081	660.7999878
1489.97627	660.5999756
1490.496405	664.4000244
1491.016485	662.4000244
1491.536511	661.4000244
1492.056481	662.4000244
1492.576397	660.5999756
1493.096258	662.0
1493.616064	663.4000244
1494.135816	661.7999878
1494.655513	661.7999878
1495.175155	658.7999878
1495.694742	661.7999878
1496.214274	662.2000122
1496.733752	662.0
1497.253175	661.0
1497.772544	664.5999756
1498.291858	661.5999756
1498.811116	660.5999756
1499.330321	664.2000122
1499.84947	668.7999878
1500.368565	662.5999756
1500.887605	663.4000244
1501.406591	665.0
1501.925521	661.0
1502.444397	661.7999878
1502.963219	663.4000244
1503.481985	660.5999756
1504.000697	660.7999878
1504.519355	660.4000244
1505.037957	663.7999878
1505.556505	662.2000122
1506.074999	661.2000122
1506.593437	662.7999878
1507.111821	660.7999878
1507.63015	662.0
1508.148425	661.7999878
1508.666645	662.5999756
1509.18481	664.4000244
1509.702921	662.0
1510.220977	658.0
1510.738979	672.0
1511.256925	661.0
1511.774817	661.7999878
1512.292655	662.7999878
1512.810438	662.0
1513.328166	661.2000122
1513.84584	663.0
1514.363459	660.7999878
1514.881023	662.5999756
1515.398533	661.0
1515.915988	659.4000244
1516.433389	663.4000244
1516.950734	658.7999878
1517.468026	661.7999878
1517.985263	662.4000244
1518.502445	662.2000122
1519.019572	661.7999878
1519.536645	661.7999878
1520.053664	660.5999756
1520.570628	663.0
1521.087537	661.4000244
1521.604392	661.4000244
1522.121192	658.5999756
1522.637937	659.4000244
1523.154628	663.0
1523.671265	660.2000122
1524.187847	661.0
1524.704374	661.7999878
1525.220847	662.0
1525.737265	668.0
1526.253629	679.0
1526.769938	670.0
1527.286192	664.7999878
1527.802392	659.2000122
1528.318538	659.4000244
1528.834629	661.7999878
1529.350666	660.7999878
1529.866648	662.5999756
1530.382575	661.5999756
1530.898448	663.0
1531.414266	659.7999878
1531.93003	662.4000244
1532.44574	661.7999878
1532.961395	664.2000122
1533.476995	661.4000244
1533.992541	661.7999878
1534.508033	659.5999756
1535.02347	661.7999878
1535.538852	659.5999756
1536.05418	663.5999756
1536.569454	659.4000244
1537.084673	661.5999756
1537.599837	660.4000244
1538.114947	661.4000244
1538.630003	664.4000244
1539.145004	662.4000244
1539.659951	660.7999878
1540.174843	661.4000244
1540.689681	661.4000244
1541.204465	659.2000122
1541.719194	661.4000244
1542.233868	661.0
1542.748488	661.5999756
1543.263054	663.2000122
1543.777565	661.4000244
1544.292022	662.2000122
1544.806424	662.0
1545.320772	662.0
1545.835066	660.2000122
1546.349305	662.7999878
1546.863489	664.0
1547.37762	661.7999878
1547.891696	661.0
1548.405717	661.5999756
1548.919684	662.4000244
1549.433597	663.2000122
1549.947455	664.0
1550.461259	662.5999756
1550.975009	663.4000244
1551.488704	661.4000244
1552.002345	665.0
1552.515931	664.0
1553.029463	661.5999756
1553.542941	665.2000122
1554.056364	660.4000244
1554.569733	664.0
1555.083048	663.5999756
1555.596308	658.5999756
1556.109514	662.5999756
1556.622665	663.7999878
1557.135762	659.5999756
1557.648805	662.7999878
1558.161794	662.4000244
1558.674728	665.5999756
1559.187608	663.0
1559.700433	663.2000122
1560.213205	663.7999878
1560.725921	663.2000122
1561.238584	661.7999878
1561.751192	664.5999756
1562.263746	661.0
1562.776246	661.7999878
1563.288691	660.2000122
1563.801082	664.5999756
1564.313419	665.5999756
1564.825701	666.0
1565.337929	662.4000244
1565.850103	665.7999878
1566.362223	663.2000122
1566.874288	664.4000244
1567.386299	665.4000244
1567.898256	663.2000122
1568.410158	661.5999756
1568.922007	661.7999878
1569.4338	662.2000122
1569.94554	662.4000244
1570.457226	664.0
1570.968857	662.4000244
1571.480434	663.0
1571.991956	661.5999756
1572.503425	662.4000244
1573.014839	663.4000244
1573.526199	663.4000244
1574.037505	665.2000122
1574.548756	662.7999878
1575.059953	662.2000122
1575.571096	661.2000122
1576.082185	661.7999878
1576.59322	660.5999756
1577.1042	662.4000244
1577.615126	662.5999756
1578.125998	660.7999878
1578.636816	661.2000122
1579.14758	662.7999878
1579.658289	661.2000122
1580.168944	658.5999756
1580.679545	661.5999756
1581.190092	661.0
1581.700585	661.4000244
1582.211023	661.4000244
1582.721407	661.4000244
1583.231737	661.2000122
1583.742013	662.2000122
1584.252235	662.2000122
1584.762403	660.0
1585.272516	661.5999756
1585.782575	661.7999878
1586.292581	662.7999878
1586.802532	662.4000244
1587.312428	661.0
1587.822271	661.0
1588.33206	663.7999878
1588.841794	661.7999878
1589.351474	663.7999878
1589.8611	660.5999756
1590.370672	662.7999878
1590.88019	663.4000244
1591.389654	659.5999756
1591.899064	663.2000122
1592.408419	659.4000244
