1042.452273	703.2000122
1043.018714	702.2000122
1043.585098	693.7999878
1044.151424	697.7999878
1044.717692	694.0
1045.283903	694.4000244
1045.850056	694.5999756
1046.416151	694.2000122
1046.982188	694.0
1047.548167	689.2000122
1048.114089	691.7999878
1048.679953	692.2000122
1049.24576	688.0
1049.811509	688.2000122
1050.3772	690.0
1050.942833	689.2000122
1051.508408	691.7999878
1052.073926	689.7999878
1052.639387	688.0
1053.204789	688.4000244
1053.770134	687.7999878
1054.335421	690.7999878
1054.900651	687.0
1055.465823	684.7999878
1056.030937	684.2000122
1056.595993	688.5999756
1057.160992	688.0
1057.725934	687.7999878
1058.290817	684.4000244
1058.855643	681.5999756
1059.420411	685.0
1059.985122	681.7999878
1060.549775	682.7999878
1061.114371	689.0
1061.678908	683.0
1062.243389	683.7999878
1062.807811	686.0
1063.372176	682.7999878
1063.936483	682.5999756
1064.500733	685.7999878
1065.064925	680.7999878
1065.62906	679.7999878
1066.193137	685.0
1066.757156	679.4000244
1067.321118	683.5999756
1067.885022	681.2000122
1068.448869	685.2000122
1069.012658	683.5999756
1069.57639	681.7999878
1070.140063	689.4000244
1070.70368	682.7999878
1071.267239	678.5999756
1071.83074	679.4000244
1072.394184	681.7999878
1072.95757	682.5999756
1073.520899	684.7999878
1074.08417	683.2000122
1074.647383	685.5999756
1075.21054	678.5999756
1075.773638	684.0
1076.336679	685.5999756
1076.899663	682.4000244
1077.462589	680.5999756
1078.025457	679.7999878
1078.588268	681.4000244
1079.151022	682.0
1079.713718	681.0
1080.276356	678.5999756
1080.838937	680.2000122
1081.401461	680.0
1081.963927	682.2000122
1082.526336	682.2000122
1083.088687	680.2000122
1083.650981	683.0
1084.213217	681.4000244
1084.775396	683.0
1085.337517	680.2000122
1085.899581	683.7999878
1086.461587	686.0
1087.023536	680.0
1087.585428	683.7999878
1088.147262	681.7999878
1088.709039	683.7999878
1089.270758	681.4000244
1089.83242	682.7999878
1090.394024	681.5999756
1090.955571	685.7999878
1091.517061	677.7999878
1092.078493	683.2000122
1092.639868	681.7999878
1093.201185	680.4000244
1093.762445	685.0
1094.323648	679.5999756
1094.884793	683.0
1095.445881	684.0
1096.006911	681.2000122
1096.567884	683.4000244
1097.1288	691.4000244
1097.689659	682.2000122
1098.25046	679.7999878
1098.811203	683.4000244
1099.37189	681.5999756
1099.932518	682.0
1100.49309	681.2000122
1101.053604	680.5999756
1101.614061	684.0
1102.174461	683.5999756
1102.734803	683.2000122
1103.295088	681.4000244
1103.855316	681.7999878
1104.415486	682.4000244
1104.975599	683.0
1105.535655	681.4000244
1106.095653	679.0
1106.655594	685.4000244
1107.215478	683.2000122
1107.775305	683.2000122
1108.335074	680.5999756
1108.894786	683.4000244
1109.45444	678.4000244
1110.014038	684.7999878
1110.573578	683.2000122
1111.133061	684.0
1111.692486	679.7999878
1112.251854	685.5999756
1112.811165	684.0
1113.370419	680.4000244
1113.929616	684.7999878
1114.488755	682.7999878
1115.047837	680.2000122
1115.606862	684.4000244
1116.16583	683.2000122
1116.72474	686.7999878
1117.283593	686.0
1117.842389	679.0
1118.401128	680.5999756
1118.959809	684.2000122
1119.518433	681.5999756
1120.077	677.4000244
1120.63551	679.2000122
1121.193963	681.2000122
1121.752358	681.0
1122.310697	681.4000244
1122.868978	682.2000122
1123.427202	678.7999878
1123.985368	681.2000122
1124.543478	678.2000122
1125.10153	679.4000244
1125.659526	677.7999878
1126.217464	681.5999756
1126.775345	683.0
1127.333168	680.0
1127.890935	681.2000122
1128.448644	680.4000244
1129.006297	680.0
1129.563892	680.2000122
1130.12143	680.5999756
1130.678911	679.5999756
1131.236335	680.7999878
1131.793701	678.7999878
1132.351011	677.4000244
1132.908263	678.2000122
1133.465458	682.2000122
1134.022597	680.4000244
1134.579678	679.4000244
1135.136702	682.2000122
1135.693669	681.0
1136.250578	681.7999878
1136.807431	679.0
1137.364227	680.2000122
1137.920965	684.0
1138.477647	682.7999878
1139.034271	680.7999878
1139.590839	683.0
1140.147349	678.2000122
1140.703802	683.0
1141.260198	677.7999878
1141.816537	680.5999756
1142.37282	680.0
1142.929045	684.0
1143.485213	681.7999878
1144.041323	683.2000122
1144.597377	682.2000122
1145.153374	679.0
1145.709314	680.2000122
1146.265197	680.5999756
1146.821023	681.0
1147.376792	682.5999756
1147.932503	679.5999756
1148.488158	681.5999756
1149.043756	679.7999878
1149.599297	684.7999878
1150.154781	679.4000244
1150.710207	681.5999756
1151.265577	683.4000244
1151.82089	684.7999878
1152.376146	679.5999756
1152.931345	680.5999756
1153.486487	681.5999756
1154.041572	684.2000122
1154.5966	682.2000122
1155.151571	681.2000122
1155.706485	681.5999756
1156.261342	677.2000122
1156.816142	677.4000244
1157.370885	682.5999756
1157.925572	678.2000122
1158.480201	679.7999878
1159.034774	679.5999756
1159.589289	679.2000122
1160.143748	680.0
1160.698149	682.0
1161.252494	681.0
1161.806782	683.0
1162.361013	679.4000244
1162.915187	680.0
1163.469304	679.2000122
1164.023364	682.4000244
1164.577368	681.0
1165.131314	679.5999756
1165.685204	680.7999878
1166.239036	679.7999878
1166.792812	681.5999756
1167.346531	681.4000244
1167.900193	683.4000244
1168.453798	679.5999756
1169.007347	678.7999878
1169.560838	680.5999756
1170.114273	675.7999878
1170.66765	683.4000244
1171.220971	677.5999756
1171.774235	679.0
1172.327443	681.0
1172.880593	679.5999756
1173.433687	678.4000244
1173.986723	681.5999756
1174.539703	678.5999756
1175.092626	678.2000122
1175.645493	680.5999756
1176.198302	681.4000244
1176.751055	683.5999756
1177.303751	682.2000122
1177.85639	681.2000122
1178.408972	682.4000244
1178.961498	683.4000244
1179.513966	681.7999878
1180.066378	681.2000122
1180.618733	678.0
1181.171032	679.4000244
1181.723273	680.0
1182.275458	682.7999878
1182.827586	681.4000244
1183.379657	681.7999878
1183.931672	681.7999878
1184.48363	679.0
1185.035531	682.7999878
1185.587375	682.5999756
1186.139162	685.2000122
1186.690893	681.7999878
1187.242567	679.5999756
1187.794184	682.2000122
1188.345745	680.4000244
1188.897249	679.5999756
1189.448696	679.2000122
1190.000086	683.0
1190.55142	682.4000244
1191.102697	681.0
1191.653918	681.4000244
1192.205081	676.4000244
1192.756188	681.4000244
1193.307238	702.7999878
1193.858232	682.2000122
1194.409169	681.7999878
1194.960049	679.0
1195.510872	682.2000122
1196.061639	681.2000122
1196.612349	682.5999756
1197.163003	680.0
1197.713599	680.0
1198.264139	680.0
1198.814623	682.7999878
1199.36505	677.4000244
1199.91542	680.2000122
1200.465734	681.2000122
1201.01599	680.5999756
1201.566191	682.0
1202.116334	681.5999756
1202.666421	681.7999878
1203.216452	678.2000122
1203.766425	679.7999878
1204.316343	679.4000244
1204.866203	680.0
1205.416007	681.5999756
1205.965754	679.2000122
1206.515445	680.7999878
1207.065079	681.5999756
1207.614657	679.0
1208.164177	675.4000244
1208.713642	677.7999878
1209.26305	677.7999878
1209.812401	682.2000122
1210.361695	681.5999756
1210.910933	680.0
1211.460115	678.7999878
1212.00924	681.0
1212.558308	680.5999756
1213.10732	680.2000122
1213.656275	682.5999756
1214.205174	683.5999756
1214.754016	684.4000244
1215.302801	682.2000122
1215.85153	680.2000122
1216.400203	680.5999756
1216.948819	678.4000244
1217.497378	682.2000122
1218.045881	682.0
1218.594327	683.4000244
1219.142717	680.5999756
1219.691051	679.0
1220.239327	680.4000244
1220.787548	680.7999878
1221.335712	684.7999878
1221.883819	683.4000244
1222.43187	682.7999878
1222.979864	683.0
1223.527802	683.0
1224.075683	682.5999756
1224.623508	682.7999878
1225.171277	683.4000244
1225.718989	681.0
1226.266644	679.0
1226.814243	683.0
1227.361786	684.4000244
1227.909272	683.7999878
1228.456702	686.0
1229.004075	680.5999756
1229.551392	682.2000122
1230.098652	684.7999878
1230.645856	686.2000122
1231.193003	683.7999878
1231.740094	687.2000122
1232.287129	681.4000244
1232.834107	680.7999878
1233.381029	683.7999878
1233.927894	685.4000244
1234.474703	685.5999756
1235.021455	683.2000122
1235.568151	686.4000244
1236.114791	684.0
1236.661374	684.7999878
1237.207901	682.2000122
1237.754372	683.7999878
1238.300786	684.7999878
1238.847144	686.2000122
1239.393445	684.5999756
1239.93969	682.4000244
1240.485879	687.2000122
1241.032011	689.0
1241.578087	685.5999756
1242.124106	681.7999878
1242.67007	683.4000244
1243.215976	683.4000244
1243.761827	684.4000244
1244.307621	688.0
1244.853359	687.0
1245.39904	685.0
1245.944665	687.0
1246.490234	684.5999756
1247.035746	686.5999756
1247.581203	690.2000122
1248.126602	687.7999878
1248.671946	688.7999878
1249.217233	689.5999756
1249.762464	688.2000122
1250.307638	692.5999756
1250.852757	688.2000122
1251.397819	688.2000122
1251.942824	689.0
1252.487774	690.4000244
1253.032667	687.2000122
1253.577503	686.7999878
1254.122284	691.7999878
1254.667008	690.2000122
1255.211676	688.4000244
1255.756288	686.5999756
1256.300843	688.7999878
1256.845342	690.7999878
1257.389785	692.4000244
1257.934172	691.5999756
1258.478502	696.0
1259.022776	700.2000122
1259.566994	694.5999756
1260.111156	715.2000122
1260.655261	693.7999878
1261.199311	699.5999756
1261.743304	704.2000122
1262.28724	705.7999878
1262.831121	715.4000244
1263.374945	723.5999756
1263.918713	735.0
1264.462425	735.5999756
1265.006081	741.7999878
1265.54968	736.2000122
1266.093223	712.5999756
1266.636711	705.4000244
1267.180141	700.2000122
1267.723516	696.5999756
1268.266835	697.2000122
1268.810097	694.4000244
1269.353303	693.5999756
1269.896453	694.0
1270.439547	696.4000244
1270.982584	689.4000244
1271.525566	693.5999756
1272.068491	694.5999756
1272.61136	694.4000244
1273.154173	693.0
1273.69693	692.0
1274.239631	694.0
1274.782275	698.0
1275.324864	696.2000122
1275.867396	695.7999878
1276.409872	695.5999756
1276.952292	696.5999756
1277.494656	701.0
1278.036964	697.0
1278.579215	697.2000122
1279.121411	702.5999756
1279.66355	706.4000244
1280.205634	709.7999878
1280.747661	718.0
1281.289632	726.2000122
1281.831547	749.4000244
1282.373406	796.5999756
1282.915209	883.4000244
1283.456955	1051.400024
1283.998646	1287.199951
1284.540281	1449.0
1285.081859	1377.599976
1285.623381	1111.199951
1286.164848	870.5999756
1286.706258	775.0
1287.247612	737.2000122
1287.788911	722.4000244
1288.330153	711.4000244
1288.871339	709.5999756
1289.412469	701.5999756
1289.953543	700.0
1290.494561	699.5999756
1291.035523	698.5999756
1291.576428	697.0
1292.117278	698.2000122
1292.658072	695.7999878
1293.19881	694.0
1293.739492	694.7999878
1294.280118	694.0
1294.820687	686.7999878
1295.361201	691.0
1295.901659	692.2000122
1296.442061	690.5999756
1296.982406	692.7999878
1297.522696	694.4000244
1298.06293	689.2000122
1298.603108	691.7999878
1299.143229	692.2000122
1299.683295	688.2000122
1300.223305	688.2000122
1300.763259	689.7999878
1301.303157	691.5999756
1301.842999	684.2000122
1302.382785	688.7999878
1302.922515	689.7999878
1303.462189	687.0
1304.001807	691.0
1304.541369	692.2000122
1305.080875	688.2000122
1305.620326	689.4000244
1306.15972	691.2000122
1306.699058	690.2000122
1307.238341	689.7999878
1307.777567	693.4000244
1308.316738	685.5999756
1308.855853	685.7999878
1309.394912	689.2000122
1309.933915	686.4000244
1310.472862	688.2000122
1311.011753	690.4000244
1311.550588	689.2000122
1312.089367	687.7999878
1312.62809	688.4000244
1313.166758	685.0
1313.70537	686.7999878
1314.243925	688.2000122
1314.782425	688.5999756
1315.320869	683.5999756
1315.859257	687.4000244
1316.397589	686.7999878
1316.935866	688.2000122
1317.474086	688.0
1318.012251	688.4000244
1318.55036	686.7999878
1319.088413	685.5999756
1319.62641	684.4000244
1320.164351	688.2000122
1320.702236	686.4000244
1321.240066	688.0
1321.777839	685.0
1322.315557	688.0
1322.853219	686.2000122
1323.390826	685.5999756
1323.928376	693.2000122
1324.465871	688.7999878
1325.003309	684.2000122
1325.540692	683.4000244
1326.07802	686.0
1326.615291	687.4000244
1327.152506	684.2000122
1327.689666	689.0
1328.22677	683.7999878
1328.763818	684.5999756
1329.300811	682.7999878
1329.837747	684.0
1330.374628	683.4000244
1330.911453	688.5999756
1331.448222	689.0
1331.984936	687.7999878
1332.521594	683.7999878
1333.058196	687.2000122
1333.594742	688.5999756
1334.131232	683.4000244
1334.667667	688.4000244
1335.204046	685.7999878
1335.740369	688.2000122
1336.276637	690.4000244
1336.812848	686.7999878
1337.349004	684.7999878
1337.885105	686.0
1338.421149	688.2000122
1338.957138	685.7999878
1339.493071	685.2000122
1340.028949	686.0
1340.56477	686.4000244
1341.100536	682.5999756
1341.636246	686.5999756
1342.171901	686.5999756
1342.7075	687.2000122
1343.243043	684.7999878
1343.77853	683.0
1344.313962	686.7999878
1344.849338	686.0
1345.384659	688.7999878
1345.919923	684.0
1346.455133	687.2000122
1346.990286	689.2000122
1347.525384	686.2000122
1348.060426	685.5999756
1348.595412	685.7999878
1349.130343	684.2000122
1349.665218	685.5999756
1350.200037	684.5999756
1350.734801	686.4000244
1351.269509	689.5999756
1351.804162	688.4000244
1352.338758	686.5999756
1352.8733	688.5999756
1353.407785	687.0
1353.942215	684.2000122
1354.476589	686.7999878
1355.010908	687.2000122
1355.545171	689.4000244
1356.079379	687.5999756
1356.61353	687.5999756
1357.147627	688.0
1357.681667	686.0
1358.215652	684.4000244
1358.749582	692.2000122
1359.283456	688.4000244
1359.817274	687.5999756
1360.351037	686.4000244
1360.884744	689.7999878
1361.418395	687.0
1361.951991	695.7999878
1362.485531	689.4000244
1363.019016	694.0
1363.552445	690.5999756
1364.085819	690.5999756
1364.619137	689.0
1365.1524	694.0
1365.685607	691.2000122
1366.218758	694.4000244
1366.751854	696.4000244
1367.284894	694.0
1367.817879	688.5999756
1368.350808	688.2000122
1368.883682	695.7999878
1369.4165	695.7999878
1369.949263	713.0
1370.48197	723.5999756
1371.014622	701.4000244
1371.547218	692.5999756
1372.079758	691.0
1372.612244	690.7999878
1373.144673	693.0
1373.677047	692.2000122
1374.209366	692.2000122
1374.741629	692.0
1375.273836	693.2000122
1375.805989	695.4000244
1376.338085	694.5999756
1376.870126	699.7999878
1377.402112	693.7999878
1377.934042	699.7999878
1378.465917	696.2000122
1378.997736	698.2000122
1379.5295	697.4000244
1380.061208	703.5999756
1380.592861	698.7999878
1381.124459	703.5999756
1381.656	709.0
1382.187487	703.2000122
1382.718918	710.7999878
1383.250294	710.5999756
1383.781614	720.7999878
1384.312879	722.2000122
1384.844088	735.0
1385.375242	754.2000122
1385.90634	789.4000244
1386.437383	848.4000244
1386.968371	994.5999756
1387.499303	1403.400024
1388.03018	2071.800049
1388.561001	2319.0
1389.091767	1615.800049
1389.622478	1025.599976
1390.153133	835.4000244
1390.683733	766.0
1391.214277	743.0
1391.744766	724.7999878
1392.2752	719.5999756
1392.805578	711.5999756
1393.335901	708.4000244
1393.866168	709.0
1394.396381	703.0
1394.926537	701.4000244
1395.456639	702.2000122
1395.986685	698.2000122
1396.516675	701.4000244
1397.046611	696.5999756
1397.576491	699.5999756
1398.106315	695.5999756
1398.636084	696.7999878
1399.165798	699.5999756
1399.695457	692.4000244
1400.22506	691.5999756
1400.754608	692.7999878
1401.284101	693.7999878
1401.813538	694.5999756
1402.34292	697.7999878
1402.872247	697.0
1403.401518	699.4000244
1403.930734	695.0
1404.459895	692.2000122
1404.989	696.5999756
1405.51805	702.2000122
1406.047045	702.2000122
1406.575984	701.2000122
1407.104869	712.2000122
1407.633697	708.4000244
1408.162471	723.7999878
1408.691189	744.5999756
1409.219852	767.5999756
1409.74846	785.4000244
1410.277013	783.2000122
1410.80551	751.4000244
1411.333952	724.7999878
1411.862339	709.4000244
1412.39067	707.7999878
1412.918946	693.5999756
1413.447167	697.7999878
1413.975333	692.2000122
1414.503444	694.0
1415.031499	691.0
1415.559499	701.2000122
1416.087444	692.0
1416.615333	692.2000122
1417.143167	685.5999756
1417.670947	685.5999756
1418.19867	689.0
1418.726339	684.5999756
1419.253952	687.0
1419.781511	688.5999756
1420.309014	687.2000122
1420.836461	687.0
1421.363854	687.7999878
1421.891191	684.5999756
1422.418474	689.5999756
1422.945701	686.4000244
1423.472872	688.2000122
1423.999989	687.4000244
1424.52705	683.7999878
1425.054057	690.0
1425.581008	687.7999878
1426.107904	690.4000244
1426.634745	686.2000122
1427.16153	683.4000244
1427.688261	683.7999878
1428.214936	686.0
1428.741556	681.4000244
1429.268121	684.5999756
1429.794631	687.0
1430.321085	686.2000122
1430.847485	682.4000244
1431.373829	685.7999878
1431.900118	685.7999878
1432.426353	685.4000244
1432.952532	683.0
1433.478655	683.4000244
1434.004724	687.5999756
1434.530738	685.0
1435.056696	684.4000244
1435.5826	681.5999756
1436.108448	685.0
1436.634241	680.5999756
1437.159979	679.4000244
1437.685662	682.0
1438.21129	682.5999756
1438.736863	686.4000244
1439.262381	683.4000244
1439.787843	683.0
1440.313251	682.2000122
1440.838603	683.2000122
1441.3639	684.4000244
1441.889143	683.5999756
1442.41433	679.5999756
1442.939462	682.0
1443.464539	682.7999878
1443.989561	681.2000122
1444.514528	680.5999756
1445.03944	682.0
1445.564297	681.2000122
1446.089099	682.2000122
1446.613846	678.5999756
1447.138537	681.0
1447.663174	684.0
1448.187756	682.0
1448.712282	680.7999878
1449.236754	680.0
1449.761171	680.4000244
1450.285532	682.4000244
1450.809839	679.2000122
1451.33409	681.4000244
1451.858287	681.5999756
1452.382428	680.4000244
1452.906515	683.5999756
1453.430546	681.0
1453.954523	680.0
1454.478444	680.5999756
1455.002311	681.0
1455.526123	679.2000122
1456.049879	679.5999756
1456.573581	679.7999878
1457.097227	681.2000122
1457.620819	683.7999878
1458.144356	675.5999756
1458.667837	679.0
1459.191264	676.5999756
1459.714636	682.4000244
1460.237952	679.7999878
1460.761214	680.4000244
1461.284421	681.2000122
1461.807573	681.7999878
1462.33067	683.0
1462.853712	705.2000122
1463.899632	688.0
1464.422509	681.5999756
1464.945331	681.5999756
1465.468099	682.0
1465.990811	680.5999756
1466.513469	678.0
1467.036071	680.5999756
1467.558619	676.5999756
1468.081112	680.4000244
1468.60355	681.0
1469.125933	680.4000244
1469.648261	682.0
1470.170534	681.5999756
1470.692752	678.7999878
1471.214916	678.0
1471.737024	680.5999756
1472.259078	683.4000244
1472.781077	675.0
1473.303021	680.7999878
1473.82491	676.7999878
1474.346744	678.5999756
1474.868523	679.0
1475.390248	681.0
1475.911917	679.0
1476.433532	678.2000122
1476.955092	677.4000244
1477.476597	679.2000122
1477.998047	678.2000122
1478.519442	680.0
1479.040783	678.7999878
1479.562068	677.5999756
1480.083299	676.5999756
1480.604475	675.7999878
1481.125596	676.7999878
1481.646663	677.7999878
1482.167674	681.5999756
1482.688631	678.4000244
1483.209533	678.7999878
1483.73038	680.0
1484.251172	678.7999878
1484.771909	677.7999878
1485.292592	677.0
1485.81322	674.5999756
1486.333793	676.0
1486.854311	680.0
1487.374775	679.0
1487.895183	679.7999878
1488.415537	677.0
1488.935836	675.4000244
1489.456081	677.7999878
1489.97627	676.4000244
1490.496405	677.5999756
1491.016485	679.5999756
1491.536511	676.7999878
1492.056481	678.7999878
1492.576397	675.5999756
1493.096258	675.0
1493.616064	672.7999878
1494.135816	679.4000244
1494.655513	677.7999878
1495.175155	681.0
1495.694742	677.4000244
1496.214274	677.7999878
1496.733752	678.4000244
1497.253175	678.4000244
1497.772544	677.2000122
1498.291858	676.0
1498.811116	676.2000122
1499.330321	676.7999878
1499.84947	683.7999878
1500.368565	679.2000122
1500.887605	679.0
1501.406591	678.7999878
1501.925521	679.5999756
1502.444397	678.7999878
1502.963219	677.2000122
1503.481985	675.0
1504.000697	675.7999878
1504.519355	681.4000244
1505.037957	677.5999756
1505.556505	676.2000122
1506.074999	677.2000122
1506.593437	678.5999756
1507.111821	678.4000244
1507.63015	675.7999878
1508.148425	677.5999756
1508.666645	679.7999878
1509.18481	674.0
1509.702921	675.4000244
1510.220977	681.5999756
1510.738979	684.0
1511.256925	678.4000244
1511.774817	676.4000244
1512.292655	678.7999878
1512.810438	679.0
1513.328166	678.4000244
1513.84584	677.7999878
1514.363459	679.2000122
1514.881023	674.7999878
1515.398533	677.7999878
1515.915988	677.5999756
1516.433389	676.7999878
1516.950734	677.5999756
1517.468026	675.7999878
1517.985263	678.4000244
1518.502445	676.4000244
1519.019572	675.7999878
1519.536645	676.4000244
1520.053664	678.2000122
1520.570628	679.0
1521.087537	678.4000244
1521.604392	677.7999878
1522.121192	678.0
1522.637937	675.5999756
1523.154628	678.2000122
1523.671265	678.5999756
1524.187847	675.7999878
1524.704374	679.7999878
1525.220847	677.0
1525.737265	689.4000244
1526.769938	692.0
1527.286192	678.4000244
1527.802392	679.4000244
1528.318538	678.7999878
1528.834629	676.2000122
1529.350666	674.5999756
1529.866648	677.5999756
1530.382575	675.4000244
1530.898448	678.4000244
1531.414266	678.0
1531.93003	679.5999756
1532.44574	675.5999756
1532.961395	678.2000122
1533.476995	675.4000244
1533.992541	679.7999878
1534.508033	676.4000244
1535.02347	682.2000122
1535.538852	679.7999878
1536.05418	677.7999878
1536.569454	673.4000244
1537.084673	678.2000122
1537.599837	675.5999756
1538.114947	674.5999756
1538.630003	674.4000244
1539.145004	677.0
1539.659951	677.4000244
1540.174843	679.0
1540.689681	677.0
1541.204465	677.5999756
1541.719194	680.5999756
1542.233868	679.7999878
1542.748488	673.2000122
1543.263054	678.4000244
1543.777565	679.2000122
1544.292022	677.4000244
1544.806424	680.0
1545.320772	678.5999756
1545.835066	679.5999756
1546.349305	678.0
1546.863489	679.0
1547.37762	680.4000244
1547.891696	678.5999756
1548.405717	682.0
1548.919684	680.7999878
1549.433597	677.4000244
1549.947455	680.5999756
1550.461259	679.2000122
1550.975009	681.0
1551.488704	680.0
1552.002345	680.5999756
1552.515931	677.0
1553.029463	678.7999878
1553.542941	679.5999756
1554.056364	681.0
1554.569733	680.7999878
1555.083048	679.0
1555.596308	682.7999878
1556.109514	679.4000244
1556.622665	679.0
1557.135762	681.7999878
1557.648805	680.5999756
1558.161794	679.2000122
1558.674728	679.7999878
1559.187608	680.4000244
1559.700433	680.0
1560.213205	678.0
1560.725921	678.2000122
1561.238584	677.0
1561.751192	676.0
1562.263746	682.0
1562.776246	682.0
1563.288691	680.5999756
1563.801082	679.5999756
1564.313419	684.5999756
1564.825701	685.2000122
1565.337929	679.5999756
1565.850103	681.5999756
1566.362223	683.5999756
1566.874288	680.5999756
1567.386299	681.7999878
1567.898256	680.7999878
1568.410158	684.5999756
1568.922007	683.4000244
1569.4338	684.2000122
1569.94554	680.0
1570.457226	679.7999878
1570.968857	676.7999878
1571.480434	676.4000244
1571.991956	681.4000244
1572.503425	674.7999878
1573.014839	675.0
1573.526199	679.2000122
1574.037505	678.0
1574.548756	680.4000244
1575.059953	679.4000244
1575.571096	680.7999878
1576.082185	678.0
1576.59322	676.2000122
1577.1042	676.7999878
1577.615126	678.2000122
1578.125998	676.7999878
1578.636816	678.5999756
1579.14758	679.2000122
1579.658289	679.4000244
1580.168944	678.7999878
1580.679545	672.0
1581.190092	677.7999878
1581.700585	677.2000122
1582.211023	680.0
1582.721407	678.0
1583.231737	677.5999756
1583.742013	681.4000244
1584.252235	679.5999756
1584.762403	676.2000122
1585.272516	677.2000122
1585.782575	679.2000122
1586.292581	676.4000244
1586.802532	679.5999756
1587.312428	677.2000122
1587.822271	677.7999878
1588.33206	675.7999878
1588.841794	680.0
1589.351474	676.5999756
1589.8611	677.7999878
1590.370672	675.0
1590.88019	678.2000122
1591.389654	676.2000122
1591.899064	679.2000122
1592.408419	677.4000244
