1042.452273	703.7999878
1043.018714	699.2000122
1043.585098	702.5999756
1044.151424	699.5999756
1044.717692	700.4000244
1045.283903	694.7999878
1045.850056	695.7999878
1046.416151	693.2000122
1046.982188	692.2000122
1047.548167	691.7999878
1048.114089	689.2000122
1048.679953	692.0
1049.24576	692.2000122
1049.811509	692.2000122
1050.3772	690.4000244
1050.942833	686.2000122
1051.508408	692.2000122
1052.073926	685.7999878
1052.639387	687.5999756
1053.204789	690.4000244
1053.770134	685.4000244
1054.335421	688.7999878
1054.900651	688.5999756
1055.465823	686.7999878
1056.030937	685.2000122
1056.595993	688.2000122
1057.160992	688.2000122
1057.725934	685.4000244
1058.290817	682.0
1058.855643	681.0
1059.420411	682.5999756
1059.985122	687.0
1060.549775	684.7999878
1061.114371	683.5999756
1061.678908	685.5999756
1062.243389	684.4000244
1062.807811	681.4000244
1063.372176	685.5999756
1063.936483	688.2000122
1064.500733	685.2000122
1065.064925	683.0
1065.62906	683.2000122
1066.193137	682.4000244
1066.757156	682.0
1067.321118	680.7999878
1067.885022	683.4000244
1068.448869	681.0
1069.012658	681.4000244
1069.57639	682.2000122
1070.140063	689.7999878
1070.70368	683.7999878
1071.267239	684.0
1071.83074	681.7999878
1072.394184	685.4000244
1072.95757	683.7999878
1073.520899	679.0
1074.08417	684.0
1074.647383	684.7999878
1075.21054	681.2000122
1075.773638	680.2000122
1076.336679	682.5999756
1076.899663	683.2000122
1077.462589	684.2000122
1078.025457	681.2000122
1078.588268	680.2000122
1079.151022	680.4000244
1079.713718	680.5999756
1080.276356	681.0
1080.838937	682.0
1081.401461	679.5999756
1081.963927	680.4000244
1082.526336	680.4000244
1083.088687	683.4000244
1083.650981	683.7999878
1084.213217	683.2000122
1084.775396	683.7999878
1085.337517	683.0
1085.899581	684.4000244
1086.461587	681.0
1087.023536	681.4000244
1087.585428	682.4000244
1088.147262	680.4000244
1088.709039	679.5999756
1089.270758	680.5999756
1089.83242	682.5999756
1090.394024	679.5999756
1090.955571	681.2000122
1091.517061	683.5999756
1092.078493	679.5999756
1092.639868	681.4000244
1093.201185	685.2000122
1093.762445	682.7999878
1094.323648	678.4000244
1094.884793	678.7999878
1095.445881	683.2000122
1096.006911	682.0
1096.567884	681.7999878
1097.1288	689.2000122
1097.689659	682.7999878
1098.25046	684.4000244
1098.811203	680.2000122
1099.37189	681.2000122
1099.932518	679.5999756
1100.49309	683.5999756
1101.053604	677.7999878
1101.614061	680.0
1102.174461	681.2000122
1102.734803	683.0
1103.295088	682.4000244
1103.855316	681.2000122
1104.415486	680.7999878
1104.975599	682.0
1105.535655	682.2000122
1106.095653	683.4000244
1106.655594	683.4000244
1107.215478	682.5999756
1107.775305	679.2000122
1108.335074	685.4000244
1108.894786	680.4000244
1109.45444	683.7999878
1110.014038	682.4000244
1110.573578	683.4000244
1111.133061	680.2000122
1111.692486	680.2000122
1112.251854	683.7999878
1112.811165	679.2000122
1113.370419	684.4000244
1113.929616	682.5999756
1114.488755	683.2000122
1115.047837	681.7999878
1115.606862	683.0
1116.16583	683.0
1116.72474	681.2000122
1117.283593	683.2000122
1117.842389	682.2000122
1118.401128	682.2000122
1118.959809	682.2000122
1119.518433	684.5999756
1120.077	682.4000244
1120.63551	682.2000122
1121.193963	679.7999878
1121.752358	680.4000244
1122.310697	679.7999878
1122.868978	677.5999756
1123.427202	681.7999878
1123.985368	679.7999878
1124.543478	683.0
1125.10153	677.0
1125.659526	679.7999878
1126.217464	680.4000244
1126.775345	679.7999878
1127.333168	684.2000122
1127.890935	680.5999756
1128.448644	678.7999878
1129.006297	681.5999756
1129.563892	679.7999878
1130.12143	685.7999878
1130.678911	679.5999756
1131.236335	680.5999756
1131.793701	679.2000122
1132.351011	681.4000244
1132.908263	681.2000122
1133.465458	679.2000122
1134.022597	677.4000244
1134.579678	679.4000244
1135.136702	681.7999878
1135.693669	679.5999756
1136.250578	680.5999756
1136.807431	681.4000244
1137.364227	679.4000244
1137.920965	681.2000122
1138.477647	680.7999878
1139.034271	679.2000122
1139.590839	681.2000122
1140.147349	677.7999878
1140.703802	681.4000244
1141.260198	679.2000122
1141.816537	678.2000122
1142.37282	679.4000244
1142.929045	677.7999878
1143.485213	680.2000122
1144.041323	681.4000244
1144.597377	678.5999756
1145.153374	681.7999878
1145.709314	679.5999756
1146.265197	682.0
1146.821023	677.7999878
1147.376792	683.4000244
1147.932503	683.0
1148.488158	684.0
1149.043756	682.2000122
1149.599297	683.4000244
1150.154781	682.5999756
1150.710207	679.5999756
1151.265577	680.7999878
1151.82089	682.2000122
1152.376146	678.4000244
1152.931345	680.5999756
1153.486487	680.0
1154.041572	682.0
1154.5966	683.0
1155.151571	682.2000122
1155.706485	682.0
1156.261342	678.2000122
1156.816142	680.4000244
1157.370885	682.0
1157.925572	679.5999756
1158.480201	681.5999756
1159.034774	682.0
1159.589289	682.7999878
1160.143748	681.7999878
1160.698149	679.5999756
1161.252494	679.5999756
1161.806782	682.4000244
1162.361013	680.0
1162.915187	681.5999756
1163.469304	678.7999878
1164.023364	680.7999878
1164.577368	681.0
1165.131314	676.5999756
1165.685204	676.2000122
1166.239036	679.7999878
1166.792812	685.0
1167.346531	680.7999878
1167.900193	679.7999878
1168.453798	682.0
1169.007347	679.7999878
1169.560838	680.4000244
1170.114273	681.5999756
1170.66765	680.2000122
1171.220971	683.4000244
1171.774235	680.0
1172.327443	679.5999756
1172.880593	684.4000244
1173.433687	681.5999756
1173.986723	682.2000122
1174.539703	679.2000122
1175.092626	680.4000244
1175.645493	679.4000244
1176.198302	681.0
1176.751055	681.2000122
1177.303751	679.4000244
1177.85639	679.5999756
1178.408972	680.5999756
1178.961498	679.0
1179.513966	680.5999756
1180.066378	680.7999878
1180.618733	680.5999756
1181.171032	683.5999756
1181.723273	677.2000122
1182.275458	682.7999878
1182.827586	679.2000122
1183.379657	683.5999756
1183.931672	681.4000244
1184.48363	682.0
1185.035531	680.5999756
1185.587375	682.2000122
1186.139162	683.4000244
1186.690893	681.2000122
1187.242567	680.5999756
1187.794184	681.0
1188.345745	681.4000244
1188.897249	680.2000122
1189.448696	679.4000244
1190.000086	681.5999756
1190.55142	680.2000122
1191.102697	681.7999878
1191.653918	682.4000244
1192.205081	680.2000122
1192.756188	680.4000244
1193.307238	702.0
1193.858232	683.5999756
1194.409169	679.4000244
1194.960049	680.4000244
1195.510872	683.7999878
1196.061639	679.2000122
1196.612349	675.4000244
1197.163003	682.5999756
1197.713599	681.2000122
1198.264139	678.5999756
1198.814623	679.4000244
1199.36505	680.7999878
1199.91542	681.7999878
1200.465734	682.2000122
1201.01599	679.0
1201.566191	683.0
1202.116334	679.0
1202.666421	681.7999878
1203.216452	681.4000244
1203.766425	679.0
1204.316343	679.4000244
1204.866203	680.4000244
1205.416007	680.5999756
1205.965754	678.5999756
1206.515445	682.5999756
1207.065079	681.7999878
1207.614657	675.5999756
1208.164177	682.4000244
1208.713642	681.2000122
1209.26305	682.4000244
1209.812401	682.7999878
1210.361695	678.0
1210.910933	682.4000244
1211.460115	682.0
1212.00924	682.2000122
1212.558308	681.2000122
1213.10732	682.2000122
1213.656275	682.4000244
1214.205174	682.2000122
1214.754016	679.4000244
1215.302801	680.2000122
1215.85153	681.4000244
1216.400203	682.7999878
1216.948819	680.7999878
1217.497378	680.4000244
1218.045881	681.5999756
1218.594327	683.0
1219.142717	682.7999878
1219.691051	684.5999756
1220.239327	684.0
1220.787548	684.2000122
1221.335712	683.0
1221.883819	682.7999878
1222.43187	681.7999878
1222.979864	686.4000244
1223.527802	682.5999756
1224.075683	684.0
1224.623508	686.4000244
1225.171277	680.7999878
1225.718989	684.2000122
1226.266644	683.7999878
1226.814243	684.0
1227.361786	680.7999878
1227.909272	685.0
1228.456702	685.4000244
1229.004075	683.0
1229.551392	683.2000122
1230.098652	686.0
1230.645856	682.0
1231.193003	686.0
1231.740094	687.7999878
1232.287129	683.4000244
1232.834107	683.5999756
1233.381029	687.0
1233.927894	686.2000122
1234.474703	683.5999756
1235.021455	684.0
1235.568151	686.2000122
1236.114791	687.0
1236.661374	682.7999878
1237.207901	684.4000244
1237.754372	684.2000122
1238.300786	684.5999756
1238.847144	685.5999756
1239.393445	684.5999756
1239.93969	684.2000122
1240.485879	685.2000122
1241.032011	684.2000122
1241.578087	682.5999756
1242.124106	685.4000244
1242.67007	685.7999878
1243.215976	689.2000122
1243.761827	686.2000122
1244.307621	686.0
1244.853359	689.5999756
1245.39904	685.7999878
1245.944665	685.5999756
1246.490234	688.7999878
1247.035746	685.5999756
1247.581203	687.0
1248.126602	687.5999756
1248.671946	687.5999756
1249.217233	689.0
1249.762464	686.7999878
1250.307638	686.7999878
1250.852757	690.2000122
1251.397819	692.2000122
1251.942824	686.5999756
1252.487774	688.5999756
1253.032667	688.5999756
1253.577503	690.5999756
1254.122284	688.0
1254.667008	689.0
1255.211676	688.4000244
1255.756288	688.7999878
1256.300843	689.7999878
1256.845342	689.2000122
1257.389785	689.0
1257.934172	691.7999878
1258.478502	694.7999878
1259.022776	697.0
1259.566994	695.0
1260.111156	713.5999756
1260.655261	693.4000244
1261.199311	697.7999878
1261.743304	701.5999756
1262.28724	709.5999756
1262.831121	709.4000244
1263.374945	723.5999756
1263.918713	732.7999878
1264.462425	742.5999756
1265.006081	737.5999756
1265.54968	729.5999756
1266.093223	709.5999756
1266.636711	704.5999756
1267.180141	700.0
1267.723516	694.7999878
1268.266835	696.2000122
1268.810097	693.4000244
1269.353303	690.5999756
1269.896453	693.0
1270.439547	694.2000122
1270.982584	694.2000122
1271.525566	694.5999756
1272.068491	688.4000244
1272.61136	692.5999756
1273.154173	691.0
1273.69693	692.7999878
1274.239631	697.2000122
1274.782275	693.7999878
1275.324864	694.4000244
1275.867396	690.7999878
1276.409872	699.0
1276.952292	695.4000244
1277.494656	701.2000122
1278.036964	697.4000244
1278.579215	701.4000244
1279.121411	699.4000244
1279.66355	705.0
1280.205634	709.0
1280.747661	718.5999756
1281.289632	724.0
1281.831547	748.4000244
1282.373406	794.0
1282.915209	894.4000244
1283.456955	1054.599976
1283.998646	1280.400024
1284.540281	1439.599976
1285.081859	1382.400024
1285.623381	1100.400024
1286.164848	870.5999756
1286.706258	773.4000244
1287.247612	735.7999878
1287.788911	719.2000122
1288.330153	708.5999756
1288.871339	707.5999756
1289.412469	701.5999756
1289.953543	701.0
1290.494561	700.7999878
1291.035523	698.2000122
1291.576428	697.5999756
1292.117278	696.7999878
1292.658072	694.0
1293.19881	695.4000244
1293.739492	693.2000122
1294.280118	690.5999756
1294.820687	693.5999756
1295.361201	694.5999756
1295.901659	697.2000122
1296.442061	688.5999756
1296.982406	688.4000244
1297.522696	693.7999878
1298.06293	692.4000244
1298.603108	696.2000122
1299.143229	692.0
1299.683295	691.2000122
1300.223305	695.0
1300.763259	689.7999878
1301.303157	687.5999756
1301.842999	691.2000122
1302.382785	688.0
1302.922515	690.2000122
1303.462189	691.0
1304.001807	690.4000244
1304.541369	688.7999878
1305.080875	692.0
1305.620326	689.2000122
1306.15972	687.7999878
1306.699058	694.2000122
1307.238341	689.0
1307.777567	688.4000244
1308.316738	684.7999878
1308.855853	687.4000244
1309.394912	686.2000122
1309.933915	689.2000122
1310.472862	690.7999878
1311.011753	685.5999756
1311.550588	687.7999878
1312.089367	686.0
1312.62809	692.0
1313.166758	686.5999756
1313.70537	690.0
1314.243925	683.5999756
1314.782425	688.7999878
1315.320869	688.0
1315.859257	688.0
1316.397589	689.4000244
1316.935866	686.7999878
1317.474086	684.7999878
1318.012251	686.4000244
1318.55036	686.5999756
1319.088413	688.5999756
1319.62641	686.2000122
1320.164351	686.4000244
1320.702236	681.4000244
1321.240066	689.4000244
1321.777839	686.2000122
1322.315557	687.0
1322.853219	687.5999756
1323.390826	686.4000244
1323.928376	691.0
1324.465871	686.5999756
1325.003309	689.2000122
1325.540692	687.2000122
1326.07802	688.7999878
1326.615291	685.0
1327.152506	687.4000244
1327.689666	685.7999878
1328.22677	685.2000122
1328.763818	687.4000244
1329.300811	688.7999878
1329.837747	686.5999756
1330.374628	686.5999756
1330.911453	682.2000122
1331.448222	686.5999756
1331.984936	683.4000244
1332.521594	687.5999756
1333.058196	685.7999878
1333.594742	689.2000122
1334.131232	688.4000244
1334.667667	685.7999878
1335.204046	691.4000244
1335.740369	686.0
1336.276637	684.2000122
1336.812848	684.7999878
1337.349004	685.5999756
1337.885105	683.5999756
1338.421149	687.0
1338.957138	687.5999756
1339.493071	684.4000244
1340.028949	687.7999878
1340.56477	686.2000122
1341.100536	683.7999878
1341.636246	685.4000244
1342.171901	686.0
1342.7075	686.0
1343.243043	687.5999756
1343.77853	686.5999756
1344.313962	683.4000244
1344.849338	686.5999756
1345.384659	685.5999756
1345.919923	685.0
1346.455133	689.5999756
1346.990286	691.7999878
1347.525384	684.7999878
1348.060426	687.7999878
1348.595412	688.5999756
1349.130343	687.2000122
1349.665218	689.2000122
1350.200037	685.7999878
1350.734801	690.0
1351.269509	688.4000244
1351.804162	684.5999756
1352.338758	687.4000244
1352.8733	687.0
1353.407785	685.0
1353.942215	684.5999756
1354.476589	687.5999756
1355.010908	689.4000244
1355.545171	687.7999878
1356.079379	691.0
1356.61353	689.7999878
1357.147627	687.2000122
1357.681667	685.4000244
1358.215652	688.4000244
1358.749582	686.0
1359.283456	688.5999756
1359.817274	690.4000244
1360.351037	688.2000122
1360.884744	688.2000122
1361.418395	687.4000244
1361.951991	691.0
1362.485531	692.2000122
1363.019016	692.5999756
1363.552445	690.5999756
1364.085819	690.0
1364.619137	691.0
1365.1524	689.5999756
1365.685607	692.7999878
1366.218758	691.7999878
1366.751854	694.7999878
1367.284894	690.0
1367.817879	688.2000122
1368.350808	691.2000122
1368.883682	692.4000244
1369.4165	698.0
1369.949263	712.2000122
1370.48197	724.2000122
1371.014622	701.4000244
1371.547218	692.5999756
1372.079758	693.2000122
1372.612244	692.4000244
1373.144673	693.7999878
1373.677047	692.5999756
1374.209366	691.7999878
1374.741629	690.5999756
1375.273836	694.0
1375.805989	693.7999878
1376.338085	696.0
1376.870126	694.0
1377.402112	693.0
1377.934042	696.5999756
1378.465917	698.2000122
1378.997736	696.4000244
1379.5295	698.2000122
1380.061208	696.7999878
1380.592861	699.2000122
1381.124459	703.2000122
1381.656	704.7999878
1382.187487	706.0
1382.718918	707.4000244
1383.250294	714.2000122
1383.781614	715.0
1384.312879	722.5999756
1384.844088	734.5999756
1385.375242	752.2000122
1385.90634	782.4000244
1386.437383	844.5999756
1386.968371	1004.599976
1387.499303	1402.800049
1388.03018	2077.0
1388.561001	2295.399902
1389.091767	1598.800049
1389.622478	1016.799988
1390.153133	829.0
1390.683733	766.4000244
1391.214277	739.7999878
1391.744766	727.5999756
1392.2752	718.4000244
1392.805578	717.7999878
1393.335901	709.5999756
1393.866168	708.5999756
1394.396381	700.4000244
1394.926537	704.2000122
1395.456639	702.4000244
1395.986685	696.2000122
1396.516675	703.0
1397.046611	698.2000122
1397.576491	697.2000122
1398.106315	695.5999756
1398.636084	694.4000244
1399.165798	692.4000244
1399.695457	696.0
1400.22506	692.4000244
1400.754608	696.2000122
1401.284101	695.5999756
1401.813538	697.4000244
1402.34292	692.7999878
1402.872247	696.5999756
1403.401518	691.5999756
1403.930734	697.7999878
1404.459895	699.2000122
1404.989	695.5999756
1405.51805	698.4000244
1406.047045	700.4000244
1406.575984	701.0
1407.104869	708.2000122
1407.633697	713.7999878
1408.162471	728.0
1408.691189	742.2000122
1409.219852	771.2000122
1409.74846	788.4000244
1410.277013	780.7999878
1410.80551	750.4000244
1411.333952	718.2000122
1411.862339	709.2000122
1412.39067	698.7999878
1412.918946	695.0
1413.447167	690.5999756
1413.975333	694.2000122
1414.503444	693.0
1415.031499	690.4000244
1415.559499	704.4000244
1416.087444	689.7999878
1416.615333	688.4000244
1417.143167	691.2000122
1417.670947	689.7999878
1418.19867	686.5999756
1418.726339	685.2000122
1419.253952	689.0
1419.781511	686.0
1420.309014	688.2000122
1420.836461	686.2000122
1421.363854	685.7999878
1421.891191	685.5999756
1422.418474	688.5999756
1422.945701	686.7999878
1423.472872	689.0
1423.999989	687.7999878
1424.52705	691.0
1425.054057	688.5999756
1425.581008	688.5999756
1426.107904	689.5999756
1426.634745	690.4000244
1427.16153	689.5999756
1427.688261	684.0
1428.214936	687.4000244
1428.741556	686.4000244
1429.268121	686.2000122
1429.794631	685.2000122
1430.321085	682.4000244
1430.847485	678.0
1431.373829	682.7999878
1431.900118	684.0
1432.426353	685.7999878
1432.952532	684.5999756
1433.478655	681.7999878
1434.004724	682.5999756
1434.530738	685.0
1435.056696	681.5999756
1435.5826	680.2000122
1436.108448	684.2000122
1436.634241	681.5999756
1437.159979	684.7999878
1437.685662	685.2000122
1438.21129	682.2000122
1438.736863	684.2000122
1439.262381	681.2000122
1439.787843	686.0
1440.313251	682.2000122
1440.838603	683.4000244
1441.3639	683.0
1441.889143	683.7999878
1442.41433	683.0
1442.939462	682.5999756
1443.464539	681.7999878
1443.989561	682.2000122
1444.514528	682.2000122
1445.03944	682.5999756
1445.564297	682.4000244
1446.089099	681.7999878
1446.613846	682.2000122
1447.138537	681.5999756
1447.663174	682.2000122
1448.187756	680.7999878
1448.712282	683.0
1449.236754	680.7999878
1449.761171	680.0
1450.285532	684.2000122
1450.809839	681.2000122
1451.33409	679.2000122
1451.858287	681.4000244
1452.382428	678.5999756
1452.906515	681.7999878
1453.430546	680.7999878
1453.954523	678.7999878
1454.478444	679.5999756
1455.002311	680.0
1455.526123	677.5999756
1456.049879	681.2000122
1456.573581	681.5999756
1457.097227	681.4000244
1457.620819	677.5999756
1458.144356	679.4000244
1458.667837	680.0
1459.191264	679.0
1459.714636	684.2000122
1460.237952	682.5999756
1460.761214	680.5999756
1461.284421	682.4000244
1461.807573	682.2000122
1462.33067	680.7999878
1462.853712	709.2000122
1463.376699	721.5999756
1463.899632	687.5999756
1464.422509	682.4000244
1464.945331	677.4000244
1465.468099	681.0
1465.990811	680.7999878
1466.513469	682.2000122
1467.036071	679.4000244
1467.558619	682.2000122
1468.081112	679.4000244
1468.60355	680.4000244
1469.125933	679.2000122
1469.648261	679.5999756
1470.170534	678.5999756
1470.692752	677.7999878
1471.214916	679.4000244
1471.737024	678.4000244
1472.259078	683.5999756
1472.781077	679.0
1473.303021	678.0
1473.82491	680.0
1474.346744	674.7999878
1474.868523	676.5999756
1475.390248	677.0
1475.911917	677.7999878
1476.433532	677.5999756
1476.955092	674.7999878
1477.476597	678.5999756
1477.998047	681.0
1478.519442	680.2000122
1479.040783	676.7999878
1479.562068	675.4000244
1480.083299	678.7999878
1480.604475	676.0
1481.125596	680.7999878
1481.646663	677.7999878
1482.167674	678.4000244
1482.688631	679.0
1483.209533	679.0
1483.73038	680.4000244
1484.251172	676.5999756
1484.771909	677.0
1485.292592	680.7999878
1485.81322	678.2000122
1486.333793	680.2000122
1486.854311	677.4000244
1487.374775	679.0
1487.895183	678.2000122
1488.415537	672.7999878
1488.935836	674.7999878
1489.456081	677.2000122
1489.97627	676.7999878
1490.496405	674.0
1491.016485	678.2000122
1491.536511	673.4000244
1492.056481	680.7999878
1492.576397	676.7999878
1493.096258	677.5999756
1493.616064	678.7999878
1494.135816	680.0
1494.655513	676.4000244
1495.175155	677.7999878
1495.694742	676.7999878
1496.214274	678.4000244
1496.733752	676.4000244
1497.253175	677.2000122
1497.772544	676.5999756
1498.291858	679.2000122
1498.811116	680.0
1499.330321	678.4000244
1499.84947	686.7999878
1500.368565	676.0
1500.887605	674.4000244
1501.406591	679.4000244
1501.925521	677.7999878
1502.444397	677.4000244
1502.963219	680.0
1503.481985	677.0
1504.000697	676.7999878
1504.519355	674.0
1505.037957	676.2000122
1505.556505	674.4000244
1506.074999	678.2000122
1506.593437	677.0
1507.111821	676.7999878
1507.63015	679.7999878
1508.148425	675.7999878
1508.666645	677.0
1509.18481	676.2000122
1509.702921	675.5999756
1510.220977	678.7999878
1510.738979	685.7999878
1511.256925	677.2000122
1511.774817	676.7999878
1512.292655	678.0
1512.810438	677.2000122
1513.328166	676.7999878
1513.84584	679.0
1514.363459	675.4000244
1514.881023	678.2000122
1515.398533	677.7999878
1515.915988	677.2000122
1516.433389	677.0
1516.950734	677.4000244
1517.468026	676.0
1517.985263	678.7999878
1518.502445	678.4000244
1519.019572	675.4000244
1519.536645	675.5999756
1520.053664	678.7999878
1520.570628	676.5999756
1521.087537	677.5999756
1521.604392	677.7999878
1522.121192	675.7999878
1522.637937	679.4000244
1523.154628	675.7999878
1523.671265	680.2000122
1524.187847	678.7999878
1524.704374	678.5999756
1525.220847	677.4000244
1525.737265	689.4000244
1526.769938	693.4000244
1527.286192	677.5999756
1527.802392	676.0
1528.318538	673.7999878
1528.834629	679.5999756
1529.350666	675.4000244
1529.866648	679.5999756
1530.382575	679.4000244
1530.898448	677.4000244
1531.414266	677.7999878
1531.93003	674.2000122
1532.44574	677.4000244
1532.961395	677.2000122
1533.476995	677.7999878
1533.992541	676.0
1534.508033	678.2000122
1535.02347	679.4000244
1535.538852	676.7999878
1536.05418	676.0
1536.569454	674.4000244
1537.084673	677.0
1537.599837	679.0
1538.114947	676.7999878
1538.630003	677.7999878
1539.145004	674.2000122
1539.659951	676.7999878
1540.174843	678.0
1540.689681	678.0
1541.204465	680.2000122
1541.719194	680.2000122
1542.233868	677.4000244
1542.748488	676.5999756
1543.263054	677.7999878
1543.777565	676.7999878
1544.292022	677.0
1544.806424	675.4000244
1545.320772	676.5999756
1545.835066	679.5999756
1546.349305	678.4000244
1546.863489	678.2000122
1547.37762	676.0
1547.891696	677.0
1548.405717	677.4000244
1548.919684	678.2000122
1549.433597	678.7999878
1549.947455	679.4000244
1550.461259	678.0
1550.975009	677.4000244
1551.488704	679.5999756
1552.002345	676.5999756
1552.515931	679.0
1553.029463	677.2000122
1553.542941	676.5999756
1554.056364	678.5999756
1554.569733	674.7999878
1555.083048	681.0
1555.596308	679.7999878
1556.109514	680.5999756
1556.622665	679.2000122
1557.135762	680.2000122
1557.648805	678.5999756
1558.161794	679.0
1558.674728	682.2000122
1559.187608	678.5999756
1559.700433	678.4000244
1560.213205	676.4000244
1560.725921	676.7999878
1561.238584	681.0
1561.751192	679.2000122
1562.263746	681.4000244
1562.776246	679.0
1563.288691	681.7999878
1563.801082	681.0
1564.313419	683.4000244
1564.825701	680.7999878
1565.337929	681.5999756
1565.850103	680.7999878
1566.362223	682.7999878
1566.874288	684.0
1567.386299	683.2000122
1567.898256	682.5999756
1568.410158	686.7999878
1568.922007	681.2000122
1569.4338	683.2000122
1569.94554	678.5999756
1570.457226	679.2000122
1570.968857	679.0
1571.480434	679.2000122
1571.991956	682.0
1572.503425	677.4000244
1573.014839	678.5999756
1573.526199	676.4000244
1574.037505	678.2000122
1574.548756	681.2000122
1575.059953	680.2000122
1575.571096	677.0
1576.082185	676.4000244
1576.59322	676.4000244
1577.1042	679.5999756
1577.615126	680.0
1578.125998	680.4000244
1578.636816	678.5999756
1579.14758	680.4000244
1579.658289	679.2000122
1580.168944	678.2000122
1580.679545	678.7999878
1581.190092	679.4000244
1581.700585	677.7999878
1582.211023	677.4000244
1582.721407	678.4000244
1583.231737	679.0
1583.742013	679.0
1584.252235	675.4000244
1584.762403	677.7999878
1585.272516	676.2000122
1585.782575	677.5999756
1586.292581	677.4000244
1586.802532	676.2000122
1587.312428	678.7999878
1587.822271	679.0
1588.33206	679.7999878
1588.841794	679.5999756
1589.351474	676.2000122
1589.8611	678.2000122
1590.370672	673.2000122
1590.88019	678.2000122
1591.389654	674.5999756
1591.899064	677.7999878
1592.408419	678.2000122
