1042.452273	704.7999878
1043.018714	703.5999756
1043.585098	703.5999756
1044.151424	705.0
1044.717692	700.5999756
1045.283903	702.5999756
1045.850056	701.4000244
1046.416151	696.7999878
1046.982188	700.2000122
1047.548167	695.7999878
1048.114089	695.0
1048.679953	697.0
1049.24576	692.0
1049.811509	691.4000244
1050.3772	693.7999878
1050.942833	693.2000122
1051.508408	693.5999756
1052.073926	692.5999756
1052.639387	694.5999756
1053.204789	692.0
1053.770134	691.7999878
1054.335421	690.0
1054.900651	690.5999756
1055.465823	686.7999878
1056.030937	692.0
1056.595993	688.7999878
1057.160992	690.7999878
1057.725934	686.7999878
1058.290817	689.4000244
1058.855643	688.2000122
1059.420411	685.5999756
1059.985122	689.4000244
1060.549775	684.7999878
1061.114371	685.7999878
1061.678908	686.7999878
1062.243389	684.5999756
1062.807811	686.2000122
1063.372176	685.2000122
1063.936483	682.7999878
1064.500733	685.7999878
1065.064925	686.0
1065.62906	684.0
1066.193137	689.2000122
1066.757156	687.2000122
1067.321118	683.7999878
1067.885022	683.0
1068.448869	684.7999878
1069.012658	688.7999878
1069.57639	682.7999878
1070.140063	693.4000244
1070.70368	684.0
1071.267239	683.0
1071.83074	682.5999756
1072.394184	682.7999878
1072.95757	683.4000244
1073.520899	683.2000122
1074.08417	685.0
1074.647383	681.5999756
1075.21054	685.4000244
1075.773638	685.0
1076.336679	685.4000244
1076.899663	686.5999756
1077.462589	681.5999756
1078.025457	684.7999878
1078.588268	681.7999878
1079.151022	684.0
1079.713718	685.4000244
1080.276356	682.5999756
1080.838937	685.5999756
1081.401461	684.5999756
1081.963927	683.7999878
1082.526336	686.4000244
1083.088687	683.2000122
1083.650981	685.4000244
1084.213217	682.0
1084.775396	683.4000244
1085.337517	684.5999756
1085.899581	687.0
1086.461587	682.5999756
1087.023536	686.5999756
1087.585428	685.7999878
1088.147262	682.0
1088.709039	686.4000244
1089.270758	684.7999878
1089.83242	688.2000122
1090.394024	683.4000244
1090.955571	687.0
1091.517061	687.2000122
1092.078493	682.2000122
1092.639868	687.0
1093.201185	688.5999756
1093.762445	686.5999756
1094.323648	683.2000122
1094.884793	682.5999756
1095.445881	686.4000244
1096.006911	685.7999878
1096.567884	684.7999878
1097.1288	691.4000244
1097.689659	682.5999756
1098.25046	686.5999756
1098.811203	681.0
1099.37189	685.4000244
1099.932518	684.2000122
1100.49309	687.0
1101.053604	684.7999878
1101.614061	683.0
1102.174461	685.0
1102.734803	685.4000244
1103.295088	684.7999878
1103.855316	683.4000244
1104.415486	686.2000122
1104.975599	686.5999756
1105.535655	686.5999756
1106.095653	685.4000244
1106.655594	683.5999756
1107.215478	684.4000244
1107.775305	686.0
1108.335074	687.5999756
1108.894786	683.5999756
1109.45444	688.0
1110.014038	688.2000122
1110.573578	685.0
1111.133061	687.4000244
1111.692486	689.4000244
1112.251854	689.5999756
1112.811165	687.7999878
1113.370419	688.2000122
1113.929616	686.7999878
1114.488755	686.2000122
1115.047837	685.5999756
1115.606862	687.2000122
1116.16583	685.7999878
1116.72474	685.0
1117.283593	685.2000122
1117.842389	688.4000244
1118.401128	684.2000122
1118.959809	685.2000122
1119.518433	684.4000244
1120.077	684.0
1120.63551	683.7999878
1121.193963	684.0
1121.752358	683.4000244
1122.310697	685.0
1122.868978	683.5999756
1123.427202	684.0
1123.985368	682.4000244
1124.543478	684.2000122
1125.10153	685.0
1125.659526	683.0
1126.217464	683.5999756
1126.775345	685.4000244
1127.333168	683.7999878
1127.890935	681.2000122
1128.448644	680.0
1129.006297	677.5999756
1129.563892	679.0
1130.12143	683.0
1130.678911	684.5999756
1131.236335	680.2000122
1131.793701	678.2000122
1132.351011	680.2000122
1132.908263	682.2000122
1133.465458	683.2000122
1134.022597	682.4000244
1134.579678	681.5999756
1135.136702	682.4000244
1135.693669	681.4000244
1136.250578	682.7999878
1136.807431	682.4000244
1137.364227	682.5999756
1137.920965	681.0
1138.477647	684.0
1139.034271	678.7999878
1139.590839	679.4000244
1140.147349	682.2000122
1140.703802	683.0
1141.260198	679.7999878
1141.816537	680.7999878
1142.37282	684.0
1142.929045	682.2000122
1143.485213	685.5999756
1144.041323	680.5999756
1144.597377	683.2000122
1145.153374	681.4000244
1145.709314	683.4000244
1146.265197	683.2000122
1146.821023	682.7999878
1147.376792	680.0
1147.932503	680.2000122
1148.488158	682.4000244
1149.043756	686.7999878
1149.599297	682.2000122
1150.154781	684.4000244
1150.710207	684.4000244
1151.265577	685.0
1151.82089	684.2000122
1152.376146	682.4000244
1152.931345	681.5999756
1153.486487	682.2000122
1154.041572	683.7999878
1154.5966	682.0
1155.151571	684.7999878
1155.706485	680.5999756
1156.261342	682.4000244
1156.816142	683.2000122
1157.370885	682.4000244
1157.925572	685.0
1158.480201	684.5999756
1159.034774	682.4000244
1159.589289	685.0
1160.143748	685.0
1160.698149	681.2000122
1161.252494	683.7999878
1161.806782	681.0
1162.361013	684.2000122
1162.915187	680.7999878
1163.469304	682.7999878
1164.023364	680.5999756
1164.577368	684.2000122
1165.131314	684.0
1165.685204	684.0
1166.239036	681.7999878
1166.792812	682.7999878
1167.346531	682.0
1167.900193	682.2000122
1168.453798	684.2000122
1169.007347	678.7999878
1169.560838	684.7999878
1170.114273	682.5999756
1170.66765	684.4000244
1171.220971	685.4000244
1171.774235	680.2000122
1172.327443	684.7999878
1172.880593	681.0
1173.433687	682.0
1173.986723	680.4000244
1174.539703	684.5999756
1175.092626	679.2000122
1175.645493	679.0
1176.198302	681.4000244
1176.751055	683.0
1177.303751	682.4000244
1177.85639	681.5999756
1178.408972	684.0
1178.961498	684.2000122
1179.513966	686.0
1180.066378	682.4000244
1180.618733	682.0
1181.171032	684.7999878
1181.723273	683.5999756
1182.275458	684.2000122
1182.827586	684.4000244
1183.379657	682.0
1183.931672	686.0
1184.48363	685.7999878
1185.035531	687.0
1185.587375	684.0
1186.139162	686.2000122
1186.690893	686.5999756
1187.242567	684.7999878
1187.794184	683.7999878
1188.345745	684.4000244
1188.897249	687.4000244
1189.448696	683.4000244
1190.000086	681.2000122
1190.55142	682.2000122
1191.102697	683.7999878
1191.653918	685.2000122
1192.205081	682.5999756
1192.756188	684.0
1193.307238	702.0
1193.858232	684.0
1194.409169	681.5999756
1194.960049	682.2000122
1195.510872	683.5999756
1196.061639	681.5999756
1196.612349	685.2000122
1197.163003	679.4000244
1197.713599	676.7999878
1198.264139	682.5999756
1198.814623	681.5999756
1199.36505	681.2000122
1199.91542	683.7999878
1200.465734	683.4000244
1201.01599	678.0
1201.566191	680.2000122
1202.116334	681.4000244
1202.666421	681.4000244
1203.216452	681.2000122
1203.766425	682.7999878
1204.316343	679.5999756
1204.866203	680.0
1205.416007	682.2000122
1205.965754	681.2000122
1206.515445	683.2000122
1207.065079	683.4000244
1207.614657	681.4000244
1208.164177	683.0
1208.713642	684.4000244
1209.26305	682.2000122
1209.812401	682.5999756
1210.361695	681.4000244
1210.910933	681.7999878
1211.460115	683.5999756
1212.00924	686.4000244
1212.558308	681.7999878
1213.10732	686.5999756
1213.656275	681.7999878
1214.205174	682.2000122
1214.754016	686.4000244
1215.302801	681.0
1215.85153	681.0
1216.400203	680.7999878
1216.948819	681.2000122
1217.497378	683.4000244
1218.045881	685.0
1218.594327	682.5999756
1219.142717	682.7999878
1219.691051	684.4000244
1220.239327	684.4000244
1220.787548	683.2000122
1221.335712	688.7999878
1221.883819	684.7999878
1222.43187	688.7999878
1222.979864	688.5999756
1223.527802	686.2000122
1224.075683	683.4000244
1224.623508	685.7999878
1225.171277	686.7999878
1225.718989	682.7999878
1226.266644	681.2000122
1226.814243	689.2000122
1227.361786	686.4000244
1227.909272	687.4000244
1228.456702	686.4000244
1229.004075	684.2000122
1229.551392	684.2000122
1230.098652	687.2000122
1230.645856	686.5999756
1231.193003	685.0
1231.740094	688.4000244
1232.287129	685.0
1232.834107	686.5999756
1233.381029	683.4000244
1233.927894	687.0
1234.474703	686.5999756
1235.021455	686.4000244
1235.568151	685.5999756
1236.114791	681.0
1236.661374	685.2000122
1237.207901	680.7999878
1237.754372	691.2000122
1238.300786	688.2000122
1238.847144	683.0
1239.393445	686.5999756
1239.93969	682.4000244
1240.485879	682.4000244
1241.032011	684.7999878
1241.578087	687.2000122
1242.124106	687.5999756
1242.67007	682.5999756
1243.215976	689.4000244
1243.761827	684.4000244
1244.307621	682.5999756
1244.853359	685.2000122
1245.39904	685.4000244
1245.944665	687.2000122
1246.490234	684.7999878
1247.035746	686.5999756
1247.581203	686.5999756
1248.126602	690.2000122
1248.671946	686.0
1249.217233	687.2000122
1249.762464	688.7999878
1250.307638	685.2000122
1250.852757	689.0
1251.397819	686.5999756
1251.942824	686.7999878
1252.487774	683.4000244
1253.032667	692.7999878
1253.577503	686.2000122
1254.122284	688.4000244
1254.667008	687.2000122
1255.211676	686.5999756
1255.756288	685.5999756
1256.300843	685.5999756
1256.845342	689.5999756
1257.389785	691.0
1257.934172	691.7999878
1258.478502	692.5999756
1259.022776	693.5999756
1259.566994	692.0
1260.111156	710.4000244
1260.655261	690.2000122
1261.199311	695.5999756
1261.743304	697.5999756
1262.28724	704.0
1262.831121	704.4000244
1263.374945	714.2000122
1263.918713	722.0
1264.462425	725.2000122
1265.006081	721.5999756
1265.54968	711.0
1266.093223	700.4000244
1266.636711	697.4000244
1267.180141	692.2000122
1267.723516	689.4000244
1268.266835	691.4000244
1268.810097	690.2000122
1269.353303	691.0
1269.896453	686.7999878
1270.439547	692.4000244
1270.982584	685.2000122
1271.525566	690.0
1272.068491	692.2000122
1272.61136	690.7999878
1273.154173	690.4000244
1273.69693	689.7999878
1274.239631	691.7999878
1274.782275	688.0
1275.324864	689.5999756
1275.867396	689.0
1276.409872	691.2000122
1276.952292	691.5999756
1277.494656	693.2000122
1278.036964	692.7999878
1278.579215	696.0
1279.121411	701.0
1279.66355	701.5999756
1280.205634	704.7999878
1280.747661	711.0
1281.289632	727.5999756
1281.831547	744.7999878
1282.373406	800.0
1282.915209	893.7999878
1283.456955	1054.0
1283.998646	1234.599976
1284.540281	1306.599976
1285.081859	1106.0
1285.623381	899.0
1286.164848	787.5999756
1286.706258	745.2000122
1287.247612	717.0
1287.788911	710.4000244
1288.330153	701.5999756
1288.871339	700.4000244
1289.412469	699.0
1289.953543	695.5999756
1290.494561	696.2000122
1291.035523	693.4000244
1291.576428	692.4000244
1292.117278	695.2000122
1292.658072	686.5999756
1293.19881	690.7999878
1293.739492	691.7999878
1294.280118	692.5999756
1294.820687	693.2000122
1295.361201	688.7999878
1295.901659	689.5999756
1296.442061	685.5999756
1296.982406	689.0
1297.522696	687.7999878
1298.06293	687.7999878
1298.603108	682.7999878
1299.143229	687.2000122
1299.683295	686.2000122
1300.223305	689.2000122
1300.763259	687.7999878
1301.303157	686.5999756
1301.842999	686.2000122
1302.382785	687.2000122
1302.922515	685.2000122
1303.462189	687.2000122
1304.001807	685.4000244
1304.541369	690.7999878
1305.080875	688.4000244
1305.620326	687.2000122
1306.15972	681.7999878
1306.699058	684.0
1307.238341	683.7999878
1307.777567	684.2000122
1308.316738	683.7999878
1308.855853	684.4000244
1309.394912	683.4000244
1309.933915	685.4000244
1310.472862	681.4000244
1311.011753	686.0
1311.550588	686.0
1312.089367	687.0
1312.62809	686.4000244
1313.166758	686.4000244
1313.70537	683.7999878
1314.243925	680.2000122
1314.782425	681.7999878
1315.320869	684.7999878
1315.859257	683.5999756
1316.397589	679.4000244
1316.935866	681.0
1317.474086	679.7999878
1318.012251	685.2000122
1318.55036	687.0
1319.088413	684.5999756
1319.62641	686.7999878
1320.164351	682.0
1320.702236	685.2000122
1321.240066	681.2000122
1321.777839	683.2000122
1322.315557	682.0
1322.853219	680.7999878
1323.390826	683.2000122
1323.928376	684.5999756
1324.465871	685.4000244
1325.003309	682.4000244
1325.540692	683.7999878
1326.07802	686.4000244
1326.615291	683.5999756
1327.152506	682.0
1327.689666	682.7999878
1328.22677	685.2000122
1328.763818	681.7999878
1329.300811	684.4000244
1329.837747	682.0
1330.374628	681.2000122
1330.911453	681.5999756
1331.448222	683.4000244
1331.984936	684.4000244
1332.521594	680.5999756
1333.058196	682.2000122
1333.594742	681.5999756
1334.131232	683.4000244
1334.667667	682.5999756
1335.204046	681.5999756
1335.740369	681.4000244
1336.276637	686.4000244
1336.812848	678.5999756
1337.349004	683.5999756
1337.885105	682.0
1338.421149	682.4000244
1338.957138	684.5999756
1339.493071	684.5999756
1340.028949	681.7999878
1340.56477	684.7999878
1341.100536	684.5999756
1341.636246	683.5999756
1342.171901	681.7999878
1342.7075	679.5999756
1343.243043	685.2000122
1343.77853	683.5999756
1344.313962	683.7999878
1344.849338	680.5999756
1345.384659	684.2000122
1345.919923	686.5999756
1346.455133	683.5999756
1346.990286	686.0
1347.525384	681.5999756
1348.060426	684.0
1348.595412	684.0
1349.130343	684.2000122
1349.665218	683.7999878
1350.200037	681.5999756
1350.734801	680.0
1351.269509	682.4000244
1351.804162	684.0
1352.338758	680.0
1352.8733	685.7999878
1353.407785	687.5999756
1353.942215	683.0
1354.476589	687.2000122
1355.010908	682.4000244
1355.545171	684.4000244
1356.079379	684.0
1356.61353	684.2000122
1357.147627	684.5999756
1357.681667	684.0
1358.215652	682.7999878
1358.749582	681.4000244
1359.283456	681.4000244
1359.817274	682.0
1360.351037	683.0
1360.884744	685.7999878
1361.418395	683.4000244
1361.951991	681.2000122
1362.485531	685.4000244
1363.019016	684.4000244
1363.552445	684.7999878
1364.085819	683.7999878
1364.619137	689.5999756
1365.1524	686.0
1365.685607	688.2000122
1366.218758	689.2000122
1366.751854	688.0
1367.284894	681.7999878
1367.817879	684.2000122
1368.350808	690.5999756
1368.883682	686.5999756
1369.4165	691.0
1369.949263	712.2000122
1370.48197	712.2000122
1371.014622	692.5999756
1371.547218	691.0
1372.079758	690.2000122
1372.612244	686.4000244
1373.144673	688.2000122
1373.677047	689.0
1374.209366	686.7999878
1374.741629	685.4000244
1375.273836	687.7999878
1375.805989	690.0
1376.338085	688.2000122
1376.870126	691.7999878
1377.402112	689.4000244
1377.934042	691.5999756
1378.465917	689.0
1378.997736	690.0
1379.5295	689.4000244
1380.061208	694.4000244
1380.592861	699.5999756
1381.124459	696.7999878
1381.656	699.0
1382.187487	695.7999878
1382.718918	698.5999756
1383.250294	707.2000122
1383.781614	712.0
1384.312879	712.0
1384.844088	725.2000122
1385.375242	743.4000244
1385.90634	776.5999756
1386.437383	836.4000244
1386.968371	984.5999756
1387.499303	1362.800049
1388.03018	1916.199951
1388.561001	1840.400024
1389.091767	1229.0
1389.622478	893.7999878
1390.153133	788.2000122
1390.683733	744.2000122
1391.214277	725.2000122
1391.744766	713.2000122
1392.2752	706.0
1392.805578	701.7999878
1393.335901	697.4000244
1393.866168	701.5999756
1394.396381	692.2000122
1394.926537	691.4000244
1395.456639	694.4000244
1395.986685	690.4000244
1396.516675	689.2000122
1397.046611	691.4000244
1397.576491	690.0
1398.106315	688.4000244
1398.636084	687.0
1399.165798	689.7999878
1399.695457	688.4000244
1400.22506	690.0
1400.754608	689.0
1401.284101	688.7999878
1401.813538	688.5999756
1402.34292	688.7999878
1402.872247	690.5999756
1403.401518	692.4000244
1403.930734	691.5999756
1404.459895	691.4000244
1404.989	689.5999756
1405.51805	694.4000244
1406.047045	696.2000122
1406.575984	699.0
1407.104869	700.5999756
1407.633697	704.2000122
1408.162471	717.2000122
1408.691189	730.5999756
1409.219852	742.2000122
1409.74846	750.2000122
1410.277013	743.2000122
1410.80551	726.0
1411.333952	712.4000244
1411.862339	696.2000122
1412.39067	695.2000122
1412.918946	691.0
1413.447167	688.0
1413.975333	686.2000122
1414.503444	684.4000244
1415.031499	683.2000122
1415.559499	696.4000244
1416.087444	686.0
1416.615333	683.4000244
1417.143167	681.5999756
1417.670947	680.4000244
1418.19867	681.5999756
1418.726339	683.5999756
1419.253952	680.5999756
1419.781511	677.5999756
1420.309014	683.0
1420.836461	680.4000244
1421.363854	680.0
1421.891191	682.7999878
1422.418474	681.2000122
1422.945701	684.0
1423.472872	681.5999756
1423.999989	682.4000244
1424.52705	682.2000122
1425.054057	684.5999756
1425.581008	682.4000244
1426.107904	679.7999878
1426.634745	681.5999756
1427.16153	683.2000122
1427.688261	682.5999756
1428.214936	681.5999756
1428.741556	678.4000244
1429.268121	682.5999756
1429.794631	677.7999878
1430.321085	680.5999756
1430.847485	680.2000122
1431.373829	678.5999756
1431.900118	682.2000122
1432.426353	681.4000244
1432.952532	682.0
1433.478655	681.0
1434.004724	682.4000244
1434.530738	681.5999756
1435.056696	681.5999756
1435.5826	682.4000244
1436.108448	681.0
1436.634241	679.2000122
1437.159979	681.5999756
1437.685662	683.2000122
1438.21129	679.7999878
1438.736863	681.0
1439.262381	681.7999878
1439.787843	679.0
1440.313251	682.0
1440.838603	685.0
1441.3639	679.4000244
1441.889143	680.0
1442.41433	680.0
1442.939462	680.4000244
1443.464539	685.7999878
1443.989561	679.5999756
1444.514528	679.4000244
1445.03944	681.2000122
1445.564297	682.2000122
1446.089099	682.2000122
1446.613846	680.7999878
1447.138537	680.4000244
1447.663174	684.7999878
1448.187756	680.5999756
1448.712282	677.0
1449.236754	679.0
1449.761171	677.4000244
1450.285532	681.7999878
1450.809839	679.4000244
1451.33409	680.7999878
1451.858287	682.0
1452.382428	680.7999878
1452.906515	679.0
1453.430546	677.7999878
1453.954523	678.5999756
1454.478444	677.5999756
1455.002311	676.0
1455.526123	682.4000244
1456.049879	683.2000122
1456.573581	678.5999756
1457.097227	679.7999878
1457.620819	680.2000122
1458.144356	676.4000244
1458.667837	680.4000244
1459.191264	679.7999878
1459.714636	679.5999756
1460.237952	678.5999756
1460.761214	676.7999878
1461.284421	681.7999878
1461.807573	678.7999878
1462.33067	678.7999878
1462.853712	697.7999878
1463.899632	685.5999756
1464.422509	680.4000244
1464.945331	680.0
1465.468099	680.7999878
1465.990811	678.4000244
1466.513469	680.0
1467.036071	682.0
1467.558619	679.7999878
1468.081112	676.7999878
1468.60355	678.7999878
1469.125933	679.2000122
1469.648261	678.5999756
1470.170534	680.2000122
1470.692752	677.7999878
1471.214916	678.4000244
1471.737024	678.5999756
1472.259078	675.5999756
1472.781077	679.5999756
1473.303021	677.0
1473.82491	675.0
1474.346744	681.2000122
1474.868523	679.0
1475.390248	676.7999878
1475.911917	678.4000244
1476.433532	676.2000122
1476.955092	679.5999756
1477.476597	676.5999756
1477.998047	679.4000244
1478.519442	680.0
1479.040783	679.2000122
1479.562068	679.7999878
1480.083299	674.7999878
1480.604475	678.5999756
1481.125596	680.4000244
1481.646663	677.5999756
1482.167674	677.5999756
1482.688631	677.0
1483.209533	676.2000122
1483.73038	675.7999878
1484.251172	679.2000122
1484.771909	680.2000122
1485.292592	674.7999878
1485.81322	676.7999878
1486.333793	675.2000122
1486.854311	677.7999878
1487.374775	672.5999756
1487.895183	678.0
1488.415537	677.4000244
1488.935836	675.5999756
1489.456081	674.5999756
1489.97627	675.2000122
1490.496405	673.2000122
1491.016485	675.5999756
1491.536511	677.4000244
1492.056481	677.2000122
1492.576397	676.7999878
1493.096258	677.0
1493.616064	676.2000122
1494.135816	679.0
1494.655513	677.2000122
1495.175155	679.0
1495.694742	675.7999878
1496.214274	677.7999878
1496.733752	678.2000122
1497.253175	676.0
1497.772544	674.2000122
1498.291858	674.2000122
1498.811116	673.0
1499.330321	673.4000244
1499.84947	683.4000244
1500.368565	676.0
1500.887605	677.5999756
1501.406591	675.5999756
1501.925521	678.0
1502.444397	678.0
1502.963219	674.4000244
1503.481985	672.7999878
1504.000697	679.0
1504.519355	675.7999878
1505.037957	676.4000244
1505.556505	673.2000122
1506.074999	675.0
1506.593437	674.7999878
1507.111821	675.4000244
1507.63015	673.0
1508.148425	678.4000244
1508.666645	675.7999878
1509.18481	678.0
1509.702921	674.4000244
1510.220977	676.0
1510.738979	687.0
1511.256925	675.0
1511.774817	675.4000244
1512.292655	677.4000244
1512.810438	674.5999756
1513.328166	672.2000122
1513.84584	676.7999878
1514.363459	676.2000122
1514.881023	676.2000122
1515.398533	674.2000122
1515.915988	674.7999878
1516.433389	673.4000244
1516.950734	678.0
1517.468026	675.7999878
1517.985263	676.0
1518.502445	675.2000122
1519.019572	674.2000122
1519.536645	675.0
1520.053664	676.7999878
1520.570628	671.0
1521.087537	676.5999756
1521.604392	676.4000244
1522.121192	677.4000244
1522.637937	675.2000122
1523.154628	677.4000244
1523.671265	677.0
1524.187847	677.4000244
1524.704374	676.2000122
1525.220847	676.5999756
1525.737265	684.7999878
1526.253629	701.7999878
1526.769938	689.0
1527.286192	676.2000122
1527.802392	676.2000122
1528.318538	680.4000244
1528.834629	675.0
1529.350666	675.4000244
1529.866648	678.2000122
1530.382575	674.5999756
1530.898448	673.2000122
1531.414266	675.7999878
1531.93003	677.4000244
1532.44574	675.0
1532.961395	675.7999878
1533.476995	676.5999756
1533.992541	675.2000122
1534.508033	676.4000244
1535.02347	676.5999756
1535.538852	677.5999756
1536.05418	676.7999878
1536.569454	675.7999878
1537.084673	676.0
1537.599837	674.4000244
1538.114947	675.4000244
1538.630003	676.2000122
1539.145004	676.7999878
1539.659951	677.7999878
1540.174843	676.5999756
1540.689681	672.0
1541.204465	677.4000244
1541.719194	676.4000244
1542.233868	675.0
1542.748488	673.5999756
1543.263054	673.7999878
1543.777565	675.2000122
1544.292022	674.2000122
1544.806424	673.7999878
1545.320772	672.2000122
1545.835066	676.4000244
1546.349305	675.5999756
1546.863489	673.7999878
1547.37762	676.0
1547.891696	673.7999878
1548.405717	675.5999756
1548.919684	673.5999756
1549.433597	674.7999878
1549.947455	677.5999756
1550.461259	675.0
1550.975009	677.4000244
1551.488704	677.5999756
1552.002345	676.4000244
1552.515931	677.2000122
1553.029463	677.4000244
1553.542941	674.5999756
1554.056364	679.2000122
1554.569733	677.0
1555.083048	674.2000122
1555.596308	677.0
1556.109514	676.5999756
1556.622665	676.4000244
1557.135762	677.2000122
1557.648805	676.4000244
1558.161794	677.7999878
1558.674728	676.5999756
1559.187608	677.4000244
1559.700433	676.4000244
1560.213205	677.7999878
1560.725921	673.4000244
1561.238584	674.2000122
1561.751192	676.2000122
1562.263746	679.7999878
1562.776246	673.4000244
1563.288691	677.2000122
1563.801082	675.4000244
1564.313419	674.7999878
1564.825701	680.5999756
1565.337929	673.5999756
1565.850103	679.2000122
1566.362223	680.2000122
1566.874288	679.0
1567.386299	680.0
1567.898256	681.4000244
1568.410158	678.0
1568.922007	679.0
1569.4338	679.2000122
1569.94554	678.0
1570.457226	677.5999756
1570.968857	678.0
1571.480434	673.7999878
1571.991956	673.4000244
1572.503425	674.4000244
1573.014839	676.5999756
1573.526199	676.7999878
1574.037505	678.2000122
1574.548756	673.4000244
1575.059953	676.7999878
1575.571096	675.5999756
1576.082185	675.5999756
1576.59322	677.5999756
1577.1042	675.4000244
1577.615126	675.4000244
1578.125998	675.0
1578.636816	678.7999878
1579.14758	674.2000122
1579.658289	677.5999756
1580.168944	677.4000244
1580.679545	671.4000244
1581.190092	676.0
1581.700585	678.7999878
1582.211023	674.7999878
1582.721407	677.4000244
1583.231737	672.4000244
1583.742013	673.5999756
1584.252235	676.5999756
1584.762403	677.2000122
1585.272516	678.0
1585.782575	674.7999878
1586.292581	675.7999878
1586.802532	674.7999878
1587.312428	674.4000244
1587.822271	673.2000122
1588.33206	678.4000244
1588.841794	675.7999878
1589.351474	676.5999756
1589.8611	675.0
1590.370672	671.5999756
1590.88019	674.7999878
1591.389654	678.5999756
1591.899064	676.0
1592.408419	674.7999878
