1042.452273	705.7999878
1043.018714	709.7999878
1043.585098	706.0
1044.151424	705.4000244
1044.717692	700.5999756
1045.283903	698.2000122
1045.850056	702.0
1046.416151	698.7999878
1046.982188	697.5999756
1047.548167	697.4000244
1048.114089	694.7999878
1048.679953	695.4000244
1049.24576	690.4000244
1049.811509	694.7999878
1050.3772	690.5999756
1050.942833	689.2000122
1051.508408	691.2000122
1052.073926	688.4000244
1052.639387	693.0
1053.204789	692.0
1053.770134	688.4000244
1054.335421	692.4000244
1054.900651	691.2000122
1055.465823	689.5999756
1056.030937	687.7999878
1056.595993	687.7999878
1057.160992	688.4000244
1057.725934	683.5999756
1058.290817	688.5999756
1058.855643	689.5999756
1059.420411	690.5999756
1059.985122	689.2000122
1060.549775	686.5999756
1061.114371	687.7999878
1061.678908	685.7999878
1062.243389	682.2000122
1062.807811	683.2000122
1063.372176	684.4000244
1063.936483	684.5999756
1064.500733	684.7999878
1065.064925	684.5999756
1065.62906	683.0
1066.193137	685.0
1066.757156	685.4000244
1067.321118	686.0
1067.885022	684.2000122
1068.448869	686.2000122
1069.012658	682.5999756
1069.57639	684.4000244
1070.140063	693.2000122
1070.70368	685.5999756
1071.267239	687.2000122
1071.83074	682.0
1072.394184	686.2000122
1072.95757	685.4000244
1073.520899	681.5999756
1074.08417	687.4000244
1074.647383	683.0
1075.21054	684.0
1075.773638	684.0
1076.336679	682.7999878
1076.899663	683.4000244
1077.462589	683.7999878
1078.025457	684.0
1078.588268	681.2000122
1079.151022	682.2000122
1079.713718	681.7999878
1080.276356	685.0
1080.838937	682.4000244
1081.401461	681.4000244
1081.963927	681.4000244
1082.526336	686.4000244
1083.088687	684.0
1083.650981	681.5999756
1084.213217	686.2000122
1084.775396	685.5999756
1085.337517	684.2000122
1085.899581	684.7999878
1086.461587	684.2000122
1087.023536	681.4000244
1087.585428	682.0
1088.147262	682.0
1088.709039	682.5999756
1089.270758	682.5999756
1089.83242	685.4000244
1090.394024	683.2000122
1090.955571	684.4000244
1091.517061	683.4000244
1092.078493	686.0
1092.639868	683.4000244
1093.201185	682.2000122
1093.762445	684.5999756
1094.323648	682.4000244
1094.884793	686.0
1095.445881	687.4000244
1096.006911	686.5999756
1096.567884	682.4000244
1097.1288	692.7999878
1097.689659	684.4000244
1098.25046	683.5999756
1098.811203	686.7999878
1099.37189	683.0
1099.932518	683.4000244
1100.49309	686.4000244
1101.053604	683.7999878
1101.614061	683.4000244
1102.174461	684.0
1102.734803	683.4000244
1103.295088	683.4000244
1103.855316	681.5999756
1104.415486	682.4000244
1104.975599	681.5999756
1105.535655	682.7999878
1106.095653	684.5999756
1106.655594	684.5999756
1107.215478	685.2000122
1107.775305	683.2000122
1108.335074	684.4000244
1108.894786	686.5999756
1109.45444	687.5999756
1110.014038	685.5999756
1110.573578	686.2000122
1111.133061	690.5999756
1111.692486	692.2000122
1112.251854	684.7999878
1112.811165	687.0
1113.370419	686.7999878
1113.929616	686.4000244
1114.488755	688.5999756
1115.047837	688.7999878
1115.606862	685.4000244
1116.16583	687.0
1116.72474	681.7999878
1117.283593	683.2000122
1117.842389	680.2000122
1118.401128	681.4000244
1118.959809	686.7999878
1119.518433	681.2000122
1120.077	683.7999878
1120.63551	681.2000122
1121.193963	680.4000244
1121.752358	685.2000122
1122.310697	680.5999756
1122.868978	683.0
1123.427202	683.4000244
1123.985368	682.7999878
1124.543478	679.2000122
1125.10153	681.0
1125.659526	684.4000244
1126.217464	681.4000244
1126.775345	682.2000122
1127.333168	680.0
1127.890935	683.7999878
1128.448644	684.0
1129.006297	678.4000244
1129.563892	679.2000122
1130.12143	680.0
1130.678911	679.2000122
1131.236335	681.0
1131.793701	684.0
1132.351011	683.7999878
1132.908263	680.2000122
1133.465458	680.7999878
1134.022597	682.0
1134.579678	680.4000244
1135.136702	682.7999878
1135.693669	677.4000244
1136.250578	682.4000244
1136.807431	678.0
1137.364227	677.5999756
1137.920965	681.5999756
1138.477647	684.7999878
1139.034271	680.0
1139.590839	682.2000122
1140.147349	681.5999756
1140.703802	683.5999756
1141.260198	680.2000122
1141.816537	679.4000244
1142.37282	681.4000244
1142.929045	684.2000122
1143.485213	682.4000244
1144.041323	683.5999756
1144.597377	682.2000122
1145.153374	682.7999878
1145.709314	682.5999756
1146.265197	680.5999756
1146.821023	679.2000122
1147.376792	681.4000244
1147.932503	680.7999878
1148.488158	680.7999878
1149.043756	685.7999878
1149.599297	684.5999756
1150.154781	679.2000122
1150.710207	679.4000244
1151.265577	680.7999878
1151.82089	683.0
1152.376146	683.0
1152.931345	677.5999756
1153.486487	683.4000244
1154.041572	680.4000244
1154.5966	682.2000122
1155.151571	683.0
1155.706485	680.0
1156.261342	685.0
1156.816142	680.2000122
1157.370885	686.0
1157.925572	681.0
1158.480201	678.2000122
1159.034774	680.0
1159.589289	683.4000244
1160.143748	681.7999878
1160.698149	683.0
1161.252494	682.0
1161.806782	683.2000122
1162.361013	684.0
1162.915187	682.2000122
1163.469304	680.5999756
1164.023364	683.0
1164.577368	681.0
1165.131314	680.7999878
1165.685204	679.7999878
1166.239036	683.2000122
1166.792812	680.7999878
1167.346531	683.0
1167.900193	678.2000122
1168.453798	680.0
1169.007347	680.2000122
1169.560838	682.2000122
1170.114273	681.5999756
1170.66765	684.0
1171.220971	676.5999756
1171.774235	679.7999878
1172.327443	680.4000244
1172.880593	683.0
1173.433687	683.7999878
1173.986723	681.4000244
1174.539703	679.7999878
1175.092626	680.2000122
1175.645493	681.5999756
1176.198302	681.5999756
1176.751055	681.5999756
1177.303751	685.2000122
1177.85639	680.4000244
1178.408972	680.7999878
1178.961498	680.2000122
1179.513966	679.7999878
1180.066378	680.7999878
1180.618733	680.4000244
1181.171032	682.2000122
1181.723273	680.0
1182.275458	681.7999878
1182.827586	682.5999756
1183.379657	679.5999756
1183.931672	680.0
1184.48363	685.2000122
1185.035531	687.4000244
1185.587375	684.4000244
1186.139162	685.7999878
1186.690893	684.5999756
1187.242567	681.7999878
1187.794184	685.5999756
1188.345745	683.0
1188.897249	685.7999878
1189.448696	681.7999878
1190.000086	685.5999756
1190.55142	685.5999756
1191.102697	681.2000122
1191.653918	682.4000244
1192.205081	681.0
1192.756188	679.4000244
1193.307238	706.5999756
1193.858232	680.0
1194.409169	679.2000122
1194.960049	681.0
1195.510872	684.7999878
1196.061639	680.5999756
1196.612349	681.4000244
1197.163003	678.0
1197.713599	679.4000244
1198.264139	679.5999756
1198.814623	677.2000122
1199.36505	681.4000244
1199.91542	681.0
1200.465734	679.5999756
1201.01599	680.0
1201.566191	680.4000244
1202.116334	680.2000122
1202.666421	679.7999878
1203.216452	681.0
1203.766425	680.2000122
1204.316343	680.2000122
1204.866203	683.0
1205.416007	676.7999878
1205.965754	683.0
1206.515445	679.2000122
1207.065079	681.7999878
1207.614657	684.5999756
1208.164177	681.2000122
1208.713642	684.4000244
1209.26305	681.5999756
1209.812401	680.2000122
1210.361695	683.7999878
1210.910933	681.4000244
1211.460115	681.0
1212.00924	681.0
1212.558308	682.7999878
1213.10732	682.0
1213.656275	681.5999756
1214.205174	683.2000122
1214.754016	683.2000122
1215.302801	681.7999878
1215.85153	682.4000244
1216.400203	684.0
1216.948819	680.7999878
1217.497378	682.5999756
1218.045881	682.4000244
1218.594327	687.2000122
1219.142717	684.2000122
1219.691051	683.4000244
1220.239327	684.2000122
1220.787548	681.0
1221.335712	685.0
1221.883819	684.5999756
1222.43187	681.4000244
1222.979864	685.4000244
1223.527802	683.7999878
1224.075683	684.2000122
1224.623508	685.2000122
1225.171277	684.2000122
1225.718989	685.7999878
1226.266644	682.4000244
1226.814243	685.2000122
1227.361786	684.4000244
1227.909272	686.4000244
1228.456702	685.7999878
1229.004075	682.7999878
1229.551392	683.5999756
1230.098652	683.0
1230.645856	684.4000244
1231.193003	681.7999878
1231.740094	686.4000244
1232.287129	684.2000122
1232.834107	686.5999756
1233.381029	684.2000122
1233.927894	683.4000244
1234.474703	686.4000244
1235.021455	682.7999878
1235.568151	685.0
1236.114791	684.7999878
1236.661374	683.2000122
1237.207901	687.5999756
1237.754372	685.2000122
1238.300786	686.2000122
1238.847144	684.4000244
1239.393445	686.4000244
1239.93969	684.2000122
1240.485879	686.0
1241.032011	683.2000122
1241.578087	684.2000122
1242.124106	686.4000244
1242.67007	687.5999756
1243.215976	682.5999756
1243.761827	683.4000244
1244.307621	684.0
1244.853359	686.0
1245.39904	684.7999878
1245.944665	684.4000244
1246.490234	686.5999756
1247.035746	688.5999756
1247.581203	683.5999756
1248.126602	685.5999756
1248.671946	685.4000244
1249.217233	688.2000122
1249.762464	685.2000122
1250.307638	687.7999878
1250.852757	685.7999878
1251.397819	684.2000122
1251.942824	685.5999756
1252.487774	686.7999878
1253.032667	687.4000244
1253.577503	687.0
1254.122284	686.5999756
1254.667008	687.5999756
1255.211676	686.4000244
1255.756288	685.2000122
1256.300843	687.0
1256.845342	685.5999756
1257.389785	688.4000244
1257.934172	690.2000122
1258.478502	693.0
1259.022776	691.7999878
1259.566994	691.2000122
1260.111156	711.7999878
1260.655261	689.4000244
1261.199311	692.7999878
1261.743304	696.2000122
1262.28724	702.0
1262.831121	705.7999878
1263.374945	712.0
1263.918713	722.5999756
1264.462425	718.4000244
1265.006081	718.4000244
1265.54968	708.7999878
1266.093223	700.4000244
1266.636711	694.2000122
1267.180141	689.4000244
1267.723516	690.0
1268.266835	688.2000122
1268.810097	687.2000122
1269.353303	689.5999756
1269.896453	687.0
1270.439547	690.0
1270.982584	686.7999878
1271.525566	690.4000244
1272.068491	688.0
1272.61136	690.2000122
1273.154173	688.5999756
1273.69693	688.4000244
1274.239631	686.0
1274.782275	689.4000244
1275.324864	688.5999756
1275.867396	692.2000122
1276.409872	688.2000122
1276.952292	689.0
1277.494656	689.5999756
1278.036964	693.7999878
1278.579215	693.7999878
1279.121411	696.2000122
1279.66355	693.2000122
1280.205634	706.2000122
1280.747661	709.5999756
1281.289632	725.5999756
1281.831547	747.5999756
1282.373406	799.4000244
1282.915209	893.5999756
1283.456955	1065.800049
1283.998646	1246.599976
1284.540281	1295.599976
1285.081859	1114.199951
1285.623381	901.2000122
1286.164848	790.4000244
1286.706258	741.5999756
1287.247612	719.5999756
1287.788911	709.2000122
1288.330153	701.4000244
1288.871339	697.2000122
1289.412469	697.2000122
1289.953543	694.4000244
1290.494561	695.7999878
1291.035523	697.2000122
1291.576428	688.7999878
1292.117278	688.2000122
1292.658072	686.7999878
1293.19881	690.0
1293.739492	688.4000244
1294.280118	691.2000122
1294.820687	689.0
1295.361201	686.5999756
1295.901659	685.5999756
1296.442061	687.0
1296.982406	688.5999756
1297.522696	689.7999878
1298.06293	685.5999756
1298.603108	683.0
1299.143229	687.0
1299.683295	687.5999756
1300.223305	685.7999878
1300.763259	683.7999878
1301.303157	687.0
1301.842999	685.5999756
1302.382785	685.7999878
1302.922515	685.5999756
1303.462189	684.5999756
1304.001807	687.5999756
1304.541369	682.2000122
1305.080875	687.7999878
1305.620326	682.4000244
1306.15972	688.0
1306.699058	687.4000244
1307.238341	685.4000244
1307.777567	686.7999878
1308.316738	683.5999756
1308.855853	682.5999756
1309.394912	685.7999878
1309.933915	684.4000244
1310.472862	681.7999878
1311.011753	684.2000122
1311.550588	685.0
1312.089367	685.7999878
1312.62809	683.7999878
1313.166758	685.7999878
1313.70537	683.0
1314.243925	685.0
1314.782425	684.4000244
1315.320869	680.2000122
1315.859257	683.0
1316.397589	680.7999878
1316.935866	684.2000122
1317.474086	684.7999878
1318.012251	681.7999878
1318.55036	685.4000244
1319.088413	681.4000244
1319.62641	680.5999756
1320.164351	683.2000122
1320.702236	680.5999756
1321.240066	681.4000244
1321.777839	681.4000244
1322.315557	681.7999878
1322.853219	678.2000122
1323.390826	683.0
1323.928376	689.2000122
1324.465871	680.0
1325.003309	680.2000122
1325.540692	680.7999878
1326.07802	682.0
1326.615291	681.5999756
1327.152506	680.2000122
1327.689666	680.7999878
1328.22677	681.5999756
1328.763818	678.4000244
1329.300811	682.4000244
1329.837747	679.5999756
1330.374628	678.5999756
1330.911453	682.5999756
1331.448222	681.2000122
1331.984936	681.7999878
1332.521594	683.5999756
1333.058196	684.4000244
1333.594742	680.7999878
1334.131232	680.5999756
1334.667667	679.4000244
1335.204046	683.2000122
1335.740369	682.2000122
1336.276637	684.5999756
1336.812848	680.7999878
1337.349004	682.0
1337.885105	682.2000122
1338.421149	682.0
1338.957138	679.4000244
1339.493071	680.0
1340.028949	685.7999878
1340.56477	684.2000122
1341.100536	678.7999878
1341.636246	682.7999878
1342.171901	681.2000122
1342.7075	680.7999878
1343.243043	680.7999878
1343.77853	679.5999756
1344.313962	680.4000244
1344.849338	681.0
1345.384659	683.4000244
1345.919923	683.7999878
1346.455133	681.4000244
1346.990286	682.7999878
1347.525384	684.2000122
1348.060426	680.0
1348.595412	677.7999878
1349.130343	681.0
1349.665218	681.2000122
1350.200037	684.0
1350.734801	679.4000244
1351.269509	679.2000122
1351.804162	682.5999756
1352.338758	679.5999756
1352.8733	683.2000122
1353.407785	681.0
1353.942215	683.2000122
1354.476589	682.7999878
1355.010908	680.0
1355.545171	685.0
1356.079379	684.2000122
1356.61353	685.5999756
1357.147627	685.2000122
1357.681667	687.0
1358.215652	684.7999878
1358.749582	687.0
1359.283456	683.4000244
1359.817274	681.5999756
1360.351037	681.7999878
1360.884744	685.2000122
1361.418395	682.7999878
1361.951991	691.7999878
1362.485531	683.7999878
1363.019016	685.2000122
1363.552445	681.5999756
1364.085819	683.7999878
1364.619137	685.5999756
1365.1524	686.7999878
1365.685607	689.7999878
1366.218758	686.5999756
1366.751854	685.7999878
1367.284894	686.0
1367.817879	684.0
1368.350808	689.0
1368.883682	686.5999756
1369.4165	691.7999878
1369.949263	707.5999756
1370.48197	711.2000122
1371.014622	695.0
1371.547218	692.4000244
1372.079758	684.5999756
1372.612244	688.0
1373.144673	684.0
1373.677047	686.7999878
1374.209366	687.4000244
1374.741629	686.4000244
1375.273836	688.5999756
1375.805989	688.5999756
1376.338085	690.7999878
1376.870126	685.7999878
1377.402112	686.4000244
1377.934042	689.0
1378.465917	688.5999756
1378.997736	692.4000244
1379.5295	690.0
1380.061208	692.4000244
1380.592861	697.2000122
1381.124459	698.4000244
1381.656	697.0
1382.187487	698.0
1382.718918	700.5999756
1383.250294	703.2000122
1383.781614	711.0
1384.312879	713.0
1384.844088	726.4000244
1385.375242	740.4000244
1385.90634	769.4000244
1386.437383	837.4000244
1386.968371	989.5999756
1387.499303	1358.199951
1388.03018	1904.800049
1388.561001	1830.599976
1389.091767	1236.599976
1389.622478	892.2000122
1390.153133	781.0
1390.683733	741.7999878
1391.214277	721.7999878
1391.744766	711.7999878
1392.2752	709.7999878
1392.805578	700.4000244
1393.335901	694.7999878
1393.866168	699.5999756
1394.396381	691.7999878
1394.926537	693.7999878
1395.456639	692.7999878
1395.986685	692.5999756
1396.516675	691.0
1397.046611	688.5999756
1397.576491	686.5999756
1398.106315	690.4000244
1398.636084	688.2000122
1399.165798	691.2000122
1399.695457	691.5999756
1400.22506	687.7999878
1400.754608	684.4000244
1401.284101	689.0
1401.813538	690.5999756
1402.34292	685.4000244
1402.872247	689.5999756
1403.401518	689.2000122
1403.930734	690.5999756
1404.459895	685.7999878
1404.989	694.5999756
1405.51805	694.4000244
1406.047045	692.0
1406.575984	691.0
1407.104869	697.5999756
1407.633697	706.5999756
1408.162471	713.5999756
1408.691189	724.5999756
1409.219852	742.0
1409.74846	756.7999878
1410.277013	742.4000244
1410.80551	719.2000122
1411.333952	709.4000244
1411.862339	699.7999878
1412.39067	694.0
1412.918946	692.2000122
1413.447167	690.4000244
1413.975333	688.0
1414.503444	681.0
1415.031499	684.0
1415.559499	696.0
1416.087444	683.0
1416.615333	682.4000244
1417.143167	684.0
1417.670947	684.0
1418.19867	681.5999756
1418.726339	681.7999878
1419.253952	681.0
1419.781511	683.7999878
1420.309014	684.4000244
1420.836461	682.0
1421.363854	682.5999756
1421.891191	682.7999878
1422.418474	682.7999878
1422.945701	684.4000244
1423.472872	682.0
1423.999989	679.0
1424.52705	683.0
1425.054057	681.7999878
1425.581008	683.2000122
1426.107904	680.4000244
1426.634745	678.5999756
1427.16153	679.0
1427.688261	682.0
1428.214936	682.2000122
1428.741556	679.2000122
1429.268121	681.7999878
1429.794631	680.2000122
1430.321085	681.2000122
1430.847485	678.2000122
1431.373829	680.5999756
1431.900118	677.7999878
1432.426353	676.7999878
1432.952532	679.2000122
1433.478655	681.2000122
1434.004724	679.7999878
1434.530738	678.4000244
1435.056696	678.4000244
1435.5826	678.0
1436.108448	684.0
1436.634241	681.0
1437.159979	677.2000122
1437.685662	679.4000244
1438.21129	680.5999756
1438.736863	678.0
1439.262381	677.7999878
1439.787843	680.2000122
1440.313251	681.2000122
1440.838603	679.4000244
1441.3639	679.7999878
1441.889143	680.2000122
1442.41433	679.4000244
1442.939462	677.0
1443.464539	679.5999756
1443.989561	679.5999756
1444.514528	684.7999878
1445.03944	681.2000122
1445.564297	677.7999878
1446.089099	677.2000122
1446.613846	678.5999756
1447.138537	679.4000244
1447.663174	677.4000244
1448.187756	677.7999878
1448.712282	683.0
1449.236754	677.2000122
1449.761171	680.5999756
1450.285532	678.5999756
1450.809839	682.0
1451.33409	677.4000244
1451.858287	680.5999756
1452.382428	677.5999756
1452.906515	681.7999878
1453.430546	677.2000122
1453.954523	677.4000244
1454.478444	676.2000122
1455.002311	676.7999878
1455.526123	678.4000244
1456.049879	681.4000244
1456.573581	681.4000244
1457.097227	680.2000122
1457.620819	679.5999756
1458.144356	680.7999878
1458.667837	678.7999878
1459.191264	681.7999878
1459.714636	678.5999756
1460.237952	679.5999756
1460.761214	677.5999756
1461.284421	681.0
1461.807573	680.5999756
1462.33067	678.7999878
1462.853712	698.0
1463.899632	684.2000122
1464.422509	676.5999756
1464.945331	676.7999878
1465.468099	680.4000244
1465.990811	675.5999756
1466.513469	681.0
1467.036071	680.5999756
1467.558619	676.5999756
1468.081112	679.7999878
1468.60355	678.7999878
1469.125933	678.5999756
1469.648261	678.4000244
1470.170534	679.4000244
1470.692752	678.4000244
1471.214916	679.2000122
1471.737024	676.0
1472.259078	677.0
1472.781077	678.2000122
1473.303021	676.0
1473.82491	676.0
1474.346744	680.2000122
1474.868523	678.5999756
1475.390248	676.5999756
1475.911917	677.2000122
1476.433532	676.0
1476.955092	676.5999756
1477.476597	676.4000244
1477.998047	676.5999756
1478.519442	677.0
1479.040783	675.2000122
1479.562068	676.5999756
1480.083299	677.0
1480.604475	675.4000244
1481.125596	675.4000244
1481.646663	675.7999878
1482.167674	677.4000244
1482.688631	680.2000122
1483.209533	676.4000244
1483.73038	676.7999878
1484.251172	677.7999878
1484.771909	674.7999878
1485.292592	674.5999756
1485.81322	674.4000244
1486.333793	674.5999756
1486.854311	674.5999756
1487.374775	673.7999878
1487.895183	677.7999878
1488.415537	675.4000244
1488.935836	674.5999756
1489.456081	674.7999878
1489.97627	674.5999756
1490.496405	675.4000244
1491.016485	673.7999878
1491.536511	674.2000122
1492.056481	673.0
1492.576397	676.4000244
1493.096258	675.4000244
1493.616064	676.0
1494.135816	676.7999878
1494.655513	673.5999756
1495.175155	674.4000244
1495.694742	672.5999756
1496.214274	675.4000244
1496.733752	678.4000244
1497.253175	676.0
1497.772544	672.5999756
1498.291858	674.2000122
1498.811116	676.5999756
1499.330321	675.0
1499.84947	682.5999756
1500.368565	675.7999878
1500.887605	674.5999756
1501.406591	675.7999878
1501.925521	676.0
1502.444397	675.7999878
1502.963219	673.4000244
1503.481985	675.4000244
1504.000697	675.0
1504.519355	673.7999878
1505.037957	675.7999878
1505.556505	677.0
1506.074999	675.5999756
1506.593437	674.0
1507.111821	674.7999878
1507.63015	673.5999756
1508.148425	674.2000122
1508.666645	678.7999878
1509.18481	676.4000244
1509.702921	674.5999756
1510.220977	675.4000244
1510.738979	683.2000122
1511.256925	674.0
1511.774817	674.2000122
1512.292655	676.7999878
1512.810438	676.4000244
1513.328166	673.7999878
1513.84584	673.7999878
1514.363459	675.0
1514.881023	675.4000244
1515.398533	673.5999756
1515.915988	671.0
1516.433389	674.5999756
1516.950734	675.5999756
1517.468026	675.0
1517.985263	672.7999878
1518.502445	677.7999878
1519.019572	670.5999756
1519.536645	675.7999878
1520.053664	670.4000244
1520.570628	673.7999878
1521.087537	675.7999878
1521.604392	671.0
1522.121192	676.7999878
1522.637937	674.5999756
1523.154628	676.4000244
1523.671265	676.5999756
1524.187847	670.7999878
1524.704374	675.0
1525.220847	672.2000122
1525.737265	687.0
1526.253629	702.2000122
1526.769938	687.0
1527.286192	675.4000244
1527.802392	673.5999756
1528.318538	676.5999756
1528.834629	672.7999878
1529.350666	673.0
1529.866648	675.0
1530.382575	675.5999756
1530.898448	674.5999756
1531.414266	674.5999756
1531.93003	675.7999878
1532.44574	671.5999756
1532.961395	673.0
1533.476995	674.7999878
1533.992541	674.4000244
1534.508033	675.0
1535.02347	674.7999878
1535.538852	673.2000122
1536.05418	672.2000122
1536.569454	674.0
1537.084673	672.2000122
1537.599837	671.2000122
1538.114947	670.2000122
1538.630003	674.4000244
1539.145004	675.4000244
1539.659951	676.0
1540.174843	672.0
1540.689681	673.0
1541.204465	674.4000244
1541.719194	675.5999756
1542.233868	676.0
1542.748488	673.2000122
1543.263054	675.0
1543.777565	671.7999878
1544.292022	674.2000122
1544.806424	676.0
1545.320772	672.0
1545.835066	674.0
1546.349305	673.4000244
1546.863489	673.5999756
1547.37762	674.7999878
1547.891696	673.7999878
1548.405717	672.2000122
1548.919684	676.4000244
1549.433597	674.0
1549.947455	673.0
1550.461259	674.4000244
1550.975009	673.5999756
1551.488704	677.7999878
1552.002345	675.5999756
1552.515931	675.5999756
1553.029463	676.7999878
1553.542941	673.7999878
1554.056364	673.4000244
1554.569733	677.7999878
1555.083048	676.5999756
1555.596308	675.7999878
1556.109514	673.5999756
1556.622665	674.0
1557.135762	675.5999756
1557.648805	677.2000122
1558.161794	676.7999878
1558.674728	675.5999756
1559.187608	679.0
1559.700433	675.4000244
1560.213205	673.5999756
1560.725921	675.2000122
1561.238584	674.5999756
1561.751192	676.2000122
1562.263746	676.7999878
1562.776246	674.7999878
1563.288691	676.5999756
1563.801082	675.5999756
1564.313419	678.0
1564.825701	675.7999878
1565.337929	680.2000122
1565.850103	677.7999878
1566.362223	677.2000122
1566.874288	677.2000122
1567.386299	678.0
1567.898256	682.4000244
1568.410158	676.7999878
1568.922007	679.5999756
1569.4338	675.0
1569.94554	675.2000122
1570.457226	679.7999878
1570.968857	676.2000122
1571.480434	674.5999756
1571.991956	675.2000122
1572.503425	672.0
1573.014839	674.5999756
1573.526199	675.0
1574.037505	671.0
1574.548756	672.5999756
1575.059953	674.2000122
1575.571096	671.7999878
1576.082185	677.2000122
1576.59322	675.7999878
1577.1042	674.5999756
1577.615126	676.2000122
1578.125998	676.0
1578.636816	675.4000244
1579.14758	674.4000244
1579.658289	672.0
1580.168944	677.7999878
1580.679545	671.5999756
1581.190092	675.4000244
1581.700585	674.2000122
1582.211023	676.7999878
1582.721407	678.5999756
1583.231737	674.2000122
1583.742013	675.7999878
1584.252235	670.7999878
1584.762403	676.4000244
1585.272516	676.7999878
1585.782575	675.2000122
1586.292581	673.4000244
1586.802532	672.2000122
1587.312428	675.2000122
1587.822271	672.4000244
1588.33206	674.0
1588.841794	675.7999878
1589.351474	678.2000122
1589.8611	673.4000244
1590.370672	671.5999756
1590.88019	672.4000244
1591.389654	673.2000122
1591.899064	675.0
1592.408419	673.5999756
