1042.452273	706.4000244
1043.018714	710.4000244
1043.585098	710.0
1044.151424	704.7999878
1044.717692	706.0
1045.283903	700.4000244
1045.850056	703.0
1046.416151	703.7999878
1046.982188	700.4000244
1047.548167	699.5999756
1048.114089	697.0
1048.679953	699.0
1049.24576	697.0
1049.811509	694.5999756
1050.3772	695.0
1050.942833	696.4000244
1051.508408	697.4000244
1052.073926	691.7999878
1052.639387	695.5999756
1053.204789	692.7999878
1053.770134	691.2000122
1054.335421	693.4000244
1054.900651	692.4000244
1055.465823	691.2000122
1056.030937	693.2000122
1056.595993	693.7999878
1057.160992	693.7999878
1057.725934	688.7999878
1058.290817	690.5999756
1058.855643	692.4000244
1059.420411	691.0
1059.985122	693.2000122
1060.549775	689.5999756
1061.114371	691.4000244
1061.678908	690.2000122
1062.243389	687.0
1062.807811	688.5999756
1063.372176	689.4000244
1063.936483	693.0
1064.500733	689.2000122
1065.064925	686.5999756
1065.62906	688.7999878
1066.193137	687.5999756
1066.757156	691.4000244
1067.321118	687.7999878
1067.885022	688.5999756
1068.448869	688.2000122
1069.012658	688.4000244
1069.57639	688.5999756
1070.140063	697.0
1070.70368	686.2000122
1071.267239	685.2000122
1071.83074	686.7999878
1072.394184	688.4000244
1072.95757	686.5999756
1073.520899	685.5999756
1074.08417	688.7999878
1074.647383	688.4000244
1075.21054	687.2000122
1075.773638	689.2000122
1076.336679	686.4000244
1076.899663	687.2000122
1077.462589	685.7999878
1078.025457	689.4000244
1078.588268	690.7999878
1079.151022	687.4000244
1079.713718	690.4000244
1080.276356	687.7999878
1080.838937	684.7999878
1081.401461	687.4000244
1081.963927	692.0
1082.526336	688.5999756
1083.088687	687.7999878
1083.650981	689.0
1084.213217	691.4000244
1084.775396	688.0
1085.337517	687.5999756
1085.899581	690.4000244
1086.461587	691.4000244
1087.023536	689.0
1087.585428	691.5999756
1088.147262	691.7999878
1088.709039	688.0
1089.270758	688.2000122
1089.83242	689.2000122
1090.394024	689.2000122
1090.955571	691.5999756
1091.517061	692.4000244
1092.078493	693.7999878
1092.639868	694.0
1093.201185	692.0
1093.762445	690.5999756
1094.323648	691.5999756
1094.884793	690.5999756
1095.445881	693.0
1096.006911	691.4000244
1096.567884	691.5999756
1097.1288	697.4000244
1097.689659	690.5999756
1098.25046	690.7999878
1098.811203	691.4000244
1099.37189	688.4000244
1099.932518	691.0
1100.49309	690.0
1101.053604	695.2000122
1101.614061	693.7999878
1102.174461	687.7999878
1102.734803	684.4000244
1103.295088	689.2000122
1103.855316	691.2000122
1104.415486	690.5999756
1104.975599	689.7999878
1105.535655	695.0
1106.095653	686.0
1106.655594	689.2000122
1107.215478	690.7999878
1107.775305	692.0
1108.335074	690.0
1108.894786	693.7999878
1109.45444	695.5999756
1110.014038	694.0
1110.573578	697.0
1111.133061	695.4000244
1111.692486	697.2000122
1112.251854	699.4000244
1112.811165	694.5999756
1113.370419	695.2000122
1113.929616	700.2000122
1114.488755	696.4000244
1115.047837	696.2000122
1115.606862	692.4000244
1116.16583	693.0
1116.72474	692.0
1117.283593	696.5999756
1117.842389	690.7999878
1118.401128	686.4000244
1118.959809	689.7999878
1119.518433	685.0
1120.077	691.0
1120.63551	690.4000244
1121.193963	684.7999878
1121.752358	687.5999756
1122.310697	687.0
1122.868978	686.0
1123.427202	688.4000244
1123.985368	685.2000122
1124.543478	686.0
1125.10153	687.5999756
1125.659526	688.5999756
1126.217464	685.0
1126.775345	685.0
1127.333168	685.7999878
1127.890935	685.5999756
1128.448644	685.0
1129.006297	686.2000122
1129.563892	686.7999878
1130.12143	686.7999878
1130.678911	686.2000122
1131.236335	688.2000122
1131.793701	685.5999756
1132.351011	686.0
1132.908263	684.0
1133.465458	686.0
1134.022597	683.2000122
1134.579678	684.4000244
1135.136702	683.5999756
1135.693669	684.2000122
1136.250578	685.0
1136.807431	684.0
1137.364227	683.0
1137.920965	683.0
1138.477647	683.0
1139.034271	682.5999756
1139.590839	685.4000244
1140.147349	683.4000244
1140.703802	687.4000244
1141.260198	687.2000122
1141.816537	685.0
1142.37282	686.5999756
1142.929045	688.0
1143.485213	683.5999756
1144.041323	683.4000244
1144.597377	683.5999756
1145.153374	685.4000244
1145.709314	687.2000122
1146.265197	687.0
1146.821023	685.2000122
1147.376792	686.2000122
1147.932503	680.5999756
1148.488158	689.5999756
1149.043756	685.0
1149.599297	684.2000122
1150.154781	681.4000244
1150.710207	681.2000122
1151.265577	681.0
1151.82089	683.7999878
1152.376146	686.5999756
1152.931345	686.2000122
1153.486487	686.4000244
1154.041572	687.2000122
1154.5966	688.4000244
1155.151571	682.7999878
1155.706485	685.2000122
1156.261342	686.0
1156.816142	688.4000244
1157.370885	685.4000244
1157.925572	685.4000244
1158.480201	684.7999878
1159.034774	686.2000122
1159.589289	684.0
1160.143748	689.7999878
1160.698149	688.0
1161.252494	686.7999878
1161.806782	688.5999756
1162.361013	687.7999878
1162.915187	687.7999878
1163.469304	681.0
1164.023364	684.5999756
1164.577368	682.4000244
1165.131314	682.5999756
1165.685204	687.0
1166.239036	681.4000244
1166.792812	687.7999878
1167.346531	682.7999878
1167.900193	683.7999878
1168.453798	681.7999878
1169.007347	686.5999756
1169.560838	685.4000244
1170.114273	685.7999878
1170.66765	683.4000244
1171.220971	684.7999878
1171.774235	686.7999878
1172.327443	687.4000244
1172.880593	683.4000244
1173.433687	683.4000244
1173.986723	686.4000244
1174.539703	687.2000122
1175.092626	684.2000122
1175.645493	686.5999756
1176.198302	685.7999878
1176.751055	685.4000244
1177.303751	688.2000122
1177.85639	686.5999756
1178.408972	684.5999756
1178.961498	685.4000244
1179.513966	685.4000244
1180.066378	687.4000244
1180.618733	687.0
1181.171032	688.0
1181.723273	687.7999878
1182.275458	689.7999878
1182.827586	689.0
1183.379657	691.0
1183.931672	690.5999756
1184.48363	693.5999756
1185.035531	691.7999878
1185.587375	693.7999878
1186.139162	692.4000244
1186.690893	689.7999878
1187.242567	687.0
1187.794184	688.2000122
1188.345745	691.7999878
1188.897249	689.0
1189.448696	690.7999878
1190.000086	689.2000122
1190.55142	689.2000122
1191.102697	688.2000122
1191.653918	687.0
1192.205081	686.7999878
1192.756188	690.5999756
1193.307238	702.4000244
1193.858232	684.4000244
1194.409169	686.0
1194.960049	685.7999878
1195.510872	684.5999756
1196.061639	686.0
1196.612349	683.2000122
1197.163003	682.0
1197.713599	684.4000244
1198.264139	686.2000122
1198.814623	684.5999756
1199.36505	683.0
1199.91542	685.4000244
1200.465734	683.7999878
1201.01599	684.7999878
1201.566191	686.0
1202.116334	686.5999756
1202.666421	682.4000244
1203.216452	683.0
1203.766425	684.5999756
1204.316343	685.7999878
1204.866203	683.7999878
1205.416007	684.4000244
1205.965754	686.2000122
1206.515445	685.5999756
1207.065079	686.2000122
1207.614657	687.2000122
1208.164177	686.0
1208.713642	683.7999878
1209.26305	685.7999878
1209.812401	687.7999878
1210.361695	689.4000244
1210.910933	686.2000122
1211.460115	688.2000122
1212.00924	685.5999756
1212.558308	685.5999756
1213.10732	685.7999878
1213.656275	687.4000244
1214.205174	690.7999878
1214.754016	687.0
1215.302801	689.5999756
1215.85153	686.2000122
1216.400203	684.0
1216.948819	685.5999756
1217.497378	688.7999878
1218.045881	689.5999756
1218.594327	690.5999756
1219.142717	687.7999878
1219.691051	688.7999878
1220.239327	688.7999878
1220.787548	688.7999878
1221.335712	683.7999878
1221.883819	688.2000122
1222.43187	688.0
1222.979864	687.2000122
1223.527802	691.0
1224.075683	690.2000122
1224.623508	690.0
1225.171277	690.7999878
1225.718989	687.5999756
1226.266644	690.5999756
1226.814243	688.4000244
1227.361786	689.5999756
1227.909272	690.2000122
1228.456702	690.7999878
1229.004075	695.0
1229.551392	690.2000122
1230.098652	689.4000244
1230.645856	691.2000122
1231.193003	696.4000244
1231.740094	689.7999878
1232.287129	690.5999756
1232.834107	689.2000122
1233.381029	689.5999756
1233.927894	693.2000122
1234.474703	694.5999756
1235.021455	688.5999756
1235.568151	691.2000122
1236.114791	686.4000244
1236.661374	693.4000244
1237.207901	686.5999756
1237.754372	693.0
1238.300786	689.2000122
1238.847144	693.0
1239.393445	691.7999878
1239.93969	686.2000122
1240.485879	686.5999756
1241.032011	692.2000122
1241.578087	690.0
1242.124106	687.0
1242.67007	689.5999756
1243.215976	687.0
1243.761827	689.7999878
1244.307621	689.7999878
1244.853359	693.5999756
1245.39904	688.4000244
1245.944665	691.5999756
1246.490234	693.2000122
1247.035746	694.4000244
1247.581203	689.0
1248.126602	693.7999878
1248.671946	690.0
1249.217233	695.5999756
1249.762464	691.0
1250.307638	691.4000244
1250.852757	691.5999756
1251.397819	695.0
1251.942824	692.2000122
1252.487774	691.5999756
1253.032667	692.4000244
1253.577503	691.4000244
1254.122284	694.7999878
1254.667008	688.2000122
1255.211676	693.0
1255.756288	690.2000122
1256.300843	692.7999878
1256.845342	692.4000244
1257.389785	690.0
1257.934172	697.0
1258.478502	697.2000122
1259.022776	695.4000244
1259.566994	696.4000244
1260.655261	697.2000122
1261.199311	700.7999878
1261.743304	698.2000122
1262.28724	698.7999878
1262.831121	713.2000122
1263.374945	714.7999878
1263.918713	722.5999756
1264.462425	718.4000244
1265.006081	712.0
1265.54968	704.0
1266.093223	702.5999756
1266.636711	696.0
1267.180141	695.0
1267.723516	695.0
1268.266835	695.0
1268.810097	693.2000122
1269.353303	695.7999878
1269.896453	693.4000244
1270.439547	690.5999756
1270.982584	692.2000122
1271.525566	692.5999756
1272.068491	693.4000244
1272.61136	691.2000122
1273.154173	690.4000244
1273.69693	693.7999878
1274.239631	692.0
1274.782275	696.5999756
1275.324864	691.2000122
1275.867396	695.0
1276.409872	696.0
1276.952292	695.5999756
1277.494656	697.2000122
1278.036964	697.4000244
1278.579215	698.7999878
1279.121411	698.5999756
1279.66355	700.7999878
1280.205634	707.0
1280.747661	712.4000244
1281.289632	729.2000122
1281.831547	759.0
1282.373406	805.5999756
1282.915209	893.5999756
1283.456955	1049.400024
1283.998646	1179.199951
1284.540281	1164.599976
1285.081859	1000.0
1285.623381	843.2000122
1286.164848	765.4000244
1286.706258	733.5999756
1287.247612	721.0
1287.788911	710.4000244
1288.330153	708.5999756
1288.871339	703.4000244
1289.412469	697.7999878
1289.953543	700.0
1290.494561	695.5999756
1291.035523	699.4000244
1291.576428	699.5999756
1292.117278	695.2000122
1292.658072	700.0
1293.19881	695.2000122
1293.739492	698.2000122
1294.280118	696.5999756
1294.820687	691.7999878
1295.361201	696.5999756
1295.901659	698.0
1296.442061	694.2000122
1296.982406	693.5999756
1297.522696	690.2000122
1298.06293	692.5999756
1298.603108	691.0
1299.143229	694.2000122
1299.683295	693.7999878
1300.223305	694.4000244
1300.763259	691.7999878
1301.303157	692.4000244
1301.842999	688.2000122
1302.382785	693.7999878
1302.922515	692.4000244
1303.462189	690.2000122
1304.001807	691.5999756
1304.541369	689.5999756
1305.080875	691.7999878
1305.620326	691.2000122
1306.15972	690.7999878
1306.699058	691.4000244
1307.238341	693.2000122
1307.777567	691.0
1308.316738	690.4000244
1308.855853	693.0
1309.394912	693.5999756
1309.933915	690.5999756
1310.472862	690.0
1311.011753	691.0
1311.550588	689.0
1312.089367	687.7999878
1312.62809	690.0
1313.166758	688.5999756
1313.70537	688.4000244
1314.243925	688.2000122
1314.782425	690.2000122
1315.320869	689.5999756
1315.859257	687.5999756
1316.397589	688.7999878
1316.935866	693.4000244
1317.474086	691.0
1318.012251	690.5999756
1318.55036	689.5999756
1319.088413	690.4000244
1319.62641	683.7999878
1320.164351	693.4000244
1320.702236	688.5999756
1321.240066	686.7999878
1321.777839	686.4000244
1322.315557	688.2000122
1322.853219	687.5999756
1323.390826	688.0
1324.465871	690.7999878
1325.003309	689.4000244
1325.540692	686.0
1326.07802	692.0
1326.615291	686.4000244
1327.152506	687.4000244
1327.689666	685.0
1328.22677	685.5999756
1328.763818	687.0
1329.300811	687.0
1329.837747	688.5999756
1330.374628	690.2000122
1330.911453	687.5999756
1331.448222	685.7999878
1331.984936	686.5999756
1332.521594	690.0
1333.058196	688.2000122
1333.594742	685.7999878
1334.131232	687.7999878
1334.667667	690.2000122
1335.204046	687.5999756
1335.740369	688.7999878
1336.276637	688.4000244
1336.812848	687.5999756
1337.349004	687.0
1337.885105	688.4000244
1338.421149	686.7999878
1338.957138	689.5999756
1339.493071	687.2000122
1340.028949	688.4000244
1340.56477	688.2000122
1341.100536	689.4000244
1341.636246	686.2000122
1342.171901	685.0
1342.7075	688.5999756
1343.243043	685.2000122
1343.77853	689.7999878
1344.313962	688.2000122
1344.849338	687.7999878
1345.384659	690.4000244
1345.919923	685.4000244
1346.455133	686.5999756
1346.990286	685.7999878
1347.525384	686.2000122
1348.060426	688.0
1348.595412	686.2000122
1349.130343	684.7999878
1349.665218	686.5999756
1350.200037	691.4000244
1350.734801	686.5999756
1351.269509	691.4000244
1351.804162	687.0
1352.338758	687.5999756
1352.8733	687.4000244
1353.407785	690.2000122
1353.942215	690.5999756
1354.476589	691.4000244
1355.010908	688.5999756
1355.545171	690.0
1356.079379	689.0
1356.61353	685.7999878
1357.147627	687.2000122
1357.681667	688.7999878
1358.215652	689.0
1358.749582	689.0
1359.283456	687.7999878
1359.817274	685.4000244
1360.351037	685.2000122
1360.884744	691.7999878
1361.418395	687.4000244
1361.951991	685.7999878
1362.485531	687.7999878
1363.019016	690.0
1363.552445	688.2000122
1364.085819	684.4000244
1364.619137	688.7999878
1365.1524	693.0
1365.685607	695.2000122
1366.218758	692.2000122
1366.751854	688.4000244
1367.284894	692.0
1367.817879	690.5999756
1368.350808	691.2000122
1368.883682	690.4000244
1369.4165	699.5999756
1369.949263	708.5999756
1370.48197	709.5999756
1371.014622	697.5999756
1371.547218	691.7999878
1372.079758	690.4000244
1372.612244	688.5999756
1373.144673	689.5999756
1373.677047	692.5999756
1374.209366	691.0
1374.741629	693.2000122
1375.273836	692.0
1375.805989	694.5999756
1376.338085	697.7999878
1376.870126	692.0
1377.402112	692.5999756
1377.934042	695.0
1378.465917	692.0
1378.997736	692.7999878
1379.5295	693.2000122
1380.061208	699.0
1380.592861	698.2000122
1381.124459	697.0
1381.656	698.2000122
1382.187487	704.4000244
1382.718918	706.7999878
1383.250294	708.0
1383.781614	712.4000244
1384.312879	716.2000122
1384.844088	724.7999878
1385.375242	736.4000244
1385.90634	773.5999756
1386.437383	830.5999756
1386.968371	977.7999878
1387.499303	1327.400024
1388.03018	1739.800049
1388.561001	1578.599976
1389.091767	1094.400024
1389.622478	851.5999756
1390.153133	765.0
1390.683733	739.7999878
1391.214277	720.2000122
1391.744766	713.2000122
1392.2752	704.5999756
1392.805578	703.5999756
1393.335901	701.4000244
1393.866168	703.2000122
1394.396381	699.0
1394.926537	699.0
1395.456639	693.4000244
1395.986685	696.7999878
1396.516675	693.5999756
1397.046611	694.5999756
1397.576491	690.7999878
1398.106315	691.5999756
1398.636084	692.7999878
1399.165798	693.5999756
1399.695457	694.0
1400.22506	694.7999878
1400.754608	694.7999878
1401.284101	689.2000122
1401.813538	694.5999756
1402.34292	694.4000244
1402.872247	697.5999756
1403.401518	695.7999878
1403.930734	698.7999878
1404.459895	695.7999878
1404.989	694.0
1405.51805	701.4000244
1406.047045	701.0
1406.575984	699.0
1407.104869	704.7999878
1407.633697	707.5999756
1408.162471	716.0
1408.691189	724.5999756
1409.219852	735.7999878
1409.74846	743.4000244
1410.277013	736.4000244
1410.80551	722.5999756
1411.333952	710.4000244
1411.862339	703.5999756
1412.39067	697.5999756
1412.918946	694.2000122
1413.447167	690.2000122
1413.975333	692.0
1414.503444	694.7999878
1415.031499	690.4000244
1415.559499	705.7999878
1416.087444	687.0
1416.615333	688.5999756
1417.143167	687.4000244
1417.670947	689.7999878
1418.19867	688.7999878
1418.726339	687.5999756
1419.253952	687.4000244
1419.781511	687.5999756
1420.309014	689.2000122
1420.836461	689.4000244
1421.363854	683.7999878
1421.891191	687.4000244
1422.418474	690.4000244
1422.945701	689.2000122
1423.472872	686.4000244
1423.999989	688.7999878
1424.52705	688.7999878
1425.054057	687.2000122
1425.581008	686.0
1426.107904	687.5999756
1426.634745	688.0
1427.16153	685.5999756
1427.688261	687.5999756
1428.214936	685.7999878
1428.741556	689.0
1429.268121	686.7999878
1429.794631	687.5999756
1430.321085	688.0
1430.847485	687.5999756
1431.373829	687.2000122
1431.900118	684.0
1432.426353	687.5999756
1432.952532	686.2000122
1433.478655	685.7999878
1434.004724	689.2000122
1434.530738	689.2000122
1435.056696	686.5999756
1435.5826	683.4000244
1436.108448	685.4000244
1436.634241	686.5999756
1437.159979	687.5999756
1437.685662	684.7999878
1438.21129	684.7999878
1438.736863	681.7999878
1439.262381	691.5999756
1439.787843	688.2000122
1440.313251	688.7999878
1440.838603	690.0
1441.3639	689.2000122
1441.889143	687.7999878
1442.41433	685.4000244
1442.939462	685.5999756
1443.464539	690.2000122
1443.989561	683.0
1444.514528	685.2000122
1445.03944	687.7999878
1445.564297	689.4000244
1446.089099	685.2000122
1446.613846	689.4000244
1447.138537	687.5999756
1447.663174	686.7999878
1448.187756	686.0
1448.712282	687.7999878
1449.236754	689.7999878
1449.761171	690.2000122
1450.285532	687.4000244
1450.809839	685.0
1451.33409	684.7999878
1451.858287	686.7999878
1452.382428	686.2000122
1452.906515	687.4000244
1453.430546	686.5999756
1453.954523	691.2000122
1454.478444	687.7999878
1455.002311	688.7999878
1455.526123	687.5999756
1456.049879	687.4000244
1456.573581	690.2000122
1457.097227	688.4000244
1457.620819	685.5999756
1458.144356	689.0
1458.667837	686.4000244
1459.191264	688.7999878
1459.714636	686.5999756
1460.237952	688.5999756
1460.761214	684.2000122
1461.284421	688.0
1461.807573	685.2000122
1462.33067	690.7999878
1462.853712	713.5999756
1463.899632	694.7999878
1464.422509	691.5999756
1464.945331	686.7999878
1465.468099	684.7999878
1465.990811	685.4000244
1466.513469	688.5999756
1467.036071	683.5999756
1467.558619	687.4000244
1468.081112	685.2000122
1468.60355	687.7999878
1469.125933	686.5999756
1469.648261	687.5999756
1470.170534	689.4000244
1470.692752	683.7999878
1471.214916	687.0
1471.737024	685.2000122
1472.259078	687.5999756
1472.781077	685.7999878
1473.303021	684.2000122
1473.82491	684.7999878
1474.346744	687.4000244
1474.868523	684.4000244
1475.390248	683.5999756
1475.911917	683.7999878
1476.433532	687.0
1476.955092	683.4000244
1477.476597	685.0
1477.998047	686.7999878
1478.519442	684.5999756
1479.040783	684.7999878
1479.562068	685.2000122
1480.083299	684.0
1480.604475	683.5999756
1481.125596	685.2000122
1481.646663	681.7999878
1482.167674	680.2000122
1482.688631	686.7999878
1483.209533	683.7999878
1483.73038	682.0
1484.251172	687.0
1484.771909	685.4000244
1485.292592	679.7999878
1485.81322	685.7999878
1486.333793	683.7999878
1486.854311	681.2000122
1487.374775	684.5999756
1487.895183	681.5999756
1488.415537	680.5999756
1488.935836	683.7999878
1489.456081	684.5999756
1489.97627	681.0
1490.496405	683.4000244
1491.016485	680.7999878
1491.536511	678.2000122
1492.056481	683.2000122
1492.576397	680.4000244
1493.096258	681.4000244
1493.616064	681.4000244
1494.135816	683.4000244
1494.655513	681.0
1495.175155	683.2000122
1495.694742	685.2000122
1496.214274	683.4000244
1496.733752	680.2000122
1497.253175	684.7999878
1497.772544	682.4000244
1498.291858	681.4000244
1498.811116	685.4000244
1499.330321	686.2000122
1499.84947	686.5999756
1500.368565	683.7999878
1500.887605	684.4000244
1501.406591	682.0
1501.925521	683.4000244
1502.444397	680.4000244
1502.963219	683.4000244
1503.481985	682.7999878
1504.000697	681.2000122
1504.519355	678.7999878
1505.037957	683.0
1505.556505	681.0
1506.074999	681.2000122
1506.593437	682.2000122
1507.111821	684.5999756
1507.63015	681.2000122
1508.148425	683.7999878
1508.666645	680.5999756
1509.18481	682.4000244
1509.702921	680.5999756
1510.220977	681.2000122
1510.738979	693.4000244
1511.256925	684.0
1511.774817	684.0
1512.292655	681.2000122
1512.810438	683.7999878
1513.328166	682.0
1513.84584	678.7999878
1514.363459	681.2000122
1514.881023	684.7999878
1515.398533	684.2000122
1515.915988	681.2000122
1516.433389	683.4000244
1516.950734	682.0
1517.468026	679.5999756
1517.985263	682.7999878
1518.502445	683.5999756
1519.019572	683.7999878
1519.536645	683.2000122
1520.053664	681.7999878
1520.570628	682.2000122
1521.087537	679.5999756
1521.604392	681.4000244
1522.121192	684.0
1522.637937	684.2000122
1523.154628	683.0
1523.671265	683.5999756
1524.187847	679.5999756
1524.704374	683.5999756
1525.220847	686.7999878
1525.737265	694.7999878
1526.769938	697.4000244
1527.286192	683.2000122
1527.802392	682.4000244
1528.318538	682.2000122
1528.834629	683.5999756
1529.350666	682.5999756
1529.866648	684.5999756
1530.382575	681.7999878
1530.898448	681.5999756
1531.414266	684.5999756
1531.93003	681.7999878
1532.44574	681.5999756
1532.961395	682.2000122
1533.476995	680.5999756
1533.992541	683.2000122
1534.508033	683.0
1535.02347	679.4000244
1535.538852	685.4000244
1536.05418	685.0
1536.569454	682.5999756
1537.084673	682.2000122
1537.599837	682.2000122
1538.114947	680.4000244
1538.630003	681.0
1539.145004	680.4000244
1539.659951	682.5999756
1540.174843	682.0
1540.689681	685.4000244
1541.204465	683.4000244
1541.719194	686.5999756
1542.233868	682.2000122
1542.748488	684.0
1543.263054	684.4000244
1543.777565	680.7999878
1544.292022	681.7999878
1544.806424	682.7999878
1545.320772	680.0
1545.835066	682.2000122
1546.349305	682.4000244
1546.863489	680.7999878
1547.37762	679.7999878
1547.891696	684.0
1548.405717	685.7999878
1548.919684	682.5999756
1549.433597	681.0
1549.947455	687.7999878
1550.461259	682.2000122
1550.975009	683.0
1551.488704	684.2000122
1552.002345	684.7999878
1552.515931	682.5999756
1553.029463	685.4000244
1553.542941	683.2000122
1554.056364	682.2000122
1554.569733	683.4000244
1555.083048	684.4000244
1555.596308	686.7999878
1556.109514	683.2000122
1556.622665	685.7999878
1557.135762	681.7999878
1557.648805	685.5999756
1558.161794	683.2000122
1558.674728	685.5999756
1559.187608	680.4000244
1559.700433	683.7999878
1560.213205	683.7999878
1560.725921	682.4000244
1561.238584	681.7999878
1561.751192	682.4000244
1562.263746	684.7999878
1562.776246	686.4000244
1563.288691	685.5999756
1563.801082	682.4000244
1564.313419	683.7999878
1564.825701	684.4000244
1565.337929	689.0
1565.850103	687.4000244
1566.362223	688.5999756
1566.874288	687.7999878
1567.386299	687.5999756
1567.898256	690.2000122
1568.410158	685.5999756
1568.922007	685.2000122
1569.4338	687.0
1569.94554	683.4000244
1570.457226	687.2000122
1570.968857	681.5999756
1571.480434	683.2000122
1571.991956	683.5999756
1572.503425	682.4000244
1573.014839	683.7999878
1573.526199	683.7999878
1574.037505	686.2000122
1574.548756	684.2000122
1575.059953	682.5999756
1575.571096	685.4000244
1576.082185	686.5999756
1576.59322	683.7999878
1577.1042	686.2000122
1577.615126	686.5999756
1578.125998	683.7999878
1578.636816	683.4000244
1579.14758	684.0
1579.658289	681.2000122
1580.168944	688.4000244
1580.679545	683.0
1581.190092	678.0
1581.700585	681.2000122
1582.211023	687.2000122
1582.721407	686.2000122
1583.231737	684.0
1583.742013	687.5999756
1584.252235	685.0
1584.762403	684.2000122
1585.272516	683.4000244
1585.782575	684.2000122
1586.292581	681.4000244
1586.802532	684.4000244
1587.312428	687.2000122
1587.822271	683.5999756
1588.33206	685.4000244
1588.841794	685.0
1589.351474	682.5999756
1589.8611	683.5999756
1590.370672	685.4000244
1590.88019	681.0
1591.389654	679.4000244
1591.899064	682.7999878
1592.408419	681.5999756
