1042.452273	700.2000122
1043.018714	699.4000244
1043.585098	700.4000244
1044.151424	695.7999878
1044.717692	695.5999756
1045.283903	699.4000244
1045.850056	693.7999878
1046.416151	691.7999878
1046.982188	689.7999878
1047.548167	693.0
1048.114089	693.5999756
1048.679953	692.4000244
1049.24576	692.7999878
1049.811509	690.2000122
1050.3772	689.7999878
1050.942833	682.7999878
1051.508408	688.5999756
1052.073926	684.0
1052.639387	685.4000244
1053.204789	689.0
1053.770134	687.2000122
1054.335421	686.7999878
1054.900651	684.7999878
1055.465823	685.2000122
1056.030937	683.7999878
1056.595993	683.2000122
1057.160992	683.5999756
1057.725934	683.4000244
1058.290817	681.2000122
1058.855643	681.0
1059.420411	681.4000244
1059.985122	683.2000122
1060.549775	680.5999756
1061.114371	685.0
1061.678908	680.0
1062.243389	682.4000244
1062.807811	680.0
1063.372176	679.7999878
1063.936483	682.4000244
1064.500733	679.0
1065.064925	679.4000244
1065.62906	682.0
1066.193137	677.4000244
1066.757156	679.2000122
1067.321118	677.5999756
1067.885022	677.5999756
1068.448869	681.5999756
1069.012658	679.2000122
1069.57639	682.4000244
1070.140063	686.2000122
1070.70368	680.0
1071.267239	680.5999756
1071.83074	674.7999878
1072.394184	678.7999878
1072.95757	680.0
1073.520899	678.4000244
1074.08417	679.0
1074.647383	677.0
1075.21054	680.4000244
1075.773638	677.5999756
1076.336679	680.0
1076.899663	680.7999878
1077.462589	680.0
1078.025457	678.0
1078.588268	678.5999756
1079.151022	677.4000244
1079.713718	680.7999878
1080.276356	680.2000122
1080.838937	676.5999756
1081.401461	679.5999756
1081.963927	679.4000244
1082.526336	681.7999878
1083.088687	682.2000122
1083.650981	684.2000122
1084.213217	678.5999756
1084.775396	683.2000122
1085.337517	683.4000244
1085.899581	681.7999878
1086.461587	680.7999878
1087.023536	683.4000244
1087.585428	680.5999756
1088.147262	684.0
1088.709039	683.4000244
1089.270758	682.5999756
1089.83242	681.4000244
1090.394024	681.7999878
1090.955571	679.4000244
1091.517061	683.2000122
1092.078493	682.5999756
1092.639868	682.5999756
1093.201185	686.0
1093.762445	683.4000244
1094.323648	685.7999878
1094.884793	680.4000244
1095.445881	686.5999756
1096.006911	683.4000244
1096.567884	685.7999878
1097.1288	691.7999878
1097.689659	683.5999756
1098.25046	681.4000244
1098.811203	684.2000122
1099.37189	686.0
1099.932518	682.2000122
1100.49309	680.7999878
1101.053604	679.2000122
1101.614061	681.7999878
1102.174461	682.4000244
1102.734803	684.2000122
1103.295088	682.7999878
1103.855316	682.5999756
1104.415486	683.5999756
1104.975599	680.5999756
1105.535655	682.5999756
1106.095653	685.4000244
1106.655594	682.4000244
1107.215478	680.7999878
1107.775305	681.0
1108.335074	679.7999878
1108.894786	682.4000244
1109.45444	685.4000244
1110.014038	684.0
1110.573578	684.2000122
1111.133061	687.4000244
1111.692486	686.4000244
1112.251854	686.2000122
1112.811165	690.5999756
1113.370419	689.4000244
1113.929616	684.4000244
1114.488755	685.5999756
1115.047837	685.4000244
1115.606862	686.0
1116.16583	685.4000244
1116.72474	685.7999878
1117.283593	687.7999878
1117.842389	682.0
1118.401128	681.2000122
1118.959809	682.4000244
1119.518433	679.0
1120.077	680.5999756
1120.63551	678.5999756
1121.193963	678.5999756
1121.752358	682.4000244
1122.310697	678.4000244
1122.868978	677.2000122
1123.427202	681.7999878
1123.985368	676.4000244
1124.543478	682.0
1125.10153	679.7999878
1125.659526	679.4000244
1126.217464	676.7999878
1126.775345	680.2000122
1127.333168	678.0
1127.890935	679.4000244
1128.448644	674.7999878
1129.006297	677.5999756
1129.563892	674.4000244
1130.12143	676.4000244
1130.678911	675.4000244
1131.236335	674.4000244
1131.793701	674.7999878
1132.351011	677.7999878
1132.908263	679.2000122
1133.465458	680.4000244
1134.022597	678.4000244
1134.579678	676.0
1135.136702	676.0
1135.693669	676.4000244
1136.250578	677.4000244
1136.807431	679.2000122
1137.364227	675.5999756
1137.920965	675.4000244
1138.477647	678.0
1139.034271	676.4000244
1139.590839	675.7999878
1140.147349	675.2000122
1140.703802	676.4000244
1141.260198	676.7999878
1141.816537	675.4000244
1142.37282	673.5999756
1142.929045	676.4000244
1143.485213	673.5999756
1144.041323	675.7999878
1144.597377	675.5999756
1145.153374	680.0
1145.709314	678.5999756
1146.265197	676.7999878
1146.821023	675.7999878
1147.376792	677.2000122
1147.932503	675.2000122
1148.488158	676.4000244
1149.043756	677.7999878
1149.599297	676.2000122
1150.154781	677.2000122
1150.710207	677.5999756
1151.265577	680.2000122
1151.82089	675.2000122
1152.376146	676.4000244
1152.931345	677.0
1153.486487	679.7999878
1154.041572	675.7999878
1154.5966	676.2000122
1155.151571	679.4000244
1155.706485	678.4000244
1156.261342	679.0
1156.816142	677.7999878
1157.370885	675.4000244
1157.925572	675.7999878
1158.480201	676.4000244
1159.034774	679.2000122
1159.589289	679.7999878
1160.143748	681.0
1160.698149	675.7999878
1161.252494	676.4000244
1161.806782	678.7999878
1162.361013	679.2000122
1162.915187	674.4000244
1163.469304	674.7999878
1164.023364	677.0
1164.577368	676.2000122
1165.131314	676.2000122
1165.685204	676.7999878
1166.239036	674.4000244
1166.792812	676.0
1167.346531	675.7999878
1167.900193	676.2000122
1168.453798	674.7999878
1169.007347	678.4000244
1169.560838	674.0
1170.114273	674.7999878
1170.66765	677.4000244
1171.220971	676.4000244
1171.774235	675.2000122
1172.327443	677.5999756
1172.880593	677.7999878
1173.433687	675.0
1173.986723	678.0
1174.539703	675.4000244
1175.092626	677.0
1175.645493	675.2000122
1176.198302	676.4000244
1176.751055	680.7999878
1177.303751	680.0
1177.85639	678.5999756
1178.408972	677.5999756
1178.961498	678.2000122
1179.513966	679.7999878
1180.066378	678.4000244
1180.618733	678.5999756
1181.171032	681.0
1181.723273	679.5999756
1182.275458	679.2000122
1182.827586	676.5999756
1183.379657	680.4000244
1183.931672	680.5999756
1184.48363	682.2000122
1185.035531	683.5999756
1185.587375	683.2000122
1186.139162	687.2000122
1186.690893	680.5999756
1187.242567	685.5999756
1187.794184	680.5999756
1188.345745	681.0
1188.897249	681.5999756
1189.448696	685.2000122
1190.000086	678.2000122
1190.55142	682.0
1191.102697	679.4000244
1191.653918	679.5999756
1192.205081	678.0
1192.756188	682.5999756
1193.307238	700.0
1193.858232	676.4000244
1194.409169	677.7999878
1194.960049	677.4000244
1195.510872	677.2000122
1196.061639	678.2000122
1196.612349	678.7999878
1197.163003	676.2000122
1197.713599	678.0
1198.264139	672.2000122
1198.814623	678.5999756
1199.36505	674.7999878
1199.91542	676.7999878
1200.465734	672.7999878
1201.01599	678.2000122
1201.566191	674.4000244
1202.116334	676.5999756
1202.666421	675.5999756
1203.216452	676.5999756
1203.766425	674.4000244
1204.316343	674.2000122
1204.866203	676.5999756
1205.416007	677.7999878
1205.965754	676.4000244
1206.515445	674.2000122
1207.065079	676.4000244
1207.614657	676.2000122
1208.164177	679.5999756
1208.713642	676.0
1209.26305	674.0
1209.812401	675.0
1210.361695	675.0
1210.910933	679.0
1211.460115	677.0
1212.00924	677.4000244
1212.558308	677.5999756
1213.10732	680.5999756
1213.656275	676.0
1214.205174	679.7999878
1214.754016	678.4000244
1215.302801	676.7999878
1215.85153	676.7999878
1216.400203	681.0
1216.948819	678.7999878
1217.497378	681.5999756
1218.045881	677.0
1218.594327	676.4000244
1219.142717	679.7999878
1219.691051	678.5999756
1220.239327	682.2000122
1220.787548	683.2000122
1221.335712	680.4000244
1221.883819	680.2000122
1222.43187	678.7999878
1222.979864	684.4000244
1223.527802	681.0
1224.075683	682.4000244
1224.623508	678.7999878
1225.171277	686.4000244
1225.718989	678.4000244
1226.266644	680.5999756
1226.814243	679.5999756
1227.361786	680.7999878
1227.909272	683.7999878
1228.456702	680.4000244
1229.004075	682.5999756
1229.551392	679.5999756
1230.098652	680.5999756
1230.645856	682.0
1231.193003	683.0
1231.740094	684.2000122
1232.287129	679.2000122
1232.834107	683.5999756
1233.381029	683.7999878
1233.927894	683.4000244
1234.474703	679.4000244
1235.021455	681.2000122
1235.568151	683.2000122
1236.114791	683.5999756
1236.661374	679.7999878
1237.207901	682.4000244
1237.754372	682.2000122
1238.300786	681.2000122
1238.847144	683.4000244
1239.393445	682.7999878
1239.93969	680.5999756
1240.485879	682.5999756
1241.032011	682.2000122
1241.578087	680.4000244
1242.124106	682.5999756
1242.67007	682.7999878
1243.215976	681.7999878
1243.761827	678.2000122
1244.307621	677.0
1244.853359	684.7999878
1245.39904	682.4000244
1245.944665	680.4000244
1246.490234	681.7999878
1247.035746	681.2000122
1247.581203	681.7999878
1248.126602	683.5999756
1248.671946	683.5999756
1249.217233	685.5999756
1249.762464	682.7999878
1250.307638	684.4000244
1250.852757	682.2000122
1251.397819	683.7999878
1251.942824	681.4000244
1252.487774	683.4000244
1253.032667	681.7999878
1253.577503	680.7999878
1254.122284	685.5999756
1254.667008	682.0
1255.211676	684.0
1255.756288	681.5999756
1256.300843	684.0
1256.845342	685.4000244
1257.389785	684.0
1257.934172	684.2000122
1258.478502	688.2000122
1259.022776	691.0
1259.566994	687.7999878
1260.111156	709.7999878
1260.655261	688.5999756
1261.199311	688.4000244
1261.743304	691.4000244
1262.28724	696.7999878
1262.831121	699.4000244
1263.374945	702.7999878
1263.918713	711.0
1264.462425	710.7999878
1265.006081	711.7999878
1265.54968	700.5999756
1266.093223	692.7999878
1266.636711	692.5999756
1267.180141	686.4000244
1267.723516	687.2000122
1268.266835	689.0
1268.810097	686.7999878
1269.353303	684.5999756
1269.896453	680.7999878
1270.439547	683.7999878
1270.982584	684.2000122
1271.525566	682.4000244
1272.068491	681.5999756
1272.61136	685.2000122
1273.154173	683.4000244
1273.69693	684.7999878
1274.239631	683.2000122
1274.782275	683.0
1275.324864	685.5999756
1275.867396	687.0
1276.409872	686.0
1276.952292	686.0
1277.494656	684.7999878
1278.036964	688.5999756
1278.579215	693.0
1279.121411	690.4000244
1279.66355	692.5999756
1280.205634	696.7999878
1280.747661	704.0
1281.289632	717.2000122
1281.831547	745.7999878
1282.373406	791.2000122
1282.915209	896.0
1283.456955	1046.0
1283.998646	1179.599976
1284.540281	1175.400024
1285.081859	1005.599976
1285.623381	839.2000122
1286.164848	759.5999756
1286.706258	726.2000122
1287.247612	711.4000244
1287.788911	700.4000244
1288.330153	695.2000122
1288.871339	693.4000244
1289.412469	690.7999878
1289.953543	687.0
1290.494561	687.5999756
1291.035523	689.5999756
1291.576428	688.5999756
1292.117278	689.2000122
1292.658072	686.4000244
1293.19881	684.7999878
1293.739492	689.4000244
1294.280118	684.5999756
1294.820687	685.7999878
1295.361201	688.0
1295.901659	685.7999878
1296.442061	685.4000244
1296.982406	685.5999756
1297.522696	685.5999756
1298.06293	687.2000122
1298.603108	685.0
1299.143229	684.7999878
1299.683295	685.0
1300.223305	689.0
1300.763259	686.5999756
1301.303157	686.2000122
1301.842999	684.0
1302.382785	684.2000122
1302.922515	686.7999878
1303.462189	684.5999756
1304.001807	681.2000122
1304.541369	684.2000122
1305.080875	686.0
1305.620326	681.7999878
1306.15972	684.0
1306.699058	682.5999756
1307.238341	681.2000122
1307.777567	683.4000244
1308.316738	681.7999878
1308.855853	682.2000122
1309.394912	681.7999878
1309.933915	683.0
1310.472862	680.4000244
1311.011753	683.4000244
1311.550588	682.2000122
1312.089367	676.5999756
1312.62809	680.0
1313.166758	679.2000122
1313.70537	683.0
1314.243925	682.5999756
1314.782425	681.0
1315.320869	680.0
1315.859257	683.2000122
1316.397589	681.2000122
1316.935866	681.5999756
1317.474086	678.7999878
1318.012251	680.4000244
1318.55036	679.5999756
1319.088413	677.5999756
1319.62641	680.7999878
1320.164351	678.5999756
1320.702236	678.4000244
1321.240066	678.2000122
1321.777839	678.5999756
1322.315557	679.5999756
1322.853219	676.0
1323.390826	675.7999878
1323.928376	680.7999878
1324.465871	675.4000244
1325.003309	677.2000122
1325.540692	678.7999878
1326.07802	676.7999878
1326.615291	681.4000244
1327.152506	680.0
1327.689666	680.5999756
1328.22677	679.2000122
1328.763818	682.5999756
1329.300811	676.7999878
1329.837747	676.7999878
1330.374628	679.4000244
1330.911453	680.2000122
1331.448222	675.5999756
1331.984936	680.7999878
1332.521594	674.0
1333.058196	675.4000244
1333.594742	680.4000244
1334.131232	679.2000122
1334.667667	676.2000122
1335.204046	680.5999756
1335.740369	680.4000244
1336.276637	674.5999756
1336.812848	677.7999878
1337.349004	680.0
1337.885105	680.4000244
1338.421149	679.7999878
1338.957138	677.4000244
1339.493071	681.0
1340.028949	675.7999878
1340.56477	676.2000122
1341.100536	677.5999756
1341.636246	678.7999878
1342.171901	679.7999878
1342.7075	679.5999756
1343.243043	680.2000122
1343.77853	679.4000244
1344.313962	679.2000122
1344.849338	680.2000122
1345.384659	677.7999878
1345.919923	675.2000122
1346.455133	681.4000244
1346.990286	676.2000122
1347.525384	675.7999878
1348.060426	678.0
1348.595412	680.2000122
1349.130343	676.4000244
1349.665218	681.5999756
1350.200037	676.0
1350.734801	682.7999878
1351.269509	676.7999878
1351.804162	682.7999878
1352.338758	676.2000122
1352.8733	678.7999878
1353.407785	681.7999878
1353.942215	677.0
1354.476589	679.4000244
1355.010908	678.0
1355.545171	680.5999756
1356.079379	679.0
1356.61353	681.7999878
1357.147627	682.4000244
1357.681667	679.0
1358.215652	680.7999878
1358.749582	681.5999756
1359.283456	675.0
1359.817274	681.2000122
1360.351037	678.4000244
1360.884744	682.2000122
1361.418395	679.2000122
1361.951991	681.2000122
1362.485531	676.4000244
1363.019016	680.2000122
1363.552445	677.5999756
1364.085819	679.2000122
1364.619137	684.0
1365.1524	685.2000122
1365.685607	682.4000244
1366.218758	683.0
1366.751854	682.5999756
1367.284894	680.0
1367.817879	681.5999756
1368.350808	681.4000244
1368.883682	684.4000244
1369.4165	691.7999878
1369.949263	705.7999878
1370.48197	701.5999756
1371.014622	686.7999878
1371.547218	683.0
1372.079758	681.0
1372.612244	683.5999756
1373.144673	683.0
1373.677047	684.2000122
1374.209366	682.0
1374.741629	687.7999878
1375.273836	683.0
1375.805989	683.7999878
1376.338085	685.4000244
1376.870126	685.0
1377.402112	684.5999756
1377.934042	685.2000122
1378.465917	685.0
1378.997736	688.2000122
1379.5295	685.4000244
1380.061208	688.7999878
1380.592861	690.5999756
1381.124459	690.5999756
1381.656	689.4000244
1382.187487	696.4000244
1382.718918	694.0
1383.250294	698.0
1383.781614	701.0
1384.312879	708.4000244
1384.844088	716.0
1385.375242	728.7999878
1385.90634	763.0
1386.437383	823.4000244
1386.968371	978.4000244
1387.499303	1328.599976
1388.03018	1738.800049
1388.561001	1592.400024
1389.091767	1095.199951
1389.622478	845.4000244
1390.153133	765.0
1390.683733	730.7999878
1391.214277	714.4000244
1391.744766	708.7999878
1392.2752	700.0
1392.805578	694.7999878
1393.335901	693.7999878
1393.866168	691.0
1394.396381	691.2000122
1394.926537	687.0
1395.456639	688.7999878
1395.986685	686.7999878
1396.516675	685.5999756
1397.046611	681.7999878
1397.576491	689.0
1398.106315	685.2000122
1398.636084	685.2000122
1399.165798	687.0
1399.695457	685.7999878
1400.22506	685.5999756
1400.754608	683.5999756
1401.284101	686.5999756
1401.813538	688.0
1402.34292	687.5999756
1402.872247	684.7999878
1403.401518	682.7999878
1403.930734	687.4000244
1404.459895	686.0
1404.989	688.7999878
1405.51805	689.4000244
1406.047045	686.7999878
1406.575984	693.7999878
1407.104869	691.4000244
1407.633697	701.0
1408.162471	707.4000244
1408.691189	721.0
1409.219852	727.5999756
1409.74846	737.7999878
1410.277013	728.5999756
1410.80551	711.7999878
1411.333952	700.0
1411.862339	692.5999756
1412.39067	688.2000122
1412.918946	685.0
1413.447167	685.5999756
1413.975333	685.4000244
1414.503444	682.2000122
1415.031499	679.0
1415.559499	693.2000122
1416.087444	681.4000244
1416.615333	677.7999878
1417.143167	683.4000244
1417.670947	679.4000244
1418.19867	680.4000244
1418.726339	678.5999756
1419.253952	679.5999756
1419.781511	680.5999756
1420.309014	678.4000244
1420.836461	678.5999756
1421.363854	676.7999878
1421.891191	681.2000122
1422.418474	678.0
1422.945701	677.4000244
1423.472872	680.2000122
1423.999989	676.4000244
1424.52705	678.7999878
1425.054057	680.7999878
1425.581008	681.0
1426.107904	677.2000122
1426.634745	678.0
1427.16153	675.0
1427.688261	675.5999756
1428.214936	678.4000244
1428.741556	678.2000122
1429.268121	677.0
1429.794631	680.2000122
1430.321085	677.4000244
1430.847485	679.0
1431.373829	676.4000244
1431.900118	676.0
1432.426353	675.7999878
1432.952532	681.0
1433.478655	680.0
1434.004724	677.7999878
1434.530738	676.5999756
1435.056696	678.2000122
1435.5826	678.2000122
1436.108448	682.4000244
1436.634241	678.5999756
1437.159979	675.4000244
1437.685662	673.5999756
1438.21129	677.4000244
1438.736863	680.4000244
1439.262381	676.5999756
1439.787843	677.5999756
1440.313251	679.0
1440.838603	680.4000244
1441.3639	678.4000244
1441.889143	676.4000244
1442.41433	679.5999756
1442.939462	680.5999756
1443.464539	678.5999756
1443.989561	677.2000122
1444.514528	680.0
1445.03944	678.7999878
1445.564297	677.2000122
1446.089099	679.5999756
1446.613846	679.5999756
1447.138537	681.5999756
1447.663174	680.2000122
1448.187756	678.0
1448.712282	678.5999756
1449.236754	680.5999756
1449.761171	677.0
1450.285532	677.4000244
1450.809839	679.2000122
1451.33409	675.7999878
1451.858287	678.7999878
1452.382428	677.4000244
1452.906515	677.4000244
1453.430546	677.5999756
1453.954523	677.7999878
1454.478444	674.0
1455.002311	678.7999878
1455.526123	677.4000244
1456.049879	677.7999878
1456.573581	679.2000122
1457.097227	678.2000122
1457.620819	677.7999878
1458.144356	678.2000122
1458.667837	677.7999878
1459.191264	680.0
1459.714636	675.5999756
1460.237952	675.7999878
1460.761214	677.7999878
1461.284421	679.4000244
1461.807573	678.7999878
1462.33067	682.4000244
1462.853712	706.0
1463.899632	687.4000244
1464.422509	681.4000244
1464.945331	678.2000122
1465.468099	679.7999878
1465.990811	676.0
1466.513469	679.7999878
1467.036071	680.2000122
1467.558619	678.7999878
1468.081112	680.0
1468.60355	677.4000244
1469.125933	676.4000244
1469.648261	679.0
1470.170534	675.7999878
1470.692752	677.7999878
1471.214916	679.2000122
1471.737024	677.2000122
1472.259078	677.0
1472.781077	678.4000244
1473.303021	676.4000244
1473.82491	675.4000244
1474.346744	677.5999756
1474.868523	678.2000122
1475.390248	676.7999878
1475.911917	676.5999756
1476.433532	673.5999756
1476.955092	675.0
1477.476597	677.5999756
1477.998047	674.7999878
1478.519442	678.5999756
1479.040783	678.2000122
1479.562068	677.0
1480.083299	674.2000122
1480.604475	670.4000244
1481.125596	676.2000122
1481.646663	675.2000122
1482.167674	674.5999756
1482.688631	675.0
1483.209533	675.5999756
1483.73038	673.2000122
1484.251172	673.0
1484.771909	673.0
1485.292592	674.4000244
1485.81322	676.4000244
1486.333793	673.7999878
1486.854311	674.4000244
1487.374775	671.2000122
1487.895183	673.4000244
1488.415537	673.4000244
1488.935836	672.7999878
1489.456081	672.5999756
1489.97627	674.5999756
1490.496405	671.7999878
1491.016485	675.5999756
1491.536511	675.2000122
1492.056481	673.5999756
1492.576397	674.5999756
1493.096258	668.2000122
1493.616064	674.2000122
1494.135816	670.5999756
1494.655513	674.4000244
1495.175155	673.4000244
1495.694742	671.7999878
1496.214274	670.5999756
1496.733752	676.0
1497.253175	674.5999756
1497.772544	673.5999756
1498.291858	672.4000244
1498.811116	674.0
1499.330321	673.2000122
1499.84947	681.7999878
1500.368565	675.2000122
1500.887605	675.0
1501.406591	672.2000122
1501.925521	674.7999878
1502.444397	672.4000244
1502.963219	673.2000122
1503.481985	674.2000122
1504.000697	671.0
1504.519355	673.0
1505.037957	673.5999756
1505.556505	674.4000244
1506.074999	674.5999756
1506.593437	671.7999878
1507.111821	673.2000122
1507.63015	673.5999756
1508.148425	671.4000244
1508.666645	675.2000122
1509.18481	672.0
1509.702921	670.0
1510.220977	674.4000244
1510.738979	681.2000122
1511.256925	671.7999878
1511.774817	675.4000244
1512.292655	675.4000244
1512.810438	672.4000244
1513.328166	673.5999756
1513.84584	673.2000122
1514.363459	671.7999878
1514.881023	673.2000122
1515.398533	673.2000122
1515.915988	673.0
1516.433389	671.2000122
1516.950734	671.0
1517.468026	672.0
1517.985263	673.7999878
1518.502445	674.7999878
1519.019572	670.2000122
1519.536645	672.5999756
1520.053664	671.0
1520.570628	674.4000244
1521.087537	672.5999756
1521.604392	676.7999878
1522.121192	671.5999756
1522.637937	674.5999756
1523.154628	674.7999878
1523.671265	673.5999756
1524.187847	671.5999756
1524.704374	675.7999878
1525.220847	673.7999878
1525.737265	686.0
1526.769938	686.0
1527.286192	672.2000122
1527.802392	676.2000122
1528.318538	671.7999878
1528.834629	672.4000244
1529.350666	670.7999878
1529.866648	673.5999756
1530.382575	671.0
1530.898448	672.2000122
1531.414266	674.7999878
1531.93003	674.4000244
1532.44574	671.5999756
1532.961395	675.7999878
1533.476995	670.5999756
1533.992541	672.5999756
1534.508033	670.2000122
1535.02347	674.2000122
1535.538852	671.2000122
1536.05418	676.4000244
1536.569454	671.4000244
1537.084673	672.2000122
1537.599837	671.4000244
1538.114947	670.4000244
1538.630003	669.7999878
1539.145004	677.0
1539.659951	672.7999878
1540.174843	673.0
1540.689681	671.5999756
1541.204465	674.0
1541.719194	673.2000122
1542.233868	672.5999756
1542.748488	673.2000122
1543.263054	673.4000244
1543.777565	676.0
1544.292022	673.4000244
1544.806424	671.0
1545.320772	676.0
1545.835066	673.4000244
1546.349305	672.7999878
1546.863489	672.5999756
1547.37762	671.7999878
1547.891696	673.5999756
1548.405717	674.2000122
1548.919684	673.2000122
1549.433597	674.4000244
1549.947455	675.0
1550.461259	672.0
1550.975009	672.0
1551.488704	676.2000122
1552.002345	674.5999756
1552.515931	675.5999756
1553.029463	671.2000122
1553.542941	675.0
1554.056364	678.2000122
1554.569733	674.4000244
1555.083048	674.2000122
1555.596308	675.7999878
1556.109514	672.7999878
1556.622665	672.4000244
1557.135762	674.5999756
1557.648805	672.7999878
1558.161794	673.7999878
1558.674728	672.4000244
1559.187608	675.4000244
1559.700433	675.0
1560.213205	674.7999878
1560.725921	674.5999756
1561.238584	671.0
1561.751192	671.0
1562.263746	675.7999878
1562.776246	676.4000244
1563.288691	676.7999878
1563.801082	674.0
1564.313419	676.0
1564.825701	676.5999756
1565.337929	677.7999878
1565.850103	677.5999756
1566.362223	675.2000122
1566.874288	676.5999756
1567.386299	676.5999756
1567.898256	681.0
1568.410158	677.4000244
1568.922007	676.4000244
1569.4338	677.5999756
1569.94554	674.2000122
1570.457226	675.7999878
1570.968857	674.7999878
1571.480434	675.7999878
1571.991956	675.5999756
1572.503425	674.7999878
1573.014839	673.5999756
1573.526199	674.7999878
1574.037505	675.2000122
1574.548756	675.0
1575.059953	675.0
1575.571096	674.7999878
1576.082185	672.7999878
1576.59322	670.4000244
1577.1042	677.7999878
1577.615126	674.0
1578.125998	672.0
1578.636816	675.2000122
1579.14758	674.5999756
1579.658289	675.5999756
1580.168944	676.4000244
1580.679545	674.4000244
1581.190092	677.2000122
1581.700585	674.2000122
1582.211023	673.5999756
1582.721407	674.0
1583.231737	675.4000244
1583.742013	674.7999878
1584.252235	675.4000244
1584.762403	674.2000122
1585.272516	679.5999756
1585.782575	674.4000244
1586.292581	674.4000244
1586.802532	676.7999878
1587.312428	674.5999756
1587.822271	677.2000122
1588.33206	674.5999756
1588.841794	676.5999756
1589.351474	672.5999756
1589.8611	670.0
1590.370672	673.4000244
1590.88019	677.5999756
1591.389654	673.2000122
1591.899064	675.0
1592.408419	671.4000244
