1042.452273	673.7999878
1043.018714	674.4000244
1043.585098	675.4000244
1044.151424	672.0
1044.717692	671.7999878
1045.283903	672.0
1045.850056	671.2000122
1046.416151	673.0
1046.982188	670.7999878
1047.548167	671.0
1048.114089	669.4000244
1048.679953	673.0
1049.24576	667.4000244
1049.811509	669.0
1050.3772	669.4000244
1050.942833	668.7999878
1051.508408	666.5999756
1052.073926	667.5999756
1052.639387	667.0
1053.204789	666.0
1053.770134	667.7999878
1054.335421	667.2000122
1054.900651	669.2000122
1055.465823	666.5999756
1056.030937	665.2000122
1056.595993	665.2000122
1057.160992	668.2000122
1057.725934	666.4000244
1058.290817	665.4000244
1058.855643	664.0
1059.420411	665.7999878
1059.985122	666.0
1060.549775	666.4000244
1061.114371	670.7999878
1061.678908	665.7999878
1062.243389	666.7999878
1062.807811	668.7999878
1063.372176	666.7999878
1063.936483	667.4000244
1064.500733	666.5999756
1065.064925	666.0
1065.62906	666.4000244
1066.193137	665.2000122
1066.757156	668.2000122
1067.321118	665.0
1067.885022	664.2000122
1068.448869	664.4000244
1069.012658	666.0
1069.57639	665.5999756
1070.140063	672.2000122
1070.70368	666.5999756
1071.267239	663.7999878
1071.83074	663.4000244
1072.394184	664.0
1072.95757	663.7999878
1073.520899	663.4000244
1074.08417	667.0
1074.647383	664.4000244
1075.21054	665.0
1075.773638	665.2000122
1076.336679	665.4000244
1076.899663	667.0
1077.462589	664.0
1078.025457	665.0
1078.588268	667.4000244
1079.151022	665.2000122
1079.713718	666.0
1080.276356	665.2000122
1080.838937	665.7999878
1081.401461	663.7999878
1081.963927	665.5999756
1082.526336	667.4000244
1083.088687	667.0
1083.650981	666.7999878
1084.213217	667.0
1084.775396	666.5999756
1085.337517	662.7999878
1085.899581	666.5999756
1086.461587	665.2000122
1087.023536	664.2000122
1087.585428	664.2000122
1088.147262	665.0
1088.709039	667.2000122
1089.270758	663.4000244
1089.83242	663.7999878
1090.394024	665.4000244
1090.955571	663.0
1091.517061	664.5999756
1092.078493	664.5999756
1092.639868	663.0
1093.201185	664.0
1093.762445	663.7999878
1094.323648	664.4000244
1094.884793	666.0
1095.445881	666.2000122
1096.006911	663.2000122
1096.567884	665.4000244
1097.1288	673.0
1097.689659	665.2000122
1098.25046	664.2000122
1098.811203	666.4000244
1099.37189	662.5999756
1099.932518	664.4000244
1100.49309	665.2000122
1101.053604	663.5999756
1101.614061	663.5999756
1102.174461	662.5999756
1102.734803	664.5999756
1103.295088	667.2000122
1103.855316	663.5999756
1104.415486	664.2000122
1104.975599	664.4000244
1105.535655	663.0
1106.095653	664.5999756
1106.655594	665.0
1107.215478	663.2000122
1107.775305	663.5999756
1108.335074	665.7999878
1108.894786	665.5999756
1109.45444	665.7999878
1110.014038	665.0
1110.573578	663.5999756
1111.133061	665.7999878
1111.692486	661.7999878
1112.251854	664.4000244
1112.811165	665.7999878
1113.370419	664.7999878
1113.929616	664.4000244
1114.488755	664.5999756
1115.047837	664.2000122
1115.606862	663.2000122
1116.16583	664.7999878
1116.72474	664.5999756
1117.283593	668.7999878
1117.842389	663.2000122
1118.401128	663.2000122
1118.959809	664.0
1119.518433	663.2000122
1120.077	664.5999756
1120.63551	665.5999756
1121.193963	664.2000122
1121.752358	666.7999878
1122.310697	665.2000122
1122.868978	666.2000122
1123.427202	666.0
1123.985368	662.5999756
1124.543478	667.0
1125.10153	664.4000244
1125.659526	662.0
1126.217464	664.4000244
1126.775345	665.7999878
1127.333168	664.2000122
1127.890935	662.2000122
1128.448644	664.2000122
1129.006297	662.4000244
1129.563892	664.0
1130.12143	664.2000122
1130.678911	665.2000122
1131.236335	664.2000122
1131.793701	662.0
1132.351011	662.5999756
1132.908263	662.7999878
1133.465458	662.5999756
1134.022597	664.2000122
1134.579678	665.0
1135.136702	660.0
1135.693669	662.7999878
1136.250578	662.5999756
1136.807431	664.0
1137.364227	661.4000244
1137.920965	664.7999878
1138.477647	665.2000122
1139.034271	663.0
1139.590839	663.0
1140.147349	662.2000122
1140.703802	663.7999878
1141.260198	662.2000122
1141.816537	665.5999756
1142.37282	662.0
1142.929045	665.4000244
1143.485213	668.4000244
1144.041323	664.2000122
1144.597377	661.5999756
1145.153374	666.5999756
1145.709314	662.2000122
1146.265197	665.5999756
1146.821023	663.0
1147.376792	663.7999878
1147.932503	665.2000122
1148.488158	663.2000122
1149.043756	665.0
1149.599297	667.2000122
1150.154781	664.0
1150.710207	664.0
1151.265577	665.7999878
1151.82089	666.2000122
1152.376146	663.4000244
1152.931345	663.0
1153.486487	667.2000122
1154.041572	665.0
1154.5966	667.7999878
1155.151571	665.0
1155.706485	663.4000244
1156.261342	662.7999878
1156.816142	663.4000244
1157.370885	662.7999878
1157.925572	663.5999756
1158.480201	665.2000122
1159.034774	664.2000122
1159.589289	664.5999756
1160.143748	665.7999878
1160.698149	666.5999756
1161.252494	665.4000244
1161.806782	664.0
1162.361013	664.2000122
1162.915187	662.4000244
1163.469304	661.7999878
1164.023364	667.2000122
1164.577368	666.5999756
1165.131314	663.5999756
1165.685204	661.4000244
1166.239036	665.4000244
1166.792812	663.2000122
1167.346531	665.4000244
1167.900193	665.2000122
1168.453798	665.0
1169.007347	665.2000122
1169.560838	663.4000244
1170.114273	663.0
1170.66765	662.7999878
1171.220971	664.2000122
1171.774235	664.5999756
1172.327443	667.2000122
1172.880593	664.4000244
1173.433687	663.5999756
1173.986723	663.7999878
1174.539703	662.5999756
1175.092626	663.4000244
1175.645493	663.0
1176.198302	666.4000244
1176.751055	666.7999878
1177.303751	662.5999756
1177.85639	665.4000244
1178.408972	667.0
1178.961498	663.2000122
1179.513966	663.4000244
1180.066378	666.0
1180.618733	660.7999878
1181.171032	664.2000122
1181.723273	663.4000244
1182.275458	664.5999756
1182.827586	664.0
1183.379657	662.4000244
1183.931672	660.5999756
1184.48363	666.5999756
1185.035531	665.2000122
1185.587375	665.7999878
1186.139162	664.0
1186.690893	667.0
1187.242567	662.4000244
1187.794184	663.7999878
1188.345745	662.0
1188.897249	665.0
1189.448696	664.7999878
1190.000086	663.0
1190.55142	664.7999878
1191.102697	664.2000122
1191.653918	664.7999878
1192.205081	662.7999878
1192.756188	663.7999878
1193.307238	682.2000122
1193.858232	663.0
1194.409169	665.7999878
1194.960049	662.4000244
1195.510872	665.4000244
1196.061639	664.7999878
1196.612349	663.2000122
1197.163003	663.4000244
1197.713599	664.5999756
1198.264139	665.0
1198.814623	662.7999878
1199.36505	664.5999756
1199.91542	660.4000244
1200.465734	662.7999878
1201.01599	665.4000244
1201.566191	663.4000244
1202.116334	662.2000122
1202.666421	665.4000244
1203.216452	664.0
1203.766425	663.0
1204.316343	664.0
1204.866203	662.5999756
1205.416007	666.0
1205.965754	663.5999756
1206.515445	664.2000122
1207.065079	662.5999756
1207.614657	665.5999756
1208.164177	662.0
1208.713642	662.2000122
1209.26305	665.5999756
1209.812401	663.2000122
1210.361695	664.4000244
1210.910933	662.4000244
1211.460115	667.0
1212.00924	665.0
1212.558308	665.5999756
1213.10732	662.2000122
1213.656275	664.2000122
1214.205174	665.7999878
1214.754016	666.7999878
1215.302801	665.7999878
1215.85153	662.7999878
1216.400203	665.4000244
1216.948819	666.2000122
1217.497378	667.7999878
1218.045881	664.0
1218.594327	665.2000122
1219.142717	665.4000244
1219.691051	664.5999756
1220.239327	664.7999878
1220.787548	661.4000244
1221.335712	664.4000244
1221.883819	665.2000122
1222.43187	663.0
1222.979864	665.0
1223.527802	663.7999878
1224.075683	665.0
1224.623508	665.4000244
1225.171277	663.0
1225.718989	664.2000122
1226.266644	664.7999878
1226.814243	664.5999756
1227.361786	665.4000244
1227.909272	667.4000244
1228.456702	666.2000122
1229.004075	666.4000244
1229.551392	665.2000122
1230.098652	663.5999756
1230.645856	665.5999756
1231.193003	665.2000122
1231.740094	665.5999756
1232.287129	664.5999756
1232.834107	666.0
1233.381029	665.5999756
1233.927894	664.2000122
1234.474703	667.0
1235.021455	667.2000122
1235.568151	661.7999878
1236.114791	665.7999878
1236.661374	664.5999756
1237.207901	663.5999756
1237.754372	665.5999756
1238.300786	666.5999756
1238.847144	663.4000244
1239.393445	667.0
1239.93969	660.0
1240.485879	665.4000244
1241.032011	667.7999878
1241.578087	663.7999878
1242.124106	664.5999756
1242.67007	665.5999756
1243.215976	666.4000244
1243.761827	662.5999756
1244.307621	663.2000122
1244.853359	665.7999878
1245.39904	664.7999878
1245.944665	666.4000244
1246.490234	667.4000244
1247.035746	666.0
1247.581203	664.4000244
1248.126602	665.7999878
1248.671946	664.0
1249.217233	662.4000244
1249.762464	664.5999756
1250.307638	666.0
1250.852757	662.7999878
1251.397819	662.7999878
1251.942824	663.2000122
1252.487774	666.5999756
1253.032667	666.7999878
1253.577503	664.2000122
1254.122284	664.4000244
1254.667008	664.2000122
1255.211676	665.5999756
1255.756288	664.7999878
1256.300843	665.2000122
1256.845342	664.2000122
1257.389785	666.4000244
1257.934172	667.0
1258.478502	667.0
1259.022776	665.7999878
1259.566994	667.0
1260.111156	684.5999756
1260.655261	664.0
1261.199311	669.0
1261.743304	669.7999878
1262.28724	665.2000122
1262.831121	670.0
1263.374945	671.7999878
1263.918713	671.5999756
1264.462425	670.7999878
1265.006081	669.2000122
1265.54968	671.0
1266.093223	667.4000244
1266.636711	667.7999878
1267.180141	667.4000244
1267.723516	665.7999878
1268.266835	668.2000122
1268.810097	665.0
1269.353303	668.4000244
1269.896453	666.2000122
1270.439547	668.0
1270.982584	665.2000122
1271.525566	667.4000244
1272.068491	662.7999878
1272.61136	663.2000122
1273.154173	665.4000244
1273.69693	667.2000122
1274.239631	664.0
1274.782275	664.4000244
1275.324864	667.2000122
1275.867396	665.5999756
1276.409872	665.7999878
1276.952292	665.0
1277.494656	668.7999878
1278.036964	666.2000122
1278.579215	670.4000244
1279.121411	669.2000122
1279.66355	669.0
1280.205634	669.5999756
1280.747661	674.7999878
1281.289632	682.0
1281.831547	694.4000244
1282.373406	718.2000122
1282.915209	765.0
1283.456955	807.5999756
1283.998646	807.4000244
1284.540281	760.2000122
1285.081859	719.7999878
1285.623381	694.0
1286.164848	682.4000244
1286.706258	674.5999756
1287.247612	673.2000122
1287.788911	670.0
1288.330153	671.2000122
1288.871339	670.4000244
1289.412469	665.2000122
1289.953543	668.0
1290.494561	667.0
1291.035523	666.7999878
1291.576428	667.7999878
1292.117278	668.0
1292.658072	666.7999878
1293.19881	665.7999878
1293.739492	665.7999878
1294.280118	663.7999878
1294.820687	666.2000122
1295.361201	664.4000244
1295.901659	666.0
1296.442061	665.0
1296.982406	665.4000244
1297.522696	665.7999878
1298.06293	664.2000122
1298.603108	666.5999756
1299.143229	666.0
1299.683295	663.7999878
1300.223305	664.2000122
1300.763259	666.0
1301.303157	668.0
1301.842999	662.7999878
1302.382785	663.4000244
1302.922515	665.0
1303.462189	665.0
1304.001807	667.0
1304.541369	663.4000244
1305.080875	665.0
1305.620326	665.4000244
1306.15972	662.2000122
1306.699058	664.2000122
1307.238341	665.7999878
1307.777567	669.2000122
1308.316738	664.0
1308.855853	663.4000244
1309.394912	663.5999756
1309.933915	662.4000244
1310.472862	663.0
1311.011753	664.2000122
1311.550588	666.0
1312.089367	665.0
1312.62809	664.2000122
1313.166758	663.7999878
1313.70537	665.0
1314.243925	665.5999756
1314.782425	664.2000122
1315.320869	663.0
1315.859257	664.0
1316.397589	664.5999756
1316.935866	666.0
1317.474086	663.4000244
1318.012251	664.5999756
1318.55036	664.4000244
1319.088413	665.7999878
1319.62641	664.2000122
1320.164351	665.0
1320.702236	665.0
1321.240066	664.0
1321.777839	665.0
1322.315557	664.7999878
1322.853219	663.0
1323.390826	662.7999878
1323.928376	669.0
1324.465871	661.2000122
1325.003309	663.4000244
1325.540692	665.0
1326.07802	663.4000244
1326.615291	663.7999878
1327.152506	662.0
1327.689666	664.7999878
1328.22677	665.5999756
1328.763818	661.2000122
1329.300811	663.5999756
1329.837747	664.2000122
1330.374628	665.2000122
1330.911453	666.2000122
1331.448222	666.0
1331.984936	662.5999756
1332.521594	665.0
1333.058196	662.7999878
1333.594742	662.2000122
1334.131232	664.4000244
1334.667667	662.0
1335.204046	665.2000122
1335.740369	665.4000244
1336.276637	665.4000244
1336.812848	662.7999878
1337.349004	663.4000244
1337.885105	662.2000122
1338.421149	663.4000244
1338.957138	662.2000122
1339.493071	663.4000244
1340.028949	664.2000122
1340.56477	664.2000122
1341.100536	666.2000122
1341.636246	665.2000122
1342.171901	662.5999756
1342.7075	662.0
1343.243043	663.7999878
1343.77853	664.0
1344.313962	665.7999878
1344.849338	664.5999756
1345.384659	665.0
1345.919923	661.2000122
1346.455133	663.7999878
1346.990286	665.0
1347.525384	664.7999878
1348.060426	665.2000122
1348.595412	663.5999756
1349.130343	663.4000244
1349.665218	661.5999756
1350.200037	662.5999756
1350.734801	665.4000244
1351.269509	667.0
1351.804162	661.4000244
1352.338758	664.7999878
1352.8733	664.4000244
1353.407785	666.7999878
1353.942215	662.4000244
1354.476589	665.5999756
1355.010908	663.7999878
1355.545171	665.2000122
1356.079379	664.4000244
1356.61353	663.5999756
1357.147627	665.5999756
1357.681667	665.0
1358.215652	665.2000122
1358.749582	665.5999756
1359.283456	665.0
1359.817274	665.0
1360.351037	667.4000244
1360.884744	664.0
1361.418395	666.2000122
1361.951991	665.5999756
1362.485531	666.0
1363.019016	664.0
1363.552445	665.2000122
1364.085819	664.5999756
1364.619137	665.2000122
1365.1524	664.4000244
1365.685607	666.2000122
1366.218758	665.7999878
1366.751854	667.4000244
1367.284894	666.2000122
1367.817879	663.2000122
1368.350808	667.0
1368.883682	666.4000244
1369.4165	668.2000122
1369.949263	669.4000244
1370.48197	669.2000122
1371.014622	668.0
1371.547218	663.0
1372.079758	665.2000122
1372.612244	664.5999756
1373.144673	661.2000122
1373.677047	664.2000122
1374.209366	665.5999756
1374.741629	667.4000244
1375.273836	664.4000244
1375.805989	662.7999878
1376.338085	664.2000122
1376.870126	666.5999756
1377.402112	668.7999878
1377.934042	665.5999756
1378.465917	668.4000244
1378.997736	667.5999756
1379.5295	668.0
1380.061208	668.7999878
1380.592861	666.5999756
1381.124459	666.7999878
1381.656	670.2000122
1382.187487	668.2000122
1382.718918	669.2000122
1383.250294	670.2000122
1383.781614	675.4000244
1384.312879	674.4000244
1384.844088	677.7999878
1385.375242	682.5999756
1385.90634	691.4000244
1386.437383	720.0
1386.968371	788.4000244
1387.499303	907.0
1388.03018	975.7999878
1388.561001	872.2000122
1389.091767	757.5999756
1389.622478	708.2000122
1390.153133	686.4000244
1390.683733	680.4000244
1391.214277	674.0
1391.744766	674.0
1392.2752	671.0
1392.805578	671.0
1393.335901	670.4000244
1393.866168	670.4000244
1394.396381	665.2000122
1394.926537	668.4000244
1395.456639	667.5999756
1395.986685	667.0
1396.516675	666.7999878
1397.046611	669.2000122
1397.576491	666.4000244
1398.106315	667.7999878
1398.636084	668.2000122
1399.165798	667.4000244
1399.695457	667.7999878
1400.22506	668.2000122
1400.754608	665.7999878
1401.284101	668.0
1401.813538	665.4000244
1402.34292	667.4000244
1402.872247	667.2000122
1403.401518	667.7999878
1403.930734	664.5999756
1404.459895	665.5999756
1404.989	667.4000244
1405.51805	666.7999878
1406.047045	664.4000244
1406.575984	667.2000122
1407.104869	669.4000244
1407.633697	672.0
1408.162471	673.0
1408.691189	673.2000122
1409.219852	677.4000244
1409.74846	672.2000122
1410.277013	673.2000122
1410.80551	673.4000244
1411.333952	669.5999756
1411.862339	669.5999756
1412.39067	667.0
1412.918946	665.7999878
1413.447167	665.5999756
1413.975333	666.5999756
1414.503444	664.0
1415.031499	665.5999756
1415.559499	680.5999756
1416.087444	666.0
1416.615333	664.7999878
1417.143167	665.2000122
1417.670947	665.7999878
1418.19867	661.7999878
1418.726339	664.4000244
1419.253952	665.4000244
1419.781511	663.7999878
1420.309014	666.0
1420.836461	664.0
1421.363854	663.2000122
1421.891191	666.5999756
1422.418474	665.5999756
1422.945701	661.4000244
1423.472872	664.5999756
1423.999989	662.4000244
1424.52705	661.5999756
1425.054057	663.4000244
1425.581008	664.0
1426.107904	665.4000244
1426.634745	663.4000244
1427.16153	662.7999878
1427.688261	659.7999878
1428.214936	661.2000122
1428.741556	662.2000122
1429.268121	662.4000244
1429.794631	662.4000244
1430.321085	664.4000244
1430.847485	662.4000244
1431.373829	664.5999756
1431.900118	662.0
1432.426353	663.4000244
1432.952532	664.5999756
1433.478655	664.5999756
1434.004724	661.7999878
1434.530738	662.5999756
1435.056696	665.2000122
1435.5826	664.4000244
1436.108448	660.4000244
1436.634241	662.2000122
1437.159979	664.5999756
1437.685662	663.4000244
1438.21129	666.5999756
1438.736863	662.4000244
1439.262381	663.4000244
1439.787843	665.0
1440.313251	663.4000244
1440.838603	662.4000244
1441.3639	662.5999756
1441.889143	663.7999878
1442.41433	665.5999756
1442.939462	665.0
1443.464539	664.2000122
1443.989561	662.4000244
1444.514528	663.5999756
1445.03944	665.2000122
1445.564297	662.2000122
1446.089099	663.2000122
1446.613846	662.7999878
1447.138537	663.5999756
1447.663174	666.5999756
1448.187756	665.0
1448.712282	664.4000244
1449.236754	662.5999756
1449.761171	664.4000244
1450.285532	666.0
1450.809839	664.2000122
1451.33409	661.7999878
1451.858287	663.5999756
1452.382428	664.5999756
1452.906515	664.4000244
1453.430546	662.4000244
1453.954523	661.2000122
1454.478444	662.4000244
1455.002311	661.7999878
1455.526123	660.5999756
1456.049879	663.4000244
1456.573581	661.0
1457.097227	662.2000122
1457.620819	664.0
1458.144356	667.5999756
1458.667837	664.4000244
1459.191264	660.5999756
1459.714636	663.7999878
1460.237952	665.7999878
1460.761214	663.5999756
1461.284421	663.7999878
1461.807573	664.0
1462.33067	665.4000244
1462.853712	681.0
1463.899632	677.4000244
1464.422509	664.0
1464.945331	663.5999756
1465.468099	662.5999756
1465.990811	662.0
1466.513469	664.0
1467.036071	663.0
1467.558619	663.0
1468.081112	662.2000122
1468.60355	664.4000244
1469.125933	666.7999878
1469.648261	660.5999756
1470.170534	664.4000244
1470.692752	664.5999756
1471.214916	664.4000244
1471.737024	663.4000244
1472.259078	661.7999878
1472.781077	661.5999756
1473.303021	663.4000244
1473.82491	662.7999878
1474.346744	662.7999878
1474.868523	662.5999756
1475.390248	663.5999756
1475.911917	662.7999878
1476.433532	662.4000244
1476.955092	662.2000122
1477.476597	660.5999756
1477.998047	662.5999756
1478.519442	662.4000244
1479.040783	663.7999878
1479.562068	663.5999756
1480.083299	663.2000122
1480.604475	664.2000122
1481.125596	662.4000244
1481.646663	661.0
1482.167674	662.0
1482.688631	666.2000122
1483.209533	661.2000122
1483.73038	664.2000122
1484.251172	660.7999878
1484.771909	663.7999878
1485.292592	661.7999878
1485.81322	661.0
1486.333793	665.7999878
1486.854311	663.0
1487.374775	662.2000122
1487.895183	664.4000244
1488.415537	662.2000122
1488.935836	664.4000244
1489.456081	664.5999756
1489.97627	661.5999756
1490.496405	663.2000122
1491.016485	660.7999878
1491.536511	662.0
1492.056481	661.7999878
1492.576397	661.5999756
1493.096258	659.5999756
1493.616064	663.4000244
1494.135816	659.7999878
1494.655513	661.5999756
1495.175155	660.7999878
1495.694742	662.5999756
1496.214274	660.5999756
1496.733752	661.4000244
1497.253175	660.5999756
1497.772544	662.5999756
1498.291858	663.2000122
1498.811116	664.2000122
1499.330321	664.0
1499.84947	668.5999756
1500.368565	659.7999878
1500.887605	663.5999756
1501.406591	661.7999878
1501.925521	662.5999756
1502.444397	665.2000122
1502.963219	661.4000244
1503.481985	664.0
1504.000697	662.4000244
1504.519355	661.5999756
1505.037957	661.7999878
1505.556505	662.5999756
1506.074999	661.0
1506.593437	662.0
1507.111821	661.7999878
1507.63015	663.4000244
1508.148425	661.5999756
1508.666645	663.5999756
1509.18481	662.7999878
1509.702921	661.2000122
1510.220977	662.4000244
1510.738979	669.0
1511.256925	661.2000122
1511.774817	663.5999756
1512.292655	662.7999878
1512.810438	663.7999878
1513.328166	660.2000122
1513.84584	663.4000244
1514.363459	664.2000122
1514.881023	664.0
1515.398533	663.4000244
1515.915988	662.5999756
1516.433389	664.2000122
1516.950734	661.7999878
1517.468026	662.4000244
1517.985263	659.0
1518.502445	660.4000244
1519.019572	661.7999878
1519.536645	662.4000244
1520.053664	660.5999756
1520.570628	663.4000244
1521.087537	662.0
1521.604392	665.5999756
1522.121192	661.4000244
1522.637937	662.7999878
1523.154628	663.0
1523.671265	661.0
1524.187847	664.4000244
1524.704374	660.5999756
1525.220847	664.0
1525.737265	671.5999756
1526.253629	694.2000122
1526.769938	682.2000122
1527.286192	664.7999878
1527.802392	663.7999878
1528.318538	659.5999756
1528.834629	662.7999878
1529.350666	661.4000244
1529.866648	663.7999878
1530.382575	662.4000244
1530.898448	663.4000244
1531.414266	662.5999756
1531.93003	664.7999878
1532.44574	661.0
1532.961395	659.7999878
1533.476995	661.0
1533.992541	659.0
1534.508033	662.4000244
1535.02347	662.0
1535.538852	662.5999756
1536.05418	663.5999756
1536.569454	661.0
1537.084673	662.4000244
1537.599837	662.2000122
1538.114947	663.0
1538.630003	660.4000244
1539.145004	663.2000122
1539.659951	663.0
1540.174843	662.2000122
1540.689681	664.4000244
1541.204465	663.5999756
1541.719194	664.7999878
1542.233868	663.4000244
1542.748488	661.5999756
1543.263054	662.7999878
1543.777565	663.4000244
1544.292022	663.5999756
1544.806424	667.0
1545.320772	663.0
1545.835066	667.0
1546.349305	661.4000244
1546.863489	665.2000122
1547.37762	664.0
1547.891696	665.5999756
1548.405717	664.0
1548.919684	661.5999756
1549.433597	667.0
1549.947455	663.7999878
1550.461259	662.2000122
1550.975009	661.2000122
1551.488704	664.4000244
1552.002345	667.2000122
1552.515931	660.7999878
1553.029463	662.5999756
1553.542941	665.0
1554.056364	663.0
1554.569733	664.2000122
1555.083048	663.7999878
1555.596308	662.2000122
1556.109514	663.5999756
1556.622665	660.4000244
1557.135762	662.2000122
1557.648805	664.0
1558.161794	663.0
1558.674728	664.2000122
1559.187608	666.7999878
1559.700433	663.5999756
1560.213205	663.2000122
1560.725921	662.0
1561.238584	663.4000244
1561.751192	665.4000244
1562.263746	664.4000244
1562.776246	665.2000122
1563.288691	662.7999878
1563.801082	666.0
1564.313419	664.0
1564.825701	663.5999756
1565.337929	669.0
1565.850103	666.4000244
1566.362223	667.2000122
1566.874288	669.4000244
1567.386299	669.2000122
1567.898256	668.2000122
1568.410158	666.2000122
1568.922007	667.2000122
1569.4338	667.4000244
1569.94554	664.2000122
1570.457226	667.2000122
1570.968857	664.2000122
1571.480434	665.5999756
1571.991956	663.7999878
1572.503425	664.0
1573.014839	661.0
1573.526199	665.0
1574.037505	663.4000244
1574.548756	662.2000122
1575.059953	663.5999756
1575.571096	663.5999756
1576.082185	663.7999878
1576.59322	662.4000244
1577.1042	665.2000122
1577.615126	662.2000122
1578.125998	660.7999878
1578.636816	661.5999756
1579.14758	662.2000122
1579.658289	660.4000244
1580.168944	665.4000244
1580.679545	662.2000122
1581.190092	666.4000244
1581.700585	660.4000244
1582.211023	664.0
1582.721407	662.4000244
1583.231737	665.7999878
1583.742013	662.0
1584.252235	661.7999878
1584.762403	661.7999878
1585.272516	662.2000122
1585.782575	661.7999878
1586.292581	663.5999756
1586.802532	664.4000244
1587.312428	661.7999878
1587.822271	660.7999878
1588.33206	661.2000122
1588.841794	664.4000244
1589.351474	664.0
1589.8611	665.4000244
1590.370672	663.4000244
1590.88019	665.2000122
1591.389654	663.5999756
1591.899064	662.0
1592.408419	662.0
