1042.452273	675.4000244
1043.018714	671.0
1043.585098	670.2000122
1044.151424	671.4000244
1044.717692	675.0
1045.283903	674.0
1045.850056	673.0
1046.416151	671.4000244
1046.982188	669.0
1047.548167	667.7999878
1048.114089	666.4000244
1048.679953	667.5999756
1049.24576	668.0
1049.811509	668.5999756
1050.3772	669.7999878
1050.942833	668.7999878
1051.508408	667.2000122
1052.073926	668.2000122
1052.639387	668.5999756
1053.204789	672.0
1053.770134	665.4000244
1054.335421	666.2000122
1054.900651	670.0
1055.465823	665.5999756
1056.030937	668.2000122
1056.595993	668.7999878
1057.160992	664.4000244
1057.725934	669.5999756
1058.290817	665.2000122
1058.855643	666.4000244
1059.420411	666.4000244
1059.985122	668.2000122
1060.549775	666.2000122
1061.114371	664.2000122
1061.678908	666.0
1062.243389	667.4000244
1062.807811	666.0
1063.372176	666.2000122
1063.936483	667.0
1064.500733	667.0
1065.064925	668.0
1065.62906	668.4000244
1066.193137	666.2000122
1066.757156	666.7999878
1067.321118	665.0
1067.885022	665.4000244
1068.448869	665.2000122
1069.012658	664.5999756
1069.57639	663.5999756
1070.140063	672.7999878
1070.70368	665.4000244
1071.267239	663.4000244
1071.83074	667.0
1072.394184	664.2000122
1072.95757	664.4000244
1073.520899	664.4000244
1074.08417	664.0
1074.647383	666.0
1075.21054	664.7999878
1075.773638	666.5999756
1076.336679	665.7999878
1076.899663	666.5999756
1077.462589	662.7999878
1078.025457	669.0
1078.588268	664.5999756
1079.151022	663.2000122
1079.713718	664.2000122
1080.276356	666.2000122
1080.838937	663.7999878
1081.401461	666.0
1081.963927	666.4000244
1082.526336	665.4000244
1083.088687	664.5999756
1083.650981	664.7999878
1084.213217	669.2000122
1084.775396	664.2000122
1085.337517	667.5999756
1085.899581	665.0
1086.461587	664.2000122
1087.023536	666.5999756
1087.585428	662.4000244
1088.147262	664.5999756
1088.709039	663.4000244
1089.270758	667.5999756
1089.83242	664.2000122
1090.394024	665.4000244
1090.955571	665.4000244
1091.517061	666.5999756
1092.078493	663.7999878
1092.639868	666.5999756
1093.201185	666.4000244
1093.762445	664.0
1094.323648	666.4000244
1094.884793	662.0
1095.445881	664.2000122
1096.006911	663.4000244
1096.567884	664.4000244
1097.1288	670.4000244
1097.689659	665.4000244
1098.25046	666.0
1098.811203	663.7999878
1099.37189	666.7999878
1099.932518	666.5999756
1100.49309	663.2000122
1101.053604	666.7999878
1101.614061	665.0
1102.174461	663.7999878
1102.734803	663.0
1103.295088	662.0
1103.855316	666.4000244
1104.415486	668.0
1104.975599	662.5999756
1105.535655	663.5999756
1106.095653	663.7999878
1106.655594	664.7999878
1107.215478	666.7999878
1107.775305	664.2000122
1108.335074	664.4000244
1108.894786	667.0
1109.45444	665.4000244
1110.014038	664.5999756
1110.573578	665.2000122
1111.133061	664.7999878
1111.692486	663.4000244
1112.251854	666.5999756
1112.811165	667.5999756
1113.370419	667.0
1113.929616	664.7999878
1114.488755	666.4000244
1115.047837	662.7999878
1115.606862	663.2000122
1116.16583	665.0
1116.72474	662.2000122
1117.283593	666.0
1117.842389	665.5999756
1118.401128	663.5999756
1118.959809	664.4000244
1119.518433	662.4000244
1120.077	664.2000122
1120.63551	665.4000244
1121.193963	664.2000122
1121.752358	665.4000244
1122.310697	662.2000122
1122.868978	664.7999878
1123.427202	663.7999878
1123.985368	663.4000244
1124.543478	664.4000244
1125.10153	664.7999878
1125.659526	665.2000122
1126.217464	667.5999756
1126.775345	664.0
1127.333168	664.5999756
1127.890935	663.4000244
1128.448644	666.0
1129.006297	664.5999756
1129.563892	666.0
1130.12143	664.0
1130.678911	663.4000244
1131.236335	663.2000122
1131.793701	667.0
1132.351011	664.0
1132.908263	662.0
1133.465458	664.7999878
1134.022597	665.4000244
1134.579678	666.0
1135.136702	665.0
1135.693669	665.5999756
1136.250578	663.7999878
1136.807431	665.2000122
1137.364227	661.5999756
1137.920965	666.4000244
1138.477647	665.2000122
1139.034271	665.0
1139.590839	663.2000122
1140.147349	664.5999756
1140.703802	667.0
1141.260198	666.2000122
1141.816537	663.4000244
1142.37282	666.0
1142.929045	662.7999878
1143.485213	667.0
1144.041323	663.7999878
1144.597377	664.2000122
1145.153374	665.5999756
1145.709314	662.7999878
1146.265197	663.7999878
1146.821023	661.7999878
1147.376792	665.2000122
1147.932503	664.5999756
1148.488158	664.7999878
1149.043756	662.7999878
1149.599297	665.0
1150.154781	662.7999878
1150.710207	663.0
1151.265577	666.4000244
1151.82089	668.5999756
1152.376146	662.2000122
1152.931345	662.4000244
1153.486487	664.4000244
1154.041572	664.7999878
1154.5966	666.2000122
1155.151571	664.2000122
1155.706485	663.7999878
1156.261342	665.2000122
1156.816142	663.2000122
1157.370885	664.5999756
1157.925572	664.4000244
1158.480201	665.0
1159.034774	662.5999756
1159.589289	661.7999878
1160.143748	665.4000244
1160.698149	662.2000122
1161.252494	663.7999878
1161.806782	664.0
1162.361013	663.2000122
1162.915187	664.5999756
1163.469304	663.0
1164.023364	663.7999878
1164.577368	665.0
1165.131314	666.4000244
1165.685204	663.7999878
1166.239036	666.2000122
1166.792812	666.4000244
1167.346531	665.5999756
1167.900193	664.0
1168.453798	663.7999878
1169.007347	666.7999878
1169.560838	665.7999878
1170.114273	665.7999878
1170.66765	665.2000122
1171.220971	664.4000244
1171.774235	664.4000244
1172.327443	664.2000122
1172.880593	662.7999878
1173.433687	663.2000122
1173.986723	663.5999756
1174.539703	663.5999756
1175.092626	666.5999756
1175.645493	661.5999756
1176.198302	664.4000244
1176.751055	662.4000244
1177.303751	665.7999878
1177.85639	664.4000244
1178.408972	662.5999756
1178.961498	664.5999756
1179.513966	665.4000244
1180.066378	662.2000122
1180.618733	664.2000122
1181.171032	665.0
1181.723273	663.7999878
1182.275458	664.4000244
1182.827586	665.0
1183.379657	664.2000122
1183.931672	662.5999756
1184.48363	665.7999878
1185.035531	665.2000122
1185.587375	665.0
1186.139162	665.2000122
1186.690893	664.7999878
1187.242567	663.4000244
1187.794184	665.7999878
1188.345745	663.7999878
1188.897249	666.5999756
1189.448696	662.2000122
1190.000086	663.7999878
1190.55142	661.7999878
1191.102697	664.2000122
1191.653918	665.2000122
1192.205081	665.5999756
1192.756188	662.4000244
1193.307238	682.2000122
1193.858232	664.7999878
1194.409169	666.2000122
1194.960049	664.5999756
1195.510872	665.4000244
1196.061639	665.4000244
1196.612349	663.7999878
1197.163003	663.0
1197.713599	663.5999756
1198.264139	666.4000244
1198.814623	662.2000122
1199.36505	664.2000122
1199.91542	664.2000122
1200.465734	663.2000122
1201.01599	664.0
1201.566191	663.7999878
1202.116334	662.7999878
1202.666421	666.5999756
1203.216452	664.4000244
1203.766425	664.4000244
1204.316343	665.7999878
1204.866203	664.7999878
1205.416007	666.7999878
1205.965754	665.7999878
1206.515445	664.7999878
1207.065079	665.4000244
1207.614657	663.5999756
1208.164177	663.0
1208.713642	666.5999756
1209.26305	664.7999878
1209.812401	667.2000122
1210.361695	665.5999756
1210.910933	662.2000122
1211.460115	662.4000244
1212.00924	669.2000122
1212.558308	664.4000244
1213.10732	662.2000122
1213.656275	664.4000244
1214.205174	665.0
1214.754016	666.4000244
1215.302801	664.2000122
1215.85153	665.0
1216.400203	667.2000122
1216.948819	662.5999756
1217.497378	664.0
1218.045881	662.4000244
1218.594327	664.4000244
1219.142717	666.4000244
1219.691051	665.5999756
1220.239327	665.4000244
1220.787548	664.5999756
1221.335712	665.2000122
1221.883819	667.4000244
1222.43187	665.2000122
1222.979864	663.2000122
1223.527802	663.7999878
1224.075683	662.2000122
1224.623508	666.7999878
1225.171277	664.2000122
1225.718989	665.2000122
1226.266644	665.2000122
1226.814243	665.5999756
1227.361786	665.4000244
1227.909272	665.4000244
1228.456702	666.2000122
1229.004075	665.4000244
1229.551392	664.7999878
1230.098652	667.5999756
1230.645856	666.7999878
1231.193003	664.0
1231.740094	667.2000122
1232.287129	665.5999756
1232.834107	666.0
1233.381029	664.0
1233.927894	661.4000244
1234.474703	664.5999756
1235.021455	665.0
1235.568151	663.4000244
1236.114791	665.4000244
1236.661374	663.5999756
1237.207901	667.7999878
1237.754372	663.7999878
1238.300786	664.0
1238.847144	663.0
1239.393445	666.7999878
1239.93969	663.7999878
1240.485879	663.4000244
1241.032011	664.5999756
1241.578087	663.7999878
1242.124106	664.5999756
1242.67007	666.5999756
1243.215976	664.0
1243.761827	665.4000244
1244.307621	663.7999878
1244.853359	666.0
1245.39904	662.4000244
1245.944665	663.5999756
1246.490234	663.2000122
1247.035746	662.4000244
1247.581203	666.5999756
1248.126602	664.2000122
1248.671946	666.5999756
1249.217233	663.5999756
1249.762464	664.7999878
1250.307638	665.4000244
1250.852757	664.0
1251.397819	666.5999756
1251.942824	663.0
1252.487774	670.5999756
1253.032667	663.5999756
1253.577503	665.5999756
1254.122284	664.7999878
1254.667008	663.0
1255.211676	665.5999756
1255.756288	665.0
1256.300843	664.4000244
1256.845342	667.0
1257.389785	667.0
1257.934172	667.5999756
1258.478502	665.7999878
1259.022776	666.0
1259.566994	663.7999878
1260.111156	680.0
1260.655261	665.4000244
1261.199311	667.0
1261.743304	668.0
1262.28724	668.4000244
1262.831121	668.4000244
1263.374945	668.4000244
1263.918713	672.4000244
1264.462425	670.5999756
1265.006081	668.5999756
1265.54968	670.4000244
1266.093223	665.7999878
1266.636711	671.4000244
1267.180141	662.5999756
1267.723516	665.2000122
1268.266835	667.4000244
1268.810097	666.5999756
1269.353303	665.5999756
1269.896453	665.0
1270.439547	664.2000122
1270.982584	666.5999756
1271.525566	663.7999878
1272.068491	664.4000244
1272.61136	666.0
1273.154173	668.0
1273.69693	665.7999878
1274.239631	666.5999756
1274.782275	665.2000122
1275.324864	667.2000122
1275.867396	665.2000122
1276.409872	667.5999756
1276.952292	666.0
1277.494656	667.0
1278.036964	666.5999756
1278.579215	668.2000122
1279.121411	667.5999756
1279.66355	668.5999756
1280.205634	670.4000244
1280.747661	672.0
1281.289632	679.5999756
1281.831547	688.2000122
1282.373406	706.2000122
1282.915209	742.7999878
1283.456955	773.5999756
1283.998646	788.7999878
1284.540281	753.4000244
1285.081859	713.0
1285.623381	686.4000244
1286.164848	679.0
1286.706258	673.5999756
1287.247612	670.7999878
1287.788911	670.0
1288.330153	666.5999756
1288.871339	666.2000122
1289.412469	666.0
1289.953543	668.7999878
1290.494561	667.0
1291.035523	666.4000244
1291.576428	664.5999756
1292.117278	668.0
1292.658072	666.5999756
1293.19881	665.5999756
1293.739492	664.5999756
1294.280118	665.4000244
1294.820687	663.0
1295.361201	668.2000122
1295.901659	667.0
1296.442061	663.4000244
1296.982406	666.2000122
1297.522696	663.7999878
1298.06293	665.4000244
1298.603108	665.4000244
1299.143229	666.2000122
1299.683295	663.2000122
1300.223305	665.2000122
1300.763259	665.5999756
1301.303157	664.0
1301.842999	664.5999756
1302.382785	663.0
1302.922515	666.4000244
1303.462189	664.7999878
1304.001807	665.2000122
1304.541369	665.7999878
1305.080875	665.5999756
1305.620326	666.0
1306.15972	664.0
1306.699058	664.2000122
1307.238341	665.2000122
1307.777567	665.4000244
1308.316738	665.5999756
1308.855853	664.2000122
1309.394912	666.4000244
1309.933915	662.0
1310.472862	665.2000122
1311.011753	662.7999878
1311.550588	663.5999756
1312.089367	664.0
1312.62809	661.7999878
1313.166758	663.4000244
1313.70537	663.4000244
1314.243925	661.7999878
1314.782425	663.4000244
1315.320869	662.7999878
1315.859257	663.0
1316.397589	662.2000122
1316.935866	665.7999878
1317.474086	663.4000244
1318.012251	663.2000122
1318.55036	663.7999878
1319.088413	662.4000244
1319.62641	663.0
1320.164351	662.4000244
1320.702236	666.5999756
1321.240066	663.2000122
1321.777839	663.2000122
1322.315557	663.5999756
1322.853219	666.4000244
1323.390826	662.5999756
1323.928376	669.2000122
1324.465871	663.7999878
1325.003309	664.4000244
1325.540692	662.5999756
1326.07802	662.4000244
1326.615291	666.0
1327.152506	664.0
1327.689666	663.0
1328.22677	663.7999878
1328.763818	664.4000244
1329.300811	663.5999756
1329.837747	662.5999756
1330.374628	666.0
1330.911453	660.2000122
1331.448222	664.2000122
1331.984936	663.5999756
1332.521594	661.7999878
1333.058196	664.2000122
1333.594742	663.5999756
1334.131232	663.4000244
1334.667667	663.0
1335.204046	660.0
1335.740369	665.0
1336.276637	664.5999756
1336.812848	662.2000122
1337.349004	667.0
1337.885105	663.2000122
1338.421149	663.0
1338.957138	662.0
1339.493071	662.0
1340.028949	661.4000244
1340.56477	664.5999756
1341.100536	662.4000244
1341.636246	661.2000122
1342.171901	663.2000122
1342.7075	665.2000122
1343.243043	662.4000244
1343.77853	664.2000122
1344.313962	665.7999878
1344.849338	661.7999878
1345.384659	665.0
1345.919923	663.2000122
1346.455133	663.0
1346.990286	664.0
1347.525384	662.2000122
1348.060426	666.4000244
1348.595412	666.2000122
1349.130343	663.4000244
1349.665218	663.2000122
1350.200037	664.7999878
1350.734801	661.5999756
1351.269509	662.0
1351.804162	665.7999878
1352.338758	665.7999878
1352.8733	664.4000244
1353.407785	662.5999756
1353.942215	664.4000244
1354.476589	664.2000122
1355.010908	667.5999756
1355.545171	665.7999878
1356.079379	664.4000244
1356.61353	664.2000122
1357.147627	662.5999756
1357.681667	664.0
1358.215652	662.0
1358.749582	663.4000244
1359.283456	663.7999878
1359.817274	663.4000244
1360.351037	665.5999756
1360.884744	666.5999756
1361.418395	662.0
1361.951991	664.7999878
1362.485531	664.5999756
1363.019016	666.0
1363.552445	665.7999878
1364.085819	664.5999756
1364.619137	665.0
1365.1524	664.7999878
1365.685607	666.4000244
1366.218758	663.7999878
1366.751854	664.2000122
1367.284894	663.4000244
1367.817879	666.4000244
1368.350808	663.4000244
1368.883682	666.7999878
1369.4165	667.7999878
1369.949263	672.0
1370.48197	668.5999756
1371.014622	664.7999878
1371.547218	664.7999878
1372.079758	665.4000244
1372.612244	663.4000244
1373.144673	661.7999878
1373.677047	665.7999878
1374.209366	663.4000244
1374.741629	664.2000122
1375.273836	665.5999756
1375.805989	666.0
1376.338085	667.0
1376.870126	665.7999878
1377.402112	662.4000244
1377.934042	664.5999756
1378.465917	667.2000122
1378.997736	667.2000122
1379.5295	668.7999878
1380.061208	664.7999878
1380.592861	665.5999756
1381.124459	668.5999756
1381.656	667.0
1382.187487	666.4000244
1382.718918	668.2000122
1383.250294	669.4000244
1383.781614	671.2000122
1384.312879	671.7999878
1384.844088	678.4000244
1385.375242	679.7999878
1385.90634	689.7999878
1386.437383	712.7999878
1386.968371	769.7999878
1387.499303	872.7999878
1388.03018	934.4000244
1388.561001	842.4000244
1389.091767	745.7999878
1389.622478	699.4000244
1390.153133	685.4000244
1390.683733	678.0
1391.214277	672.5999756
1391.744766	670.4000244
1392.2752	669.5999756
1392.805578	668.4000244
1393.335901	666.5999756
1393.866168	666.7999878
1394.396381	667.5999756
1394.926537	667.2000122
1395.456639	666.2000122
1395.986685	666.0
1396.516675	664.2000122
1397.046611	667.0
1397.576491	664.2000122
1398.106315	664.7999878
1398.636084	664.5999756
1399.165798	665.4000244
1399.695457	663.7999878
1400.22506	665.7999878
1400.754608	668.0
1401.284101	663.0
1401.813538	662.5999756
1402.34292	664.5999756
1402.872247	665.5999756
1403.401518	663.2000122
1403.930734	662.0
1404.459895	665.5999756
1404.989	664.2000122
1405.51805	664.0
1406.047045	667.2000122
1406.575984	669.0
1407.104869	667.7999878
1407.633697	668.2000122
1408.162471	673.0
1408.691189	671.0
1409.219852	676.7999878
1409.74846	676.2000122
1410.277013	674.5999756
1410.80551	670.0
1411.333952	669.4000244
1411.862339	668.7999878
1412.39067	664.7999878
1412.918946	666.4000244
1413.447167	664.0
1413.975333	664.4000244
1414.503444	663.0
1415.031499	665.0
1415.559499	677.5999756
1416.087444	663.7999878
1416.615333	664.0
1417.143167	665.5999756
1417.670947	663.0
1418.19867	665.5999756
1418.726339	664.5999756
1419.253952	662.2000122
1419.781511	664.5999756
1420.309014	664.4000244
1420.836461	661.5999756
1421.363854	663.0
1421.891191	665.2000122
1422.418474	663.4000244
1422.945701	664.2000122
1423.472872	661.7999878
1423.999989	663.7999878
1424.52705	662.7999878
1425.054057	664.7999878
1425.581008	663.7999878
1426.107904	660.5999756
1426.634745	661.0
1427.16153	664.0
1427.688261	663.2000122
1428.214936	660.4000244
1428.741556	663.5999756
1429.268121	666.4000244
1429.794631	663.5999756
1430.321085	662.7999878
1430.847485	664.2000122
1431.373829	662.2000122
1431.900118	665.4000244
1432.426353	662.4000244
1432.952532	664.2000122
1433.478655	662.4000244
1434.004724	662.2000122
1434.530738	661.2000122
1435.056696	663.7999878
1435.5826	663.2000122
1436.108448	662.4000244
1436.634241	665.7999878
1437.159979	662.0
1437.685662	661.4000244
1438.21129	663.0
1438.736863	663.4000244
1439.262381	662.5999756
1439.787843	663.0
1440.313251	668.2000122
1440.838603	662.2000122
1441.3639	664.4000244
1441.889143	662.0
1442.41433	664.7999878
1442.939462	663.5999756
1443.464539	661.0
1443.989561	662.7999878
1444.514528	663.0
1445.03944	663.7999878
1445.564297	663.2000122
1446.089099	662.0
1446.613846	662.5999756
1447.138537	664.2000122
1447.663174	663.5999756
1448.187756	663.7999878
1448.712282	663.7999878
1449.236754	665.4000244
1449.761171	665.5999756
1450.285532	662.2000122
1450.809839	664.7999878
1451.33409	661.0
1451.858287	663.2000122
1452.382428	662.4000244
1452.906515	663.4000244
1453.430546	663.0
1453.954523	663.2000122
1454.478444	662.4000244
1455.002311	659.7999878
1455.526123	663.7999878
1456.049879	662.2000122
1456.573581	660.4000244
1457.097227	665.0
1457.620819	661.0
1458.144356	663.7999878
1458.667837	663.5999756
1459.191264	662.4000244
1459.714636	666.4000244
1460.237952	664.5999756
1460.761214	663.0
1461.284421	662.7999878
1461.807573	661.5999756
1462.33067	662.0
1462.853712	677.4000244
1463.899632	673.4000244
1464.422509	663.0
1464.945331	662.2000122
1465.468099	662.0
1465.990811	662.4000244
1466.513469	663.2000122
1467.036071	664.7999878
1467.558619	665.0
1468.081112	662.5999756
1468.60355	664.4000244
1469.125933	666.2000122
1469.648261	664.7999878
1470.170534	666.5999756
1470.692752	663.4000244
1471.214916	662.0
1471.737024	660.5999756
1472.259078	663.2000122
1472.781077	662.2000122
1473.303021	661.7999878
1473.82491	663.0
1474.346744	663.7999878
1474.868523	662.0
1475.390248	662.5999756
1475.911917	662.0
1476.433532	662.4000244
1476.955092	661.2000122
1477.476597	664.7999878
1477.998047	662.0
1478.519442	662.2000122
1479.040783	664.2000122
1479.562068	663.2000122
1480.083299	664.2000122
1480.604475	663.4000244
1481.125596	664.2000122
1481.646663	664.0
1482.167674	665.0
1482.688631	662.2000122
1483.209533	663.4000244
1483.73038	663.2000122
1484.251172	661.7999878
1484.771909	659.7999878
1485.292592	663.0
1485.81322	661.4000244
1486.333793	662.5999756
1486.854311	661.4000244
1487.374775	660.5999756
1487.895183	663.0
1488.415537	661.2000122
1488.935836	663.4000244
1489.456081	662.4000244
1489.97627	660.2000122
1490.496405	661.0
1491.016485	664.7999878
1491.536511	660.4000244
1492.056481	662.2000122
1492.576397	661.2000122
1493.096258	663.0
1493.616064	662.2000122
1494.135816	661.7999878
1494.655513	662.2000122
1495.175155	659.5999756
1495.694742	660.7999878
1496.214274	661.5999756
1496.733752	660.2000122
1497.253175	659.4000244
1497.772544	663.2000122
1498.291858	662.4000244
1498.811116	663.7999878
1499.330321	661.2000122
1499.84947	669.5999756
1500.368565	663.7999878
1500.887605	663.2000122
1501.406591	659.4000244
1501.925521	663.2000122
1502.444397	663.7999878
1502.963219	661.0
1503.481985	660.5999756
1504.000697	660.7999878
1504.519355	665.0
1505.037957	660.2000122
1505.556505	661.4000244
1506.074999	662.4000244
1506.593437	662.4000244
1507.111821	662.5999756
1507.63015	661.0
1508.148425	663.0
1508.666645	662.7999878
1509.18481	659.4000244
1509.702921	662.5999756
1510.220977	662.7999878
1510.738979	672.4000244
1511.256925	661.5999756
1511.774817	662.7999878
1512.292655	663.2000122
1512.810438	663.4000244
1513.328166	661.4000244
1513.84584	662.5999756
1514.363459	662.2000122
1514.881023	662.4000244
1515.398533	663.0
1515.915988	658.2000122
1516.433389	661.4000244
1516.950734	662.5999756
1517.468026	661.4000244
1517.985263	662.7999878
1518.502445	661.7999878
1519.019572	661.0
1519.536645	658.5999756
1520.053664	660.5999756
1520.570628	660.5999756
1521.087537	661.0
1521.604392	662.4000244
1522.121192	663.2000122
1522.637937	662.2000122
1523.154628	662.7999878
1523.671265	661.4000244
1524.187847	663.2000122
1524.704374	662.7999878
1525.220847	661.5999756
1525.737265	670.7999878
1526.253629	693.0
1526.769938	679.2000122
1527.286192	665.4000244
1527.802392	661.0
1528.318538	661.4000244
1528.834629	662.2000122
1529.350666	662.0
1529.866648	663.4000244
1530.382575	663.4000244
1530.898448	663.5999756
1531.414266	664.5999756
1531.93003	664.2000122
1532.44574	662.5999756
1532.961395	660.5999756
1533.476995	664.5999756
1533.992541	662.2000122
1534.508033	661.7999878
1535.02347	664.4000244
1535.538852	662.7999878
1536.05418	663.0
1536.569454	663.5999756
1537.084673	660.0
1537.599837	662.5999756
1538.114947	663.2000122
1538.630003	660.5999756
1539.145004	662.0
1539.659951	663.4000244
1540.174843	663.4000244
1540.689681	663.5999756
1541.204465	662.4000244
1541.719194	663.2000122
1542.233868	664.2000122
1542.748488	663.0
1543.263054	665.0
1543.777565	663.7999878
1544.292022	665.4000244
1544.806424	662.5999756
1545.320772	666.2000122
1545.835066	665.4000244
1546.349305	665.7999878
1546.863489	662.4000244
1547.37762	662.0
1547.891696	664.4000244
1548.405717	663.0
1548.919684	663.2000122
1549.433597	663.7999878
1549.947455	665.4000244
1550.461259	664.2000122
1550.975009	660.7999878
1551.488704	663.2000122
1552.002345	663.7999878
1552.515931	660.5999756
1553.029463	662.5999756
1553.542941	663.2000122
1554.056364	664.7999878
1554.569733	664.7999878
1555.083048	663.0
1555.596308	661.7999878
1556.109514	664.4000244
1556.622665	663.7999878
1557.135762	665.0
1557.648805	665.4000244
1558.161794	661.5999756
1558.674728	664.4000244
1559.187608	662.4000244
1559.700433	663.4000244
1560.213205	662.4000244
1560.725921	662.7999878
1561.238584	661.4000244
1561.751192	662.2000122
1562.263746	661.7999878
1562.776246	663.7999878
1563.288691	665.2000122
1563.801082	664.7999878
1564.313419	664.5999756
1564.825701	665.5999756
1565.337929	666.4000244
1565.850103	667.5999756
1566.362223	667.4000244
1566.874288	669.2000122
1567.386299	666.0
1567.898256	667.4000244
1568.410158	666.2000122
1568.922007	665.2000122
1569.4338	666.0
1569.94554	664.5999756
1570.457226	665.7999878
1570.968857	662.4000244
1571.480434	663.2000122
1571.991956	664.0
1572.503425	664.5999756
1573.014839	663.2000122
1573.526199	662.7999878
1574.037505	665.4000244
1574.548756	662.5999756
1575.059953	663.2000122
1575.571096	662.2000122
1576.082185	662.0
1576.59322	663.2000122
1577.1042	661.4000244
1577.615126	661.4000244
1578.125998	662.5999756
1578.636816	661.7999878
1579.14758	662.0
1579.658289	662.4000244
1580.168944	661.0
1580.679545	663.4000244
1581.190092	662.7999878
1581.700585	663.5999756
1582.211023	663.2000122
1582.721407	662.4000244
1583.231737	663.5999756
1583.742013	664.7999878
1584.252235	660.7999878
1584.762403	664.5999756
1585.272516	663.0
1585.782575	662.4000244
1586.292581	665.2000122
1586.802532	662.4000244
1587.312428	660.7999878
1587.822271	662.5999756
1588.33206	663.2000122
1588.841794	661.2000122
1589.351474	663.7999878
1589.8611	662.7999878
1590.370672	664.4000244
1590.88019	661.0
1591.389654	662.2000122
1591.899064	663.0
1592.408419	658.5999756
