1042.452273	728.7999878
1043.018714	730.7999878
1043.585098	727.0
1044.151424	730.4000244
1044.717692	728.5999756
1045.283903	727.7999878
1045.850056	728.5999756
1046.416151	719.7999878
1046.982188	724.7999878
1047.548167	724.5999756
1048.114089	723.0
1048.679953	728.5999756
1049.24576	721.2000122
1049.811509	725.0
1050.3772	724.2000122
1050.942833	722.5999756
1051.508408	726.5999756
1052.073926	726.2000122
1052.639387	726.7999878
1053.204789	726.7999878
1053.770134	728.2000122
1054.335421	725.5999756
1054.900651	725.4000244
1055.465823	723.2000122
1056.030937	721.7999878
1056.595993	721.7999878
1057.160992	720.2000122
1057.725934	721.0
1058.290817	723.2000122
1058.855643	722.7999878
1059.420411	716.7999878
1059.985122	720.7999878
1060.549775	721.7999878
1061.114371	721.0
1061.678908	721.5999756
1062.243389	722.2000122
1062.807811	719.7999878
1063.372176	718.2000122
1063.936483	719.4000244
1064.500733	723.5999756
1065.064925	722.0
1065.62906	722.2000122
1066.193137	720.4000244
1066.757156	721.0
1067.321118	721.4000244
1067.885022	722.2000122
1068.448869	723.2000122
1069.012658	723.2000122
1069.57639	720.0
1070.140063	735.2000122
1070.70368	723.7999878
1071.267239	720.5999756
1071.83074	724.0
1072.394184	716.2000122
1072.95757	721.5999756
1073.520899	720.7999878
1074.08417	722.0
1074.647383	723.2000122
1075.21054	717.0
1075.773638	720.4000244
1076.336679	723.5999756
1076.899663	721.2000122
1077.462589	724.4000244
1078.025457	721.2000122
1078.588268	724.7999878
1079.151022	722.4000244
1079.713718	727.0
1080.276356	721.7999878
1080.838937	721.5999756
1081.401461	722.2000122
1081.963927	724.4000244
1082.526336	729.7999878
1083.088687	729.0
1083.650981	725.4000244
1084.213217	729.2000122
1084.775396	725.7999878
1085.337517	722.5999756
1085.899581	726.7999878
1086.461587	729.0
1087.023536	725.4000244
1087.585428	729.7999878
1088.147262	730.5999756
1088.709039	731.5999756
1089.270758	728.2000122
1089.83242	734.0
1090.394024	736.4000244
1090.955571	737.2000122
1091.517061	740.0
1092.078493	740.0
1092.639868	734.2000122
1093.201185	736.2000122
1093.762445	738.7999878
1094.323648	735.0
1094.884793	743.5999756
1095.445881	736.5999756
1096.006911	736.5999756
1096.567884	734.5999756
1097.1288	744.5999756
1097.689659	737.4000244
1098.25046	737.4000244
1098.811203	736.4000244
1099.37189	729.5999756
1099.932518	734.4000244
1100.49309	724.2000122
1101.053604	732.0
1101.614061	728.7999878
1102.174461	720.7999878
1102.734803	730.5999756
1103.295088	730.4000244
1103.855316	729.7999878
1104.415486	726.4000244
1104.975599	732.5999756
1105.535655	729.0
1106.095653	728.7999878
1106.655594	724.7999878
1107.215478	723.5999756
1107.775305	726.2000122
1108.335074	726.0
1108.894786	723.0
1109.45444	724.7999878
1110.014038	721.7999878
1110.573578	722.5999756
1111.133061	726.4000244
1111.692486	723.7999878
1112.251854	725.5999756
1112.811165	722.5999756
1113.370419	718.0
1113.929616	722.2000122
1114.488755	721.2000122
1115.047837	720.5999756
1115.606862	719.5999756
1116.16583	720.5999756
1116.72474	723.5999756
1117.283593	726.7999878
1117.842389	722.7999878
1118.401128	724.5999756
1118.959809	720.7999878
1119.518433	722.7999878
1120.077	720.5999756
1120.63551	719.0
1121.193963	727.2000122
1121.752358	720.2000122
1122.310697	722.5999756
1122.868978	722.0
1123.427202	722.4000244
1123.985368	724.0
1124.543478	719.2000122
1125.10153	719.2000122
1125.659526	724.2000122
1126.217464	721.4000244
1126.775345	718.5999756
1127.333168	720.7999878
1127.890935	724.7999878
1128.448644	724.0
1129.006297	725.0
1129.563892	726.5999756
1130.12143	727.7999878
1130.678911	723.2000122
1131.236335	723.0
1131.793701	718.4000244
1132.351011	717.0
1132.908263	725.0
1133.465458	718.5999756
1134.022597	727.4000244
1134.579678	724.0
1135.136702	722.7999878
1135.693669	717.4000244
1136.250578	721.5999756
1136.807431	720.5999756
1137.364227	718.0
1137.920965	718.7999878
1138.477647	720.5999756
1139.034271	724.2000122
1139.590839	722.7999878
1140.147349	721.2000122
1140.703802	724.4000244
1141.260198	723.4000244
1141.816537	721.5999756
1142.37282	720.4000244
1142.929045	721.2000122
1143.485213	721.5999756
1144.041323	720.7999878
1144.597377	725.5999756
1145.153374	722.7999878
1145.709314	722.2000122
1146.265197	722.5999756
1146.821023	723.2000122
1147.376792	724.2000122
1147.932503	722.2000122
1148.488158	722.2000122
1149.043756	721.0
1149.599297	724.5999756
1150.154781	723.0
1150.710207	725.0
1151.265577	721.0
1151.82089	722.2000122
1152.376146	719.7999878
1152.931345	723.2000122
1153.486487	720.4000244
1154.041572	725.4000244
1154.5966	723.5999756
1155.151571	720.7999878
1155.706485	724.4000244
1156.261342	723.5999756
1156.816142	722.5999756
1157.370885	722.5999756
1157.925572	722.4000244
1158.480201	724.7999878
1159.034774	723.2000122
1159.589289	720.7999878
1160.143748	726.5999756
1160.698149	724.7999878
1161.252494	722.5999756
1161.806782	726.5999756
1162.361013	728.5999756
1162.915187	728.0
1163.469304	725.0
1164.023364	725.0
1164.577368	723.5999756
1165.131314	724.4000244
1165.685204	721.4000244
1166.239036	718.2000122
1166.792812	721.5999756
1167.346531	724.7999878
1167.900193	725.7999878
1168.453798	725.2000122
1169.007347	727.2000122
1169.560838	725.4000244
1170.114273	719.2000122
1170.66765	724.5999756
1171.220971	724.2000122
1171.774235	724.5999756
1172.327443	725.0
1172.880593	722.4000244
1173.433687	721.2000122
1173.986723	726.2000122
1174.539703	723.4000244
1175.092626	727.2000122
1175.645493	723.7999878
1176.198302	729.2000122
1176.751055	727.4000244
1177.303751	726.0
1177.85639	727.4000244
1178.408972	726.2000122
1178.961498	724.4000244
1179.513966	723.0
1180.066378	720.7999878
1180.618733	719.7999878
1181.171032	720.5999756
1181.723273	727.4000244
1182.275458	723.4000244
1182.827586	724.0
1183.379657	724.0
1183.931672	723.7999878
1184.48363	723.5999756
1185.035531	724.0
1185.587375	723.2000122
1186.139162	721.4000244
1186.690893	726.2000122
1187.242567	727.7999878
1187.794184	723.4000244
1188.345745	723.7999878
1188.897249	726.2000122
1189.448696	724.0
1190.000086	724.0
1190.55142	723.4000244
1191.102697	725.7999878
1191.653918	726.4000244
1192.205081	724.5999756
1192.756188	726.4000244
1193.307238	741.5999756
1193.858232	724.7999878
1194.409169	725.4000244
1194.960049	726.2000122
1195.510872	728.4000244
1196.061639	722.0
1196.612349	724.4000244
1197.163003	725.7999878
1197.713599	725.2000122
1198.264139	723.5999756
1198.814623	722.7999878
1199.36505	726.0
1199.91542	725.2000122
1200.465734	721.0
1201.01599	728.4000244
1201.566191	723.5999756
1202.116334	723.2000122
1202.666421	726.2000122
1203.216452	722.2000122
1203.766425	722.5999756
1204.316343	726.7999878
1204.866203	728.0
1205.416007	725.5999756
1205.965754	722.4000244
1206.515445	724.5999756
1207.065079	724.7999878
1207.614657	725.4000244
1208.164177	727.4000244
1208.713642	726.2000122
1209.26305	728.2000122
1209.812401	724.7999878
1210.361695	724.7999878
1210.910933	728.4000244
1211.460115	723.4000244
1212.00924	722.0
1212.558308	724.5999756
1213.10732	727.7999878
1213.656275	725.4000244
1214.205174	727.4000244
1214.754016	726.2000122
1215.302801	727.2000122
1215.85153	726.7999878
1216.400203	728.5999756
1216.948819	727.2000122
1217.497378	725.2000122
1218.045881	727.0
1218.594327	725.4000244
1219.142717	726.0
1219.691051	729.0
1220.239327	740.0
1221.335712	726.0
1221.883819	727.2000122
1222.43187	724.2000122
1222.979864	723.2000122
1223.527802	723.4000244
1224.075683	727.0
1224.623508	725.2000122
1225.171277	728.4000244
1225.718989	730.2000122
1226.266644	727.5999756
1226.814243	727.2000122
1227.361786	730.2000122
1227.909272	727.7999878
1228.456702	728.7999878
1229.004075	727.7999878
1229.551392	724.5999756
1230.098652	727.4000244
1230.645856	721.0
1231.193003	731.2000122
1231.740094	726.7999878
1232.287129	729.4000244
1232.834107	728.7999878
1233.381029	728.4000244
1233.927894	725.0
1234.474703	727.0
1235.021455	723.5999756
1235.568151	728.4000244
1236.114791	728.7999878
1236.661374	727.5999756
1237.207901	729.7999878
1237.754372	727.0
1238.300786	727.5999756
1238.847144	725.2000122
1239.393445	729.4000244
1239.93969	727.5999756
1240.485879	736.0
1241.032011	726.0
1241.578087	728.0
1242.124106	731.4000244
1242.67007	732.4000244
1243.215976	729.2000122
1243.761827	730.4000244
1244.307621	724.4000244
1244.853359	735.7999878
1245.39904	727.2000122
1245.944665	729.5999756
1246.490234	729.4000244
1247.035746	726.7999878
1247.581203	729.4000244
1248.126602	730.7999878
1248.671946	732.4000244
1249.217233	733.4000244
1249.762464	732.5999756
1250.307638	731.0
1250.852757	729.0
1251.397819	733.7999878
1251.942824	730.5999756
1252.487774	729.7999878
1253.032667	729.0
1253.577503	732.7999878
1254.122284	734.4000244
1254.667008	732.7999878
1255.211676	734.7999878
1255.756288	734.0
1256.300843	733.0
1256.845342	731.4000244
1257.389785	732.0
1257.934172	738.4000244
1258.478502	741.4000244
1259.022776	741.0
1259.566994	739.5999756
1260.111156	761.0
1260.655261	749.2000122
1261.199311	743.7999878
1261.743304	749.0
1262.28724	761.5999756
1262.831121	764.2000122
1263.374945	766.5999756
1263.918713	768.4000244
1264.462425	764.2000122
1265.006081	754.2000122
1265.54968	749.5999756
1266.093223	751.0
1266.636711	741.5999756
1267.180141	741.4000244
1267.723516	737.2000122
1268.266835	742.4000244
1268.810097	737.7999878
1269.353303	738.0
1269.896453	745.2000122
1270.439547	742.2000122
1270.982584	743.5999756
1271.525566	736.0
1272.068491	735.2000122
1272.61136	740.5999756
1273.154173	734.5999756
1273.69693	739.5999756
1274.239631	736.4000244
1274.782275	738.5999756
1275.324864	740.4000244
1275.867396	742.4000244
1276.409872	743.4000244
1276.952292	737.7999878
1277.494656	740.2000122
1278.036964	740.7999878
1278.579215	747.7999878
1279.121411	745.7999878
1279.66355	755.4000244
1280.205634	765.5999756
1280.747661	779.0
1281.289632	797.7999878
1281.831547	860.0
1282.373406	976.5999756
1282.915209	1156.400024
1283.456955	1321.800049
1283.998646	1342.599976
1284.540281	1157.199951
1285.081859	970.4000244
1285.623381	855.7999878
1286.164848	798.4000244
1286.706258	781.0
1287.247612	767.0
1287.788911	755.7999878
1288.330153	753.2000122
1288.871339	747.5999756
1289.412469	751.2000122
1289.953543	743.2000122
1290.494561	749.5999756
1291.035523	746.7999878
1291.576428	738.7999878
1292.117278	742.2000122
1292.658072	742.5999756
1293.19881	738.2000122
1293.739492	737.2000122
1294.280118	732.5999756
1294.820687	731.7999878
1295.361201	744.7999878
1295.901659	738.4000244
1296.442061	739.7999878
1296.982406	736.7999878
1297.522696	742.7999878
1298.06293	735.5999756
1298.603108	739.5999756
1299.143229	735.7999878
1299.683295	735.7999878
1300.223305	737.2000122
1300.763259	739.7999878
1301.303157	734.4000244
1301.842999	734.7999878
1302.382785	738.4000244
1302.922515	731.4000244
1303.462189	741.2000122
1304.001807	738.7999878
1304.541369	734.2000122
1305.080875	733.5999756
1305.620326	736.7999878
1306.15972	733.7999878
1306.699058	736.0
1307.238341	740.2000122
1307.777567	732.4000244
1308.316738	732.4000244
1308.855853	735.4000244
1309.394912	734.7999878
1309.933915	737.0
1310.472862	730.0
1311.011753	735.5999756
1311.550588	737.7999878
1312.089367	735.4000244
1312.62809	737.2000122
1313.166758	732.4000244
1313.70537	737.4000244
1314.243925	739.5999756
1314.782425	735.0
1315.320869	735.2000122
1315.859257	738.5999756
1316.397589	736.0
1316.935866	737.4000244
1317.474086	739.7999878
1318.012251	735.0
1318.55036	736.7999878
1319.088413	731.4000244
1319.62641	734.7999878
1320.164351	733.0
1320.702236	730.4000244
1321.240066	733.5999756
1321.777839	732.7999878
1322.315557	735.2000122
1322.853219	734.4000244
1323.390826	739.2000122
1323.928376	741.2000122
1324.465871	736.0
1325.003309	729.2000122
1325.540692	735.4000244
1326.07802	736.0
1326.615291	735.5999756
1327.152506	733.4000244
1327.689666	741.2000122
1328.22677	737.2000122
1328.763818	734.2000122
1329.300811	737.0
1329.837747	736.2000122
1330.374628	734.5999756
1330.911453	735.5999756
1331.448222	739.2000122
1331.984936	737.5999756
1332.521594	731.5999756
1333.058196	734.7999878
1333.594742	734.2000122
1334.131232	735.7999878
1334.667667	737.5999756
1335.204046	738.7999878
1335.740369	732.4000244
1336.276637	737.7999878
1336.812848	735.5999756
1337.349004	734.5999756
1337.885105	738.4000244
1338.421149	732.5999756
1338.957138	738.7999878
1339.493071	732.5999756
1340.028949	742.2000122
1340.56477	738.4000244
1341.100536	740.4000244
1341.636246	742.0
1342.171901	737.2000122
1342.7075	738.4000244
1343.243043	733.7999878
1343.77853	737.7999878
1344.313962	729.5999756
1344.849338	737.2000122
1345.384659	740.7999878
1345.919923	735.4000244
1346.455133	737.7999878
1346.990286	740.4000244
1347.525384	733.5999756
1348.060426	735.7999878
1348.595412	732.0
1349.130343	737.5999756
1349.665218	734.7999878
1350.200037	734.4000244
1350.734801	737.2000122
1351.269509	738.7999878
1351.804162	737.4000244
1352.338758	734.0
1352.8733	737.2000122
1353.407785	735.5999756
1353.942215	737.7999878
1354.476589	742.0
1355.010908	734.2000122
1355.545171	734.5999756
1356.079379	738.0
1356.61353	733.5999756
1357.147627	739.7999878
1357.681667	740.2000122
1358.215652	734.5999756
1358.749582	734.0
1359.283456	743.0
1359.817274	742.2000122
1360.351037	738.7999878
1360.884744	740.0
1361.418395	733.7999878
1361.951991	739.5999756
1362.485531	739.5999756
1363.019016	739.0
1363.552445	737.5999756
1364.085819	744.5999756
1364.619137	736.4000244
1365.1524	743.4000244
1365.685607	740.4000244
1366.218758	743.2000122
1366.751854	738.5999756
1367.284894	742.7999878
1367.817879	740.2000122
1368.350808	742.5999756
1368.883682	742.5999756
1369.4165	752.5999756
1369.949263	771.4000244
1370.48197	758.2000122
1371.014622	753.2000122
1371.547218	744.7999878
1372.079758	748.5999756
1372.612244	741.5999756
1373.144673	741.0
1373.677047	746.2000122
1374.209366	743.2000122
1374.741629	746.7999878
1375.273836	740.2000122
1375.805989	745.4000244
1376.338085	746.0
1376.870126	742.0
1377.402112	742.7999878
1377.934042	747.7999878
1378.465917	747.7999878
1378.997736	748.4000244
1379.5295	750.7999878
1380.061208	752.5999756
1380.592861	752.5999756
1381.124459	759.5999756
1381.656	748.5999756
1382.187487	758.2000122
1382.718918	759.0
1383.250294	761.5999756
1383.781614	772.0
1384.312879	773.5999756
1384.844088	799.7999878
1385.375242	824.7999878
1385.90634	873.0
1386.437383	987.7999878
1386.968371	1280.800049
1387.499303	1820.599976
1388.03018	2104.399902
1388.561001	1599.599976
1389.091767	1107.400024
1389.622478	905.7999878
1390.153133	836.0
1390.683733	791.0
1391.214277	781.7999878
1391.744766	771.5999756
1392.2752	766.0
1392.805578	762.7999878
1393.335901	755.7999878
1393.866168	759.7999878
1394.396381	750.2000122
1394.926537	758.5999756
1395.456639	752.5999756
1395.986685	748.4000244
1396.516675	751.4000244
1397.046611	747.5999756
1397.576491	745.0
1398.106315	750.4000244
1398.636084	750.5999756
1399.165798	754.0
1399.695457	749.0
1400.22506	746.5999756
1400.754608	747.2000122
1401.284101	747.7999878
1401.813538	743.5999756
1402.34292	747.7999878
1402.872247	748.0
1403.401518	752.5999756
1403.930734	745.5999756
1404.459895	750.7999878
1404.989	751.2000122
1405.51805	751.0
1406.047045	758.2000122
1406.575984	755.4000244
1407.104869	764.4000244
1407.633697	774.7999878
1408.162471	783.0
1408.691189	796.7999878
1409.219852	802.2000122
1409.74846	804.7999878
1410.277013	792.4000244
1410.80551	781.5999756
1411.333952	760.7999878
1411.862339	750.7999878
1412.39067	750.2000122
1412.918946	748.0
1413.447167	745.5999756
1413.975333	739.4000244
1414.503444	747.0
1415.031499	743.5999756
1415.559499	762.0
1416.087444	738.7999878
1416.615333	742.0
1417.143167	735.7999878
1417.670947	745.4000244
1418.19867	740.5999756
1418.726339	738.0
1419.253952	740.4000244
1419.781511	740.4000244
1420.309014	737.7999878
1420.836461	736.7999878
1421.363854	739.4000244
1421.891191	739.0
1422.418474	740.7999878
1422.945701	738.7999878
1423.472872	741.0
1423.999989	736.2000122
1424.52705	741.5999756
1425.054057	743.5999756
1425.581008	739.0
1426.107904	745.4000244
1426.634745	743.7999878
1427.16153	743.4000244
1427.688261	740.0
1428.214936	741.4000244
1428.741556	735.2000122
1429.268121	730.2000122
1429.794631	738.4000244
1430.321085	740.2000122
1430.847485	739.5999756
1431.373829	736.0
1431.900118	738.5999756
1432.426353	738.4000244
1432.952532	737.2000122
1433.478655	743.4000244
1434.004724	738.7999878
1434.530738	740.5999756
1435.056696	740.0
1435.5826	743.5999756
1436.108448	744.4000244
1436.634241	736.7999878
1437.159979	736.2000122
1437.685662	734.7999878
1438.21129	734.0
1438.736863	737.7999878
1439.262381	741.0
1439.787843	743.5999756
1440.313251	740.7999878
1440.838603	745.7999878
1441.3639	734.0
1441.889143	738.2000122
1442.41433	741.5999756
1442.939462	735.5999756
1443.464539	738.0
1443.989561	735.4000244
1444.514528	736.4000244
1445.03944	737.2000122
1445.564297	737.5999756
1446.089099	732.5999756
1446.613846	744.2000122
1447.138537	742.0
1447.663174	738.4000244
1448.187756	737.2000122
1448.712282	738.4000244
1449.236754	739.2000122
1449.761171	737.4000244
1450.285532	739.4000244
1450.809839	734.7999878
1451.33409	740.0
1451.858287	738.4000244
1452.382428	737.2000122
1452.906515	739.5999756
1453.430546	736.4000244
1453.954523	737.0
1454.478444	736.4000244
1455.002311	733.2000122
1455.526123	734.2000122
1456.049879	738.5999756
1456.573581	733.4000244
1457.097227	734.2000122
1457.620819	739.5999756
1458.144356	737.5999756
1458.667837	737.2000122
1459.191264	735.2000122
1459.714636	736.5999756
1460.237952	736.0
1460.761214	735.2000122
1461.284421	736.5999756
1461.807573	743.2000122
1462.33067	734.7999878
1462.853712	748.7999878
1463.376699	769.0
1463.899632	744.4000244
1464.422509	740.2000122
1464.945331	732.4000244
1465.468099	734.5999756
1465.990811	739.2000122
1466.513469	740.7999878
1467.036071	738.7999878
1467.558619	732.5999756
1468.081112	737.2000122
1468.60355	734.5999756
1469.125933	734.2000122
1469.648261	737.4000244
1470.170534	736.2000122
1470.692752	737.7999878
1471.214916	738.2000122
1471.737024	739.0
1472.259078	741.7999878
1472.781077	736.2000122
1473.303021	736.5999756
1473.82491	737.2000122
1474.346744	735.4000244
1474.868523	731.5999756
1475.390248	738.7999878
1475.911917	734.2000122
1476.433532	736.0
1476.955092	736.0
1477.476597	733.2000122
1477.998047	735.5999756
1478.519442	740.4000244
1479.040783	735.2000122
1479.562068	734.2000122
1480.083299	739.0
1480.604475	736.2000122
1481.125596	736.0
1481.646663	740.5999756
1482.167674	738.0
1482.688631	739.0
1483.209533	736.2000122
1483.73038	740.4000244
1484.251172	732.7999878
1484.771909	735.0
1485.292592	736.7999878
1485.81322	741.0
1486.333793	737.4000244
1486.854311	736.7999878
1487.374775	735.0
1487.895183	740.0
1488.415537	740.4000244
1488.935836	732.4000244
1489.456081	734.2000122
1489.97627	738.2000122
1490.496405	735.4000244
1491.016485	739.5999756
1491.536511	735.7999878
1492.056481	742.2000122
1492.576397	735.7999878
1493.096258	731.5999756
1493.616064	737.7999878
1494.135816	738.7999878
1494.655513	737.0
1495.175155	736.4000244
1495.694742	733.0
1496.214274	736.5999756
1496.733752	735.2000122
1497.253175	740.4000244
1497.772544	739.7999878
1498.291858	739.0
1498.811116	738.0
1499.330321	737.7999878
1499.84947	742.4000244
1500.368565	736.5999756
1500.887605	734.7999878
1501.406591	736.2000122
1501.925521	732.5999756
1502.444397	738.2000122
1502.963219	739.4000244
1503.481985	737.2000122
1504.000697	741.0
1504.519355	735.7999878
1505.037957	738.5999756
1505.556505	738.5999756
1506.074999	732.5999756
1506.593437	737.2000122
1507.111821	737.0
1507.63015	739.7999878
1508.148425	731.4000244
1508.666645	738.0
1509.18481	732.5999756
1509.702921	736.4000244
1510.220977	738.0
1510.738979	745.4000244
1511.256925	740.7999878
1511.774817	735.2000122
1512.292655	737.7999878
1512.810438	737.0
1513.328166	739.0
1513.84584	738.2000122
1514.363459	740.2000122
1514.881023	728.5999756
1515.398533	740.5999756
1515.915988	735.2000122
1516.433389	733.0
1516.950734	738.5999756
1517.468026	742.4000244
1517.985263	735.4000244
1518.502445	742.7999878
1519.019572	736.5999756
1519.536645	738.4000244
1520.053664	734.4000244
1520.570628	735.0
1521.087537	736.7999878
1521.604392	740.2000122
1522.121192	737.2000122
1522.637937	735.7999878
1523.154628	735.2000122
1523.671265	733.0
1524.187847	734.0
1524.704374	739.0
1525.220847	739.0
1525.737265	750.0
1526.253629	763.7999878
1526.769938	748.0
1527.286192	739.2000122
1527.802392	737.0
1528.318538	734.7999878
1528.834629	736.4000244
1529.350666	745.4000244
1529.866648	741.0
1530.382575	739.5999756
1530.898448	734.0
1531.414266	743.0
1531.93003	744.4000244
1532.44574	734.5999756
1532.961395	738.2000122
1533.476995	740.2000122
1533.992541	739.2000122
1534.508033	741.0
1535.02347	739.5999756
1535.538852	738.2000122
1536.05418	742.2000122
1536.569454	730.5999756
1537.084673	737.7999878
1537.599837	738.7999878
1538.114947	734.4000244
1538.630003	741.0
1539.145004	739.4000244
1539.659951	740.7999878
1540.174843	736.2000122
1540.689681	743.2000122
1541.204465	738.0
1541.719194	744.0
1542.233868	743.2000122
1542.748488	740.2000122
1543.263054	738.5999756
1543.777565	741.0
1544.292022	740.7999878
1544.806424	742.5999756
1545.320772	739.5999756
1545.835066	740.4000244
1546.349305	746.5999756
1546.863489	739.7999878
1547.37762	738.5999756
1547.891696	736.4000244
1548.405717	738.0
1548.919684	742.5999756
1549.433597	737.5999756
1549.947455	744.4000244
1550.461259	735.2000122
1550.975009	738.7999878
1551.488704	740.2000122
1552.002345	740.7999878
1552.515931	745.4000244
1553.029463	741.5999756
1553.542941	738.5999756
1554.056364	745.7999878
1554.569733	739.2000122
1555.083048	741.5999756
1555.596308	740.5999756
1556.109514	740.7999878
1556.622665	739.0
1557.135762	739.0
1557.648805	738.5999756
1558.161794	743.5999756
1558.674728	742.4000244
1559.187608	733.5999756
1559.700433	737.5999756
1560.213205	738.2000122
1560.725921	741.2000122
1561.238584	739.2000122
1561.751192	736.7999878
1562.263746	741.5999756
1562.776246	743.5999756
1563.288691	746.0
1563.801082	737.7999878
1564.313419	740.2000122
1564.825701	743.7999878
1565.337929	743.0
1565.850103	741.2000122
1566.362223	741.2000122
1566.874288	743.4000244
1567.386299	740.7999878
1567.898256	742.4000244
1568.410158	747.0
1568.922007	740.5999756
1569.4338	743.0
1569.94554	741.7999878
1570.457226	744.5999756
1570.968857	741.7999878
1571.480434	746.2000122
1571.991956	739.5999756
1572.503425	745.4000244
1573.014839	746.0
1573.526199	735.7999878
1574.037505	741.5999756
1574.548756	745.5999756
1575.059953	737.5999756
1575.571096	734.2000122
1576.082185	742.0
1576.59322	738.7999878
1577.1042	740.7999878
1577.615126	734.5999756
1578.125998	742.0
1578.636816	744.7999878
1579.14758	743.4000244
1579.658289	739.7999878
1580.168944	742.4000244
1580.679545	742.7999878
1581.190092	736.4000244
1581.700585	732.7999878
1582.211023	742.5999756
1582.721407	736.4000244
1583.231737	738.0
1583.742013	741.2000122
1584.252235	735.7999878
1584.762403	743.2000122
1585.272516	738.7999878
1585.782575	740.7999878
1586.292581	739.0
1586.802532	732.2000122
1587.312428	739.2000122
1587.822271	741.7999878
1588.33206	743.2000122
1588.841794	736.7999878
1589.351474	741.7999878
1589.8611	743.7999878
1590.370672	739.5999756
1590.88019	735.7999878
1591.389654	738.4000244
1591.899064	742.7999878
1592.408419	744.2000122
