1042.452273	677.333313
1043.018714	674.0
1043.585098	678.666687
1044.151424	677.333313
1044.717692	671.666687
1045.283903	673.0
1045.850056	673.333313
1046.416151	677.333313
1046.982188	670.666687
1047.548167	673.666687
1048.114089	672.333313
1048.679953	672.333313
1049.24576	674.333313
1049.811509	670.0
1050.3772	672.666687
1050.942833	669.333313
1051.508408	671.333313
1052.073926	670.666687
1052.639387	666.666687
1053.204789	669.666687
1053.770134	670.333313
1054.335421	668.0
1054.900651	674.0
1055.465823	668.333313
1056.030937	666.666687
1056.595993	671.666687
1057.160992	667.333313
1057.725934	669.333313
1058.290817	669.0
1058.855643	666.0
1059.420411	667.333313
1059.985122	673.666687
1060.549775	668.0
1061.114371	667.333313
1061.678908	668.333313
1062.243389	669.0
1062.807811	671.333313
1063.372176	669.333313
1063.936483	666.0
1064.500733	667.666687
1065.064925	668.333313
1065.62906	671.0
1066.193137	667.333313
1066.757156	670.333313
1067.321118	669.333313
1067.885022	665.333313
1068.448869	668.666687
1069.012658	667.333313
1069.57639	668.333313
1070.140063	675.666687
1070.70368	667.666687
1071.267239	671.0
1071.83074	666.0
1072.394184	669.333313
1072.95757	667.0
1073.520899	665.0
1074.08417	666.666687
1074.647383	669.0
1075.21054	668.333313
1075.773638	669.333313
1076.336679	669.333313
1076.899663	668.333313
1077.462589	667.0
1078.025457	665.0
1078.588268	668.0
1079.151022	667.0
1079.713718	664.333313
1080.276356	670.333313
1080.838937	664.333313
1081.401461	668.333313
1081.963927	668.333313
1082.526336	671.0
1083.088687	665.666687
1083.650981	672.333313
1084.213217	667.333313
1084.775396	668.333313
1085.337517	666.333313
1085.899581	668.666687
1086.461587	665.666687
1087.023536	669.333313
1087.585428	665.666687
1088.147262	668.333313
1088.709039	669.666687
1089.270758	667.666687
1089.83242	668.0
1090.394024	673.0
1090.955571	668.0
1091.517061	666.666687
1092.078493	667.666687
1092.639868	669.666687
1093.201185	669.666687
1093.762445	669.0
1094.323648	668.333313
1094.884793	669.0
1095.445881	669.333313
1096.006911	670.333313
1096.567884	668.666687
1097.1288	670.333313
1097.689659	665.0
1098.25046	669.666687
1098.811203	667.333313
1099.37189	666.333313
1099.932518	670.0
1100.49309	670.0
1101.053604	667.666687
1101.614061	664.666687
1102.174461	670.0
1102.734803	667.666687
1103.295088	665.0
1103.855316	668.0
1104.415486	664.666687
1104.975599	670.333313
1105.535655	667.333313
1106.095653	666.666687
1106.655594	668.0
1107.215478	666.666687
1107.775305	666.666687
1108.335074	668.0
1108.894786	664.333313
1109.45444	666.666687
1110.014038	665.0
1110.573578	665.666687
1111.133061	671.666687
1111.692486	668.666687
1112.251854	670.666687
1112.811165	666.333313
1113.370419	668.333313
1113.929616	670.333313
1114.488755	667.666687
1115.047837	665.0
1115.606862	665.666687
1116.16583	671.666687
1116.72474	664.666687
1117.283593	665.333313
1117.842389	665.0
1118.401128	666.333313
1118.959809	667.666687
1119.518433	662.0
1120.077	667.0
1120.63551	667.333313
1121.193963	665.666687
1121.752358	668.0
1122.310697	667.0
1122.868978	665.666687
1123.427202	666.666687
1123.985368	668.333313
1124.543478	669.333313
1125.10153	664.666687
1125.659526	665.666687
1126.217464	664.0
1126.775345	668.333313
1127.333168	665.666687
1127.890935	668.333313
1128.448644	666.333313
1129.006297	662.666687
1129.563892	667.333313
1130.12143	668.333313
1130.678911	666.333313
1131.236335	664.0
1131.793701	665.666687
1132.351011	666.666687
1132.908263	663.666687
1133.465458	665.333313
1134.022597	667.333313
1134.579678	665.333313
1135.136702	668.666687
1135.693669	666.666687
1136.250578	666.0
1136.807431	666.0
1137.364227	666.666687
1137.920965	666.0
1138.477647	664.666687
1139.034271	668.333313
1139.590839	668.666687
1140.147349	815.0
1140.703802	678.0
1141.260198	667.333313
1141.816537	668.0
1142.37282	664.666687
1142.929045	666.0
1143.485213	666.333313
1144.041323	669.0
1144.597377	665.333313
1145.153374	665.0
1145.709314	668.666687
1146.265197	666.333313
1146.821023	667.666687
1147.376792	668.666687
1147.932503	665.333313
1148.488158	664.666687
1149.043756	666.333313
1149.599297	664.333313
1150.154781	666.0
1150.710207	664.666687
1151.265577	666.666687
1151.82089	666.0
1152.376146	665.0
1152.931345	663.666687
1153.486487	663.666687
1154.041572	666.0
1154.5966	662.333313
1155.151571	668.0
1155.706485	668.0
1156.261342	665.0
1156.816142	667.666687
1157.370885	662.666687
1157.925572	669.0
1158.480201	665.666687
1159.034774	666.666687
1159.589289	664.666687
1160.143748	665.666687
1160.698149	666.666687
1161.252494	669.0
1161.806782	665.333313
1162.361013	667.666687
1162.915187	666.666687
1163.469304	665.333313
1164.023364	668.0
1164.577368	668.0
1165.131314	666.0
1165.685204	667.0
1166.239036	667.333313
1166.792812	666.333313
1167.346531	669.666687
1167.900193	666.666687
1168.453798	664.0
1169.007347	667.0
1169.560838	670.666687
1170.114273	667.0
1170.66765	671.666687
1171.220971	669.333313
1171.774235	668.333313
1172.327443	666.333313
1172.880593	666.0
1173.433687	665.666687
1173.986723	665.333313
1174.539703	665.333313
1175.092626	667.0
1175.645493	668.333313
1176.198302	668.333313
1176.751055	667.333313
1177.303751	667.333313
1177.85639	664.666687
1178.408972	665.666687
1178.961498	663.666687
1179.513966	665.666687
1180.066378	667.333313
1180.618733	666.666687
1181.171032	664.333313
1181.723273	665.333313
1182.275458	667.0
1182.827586	666.0
1183.379657	666.333313
1183.931672	668.666687
1184.48363	666.333313
1185.035531	666.0
1185.587375	668.0
1186.139162	666.0
1186.690893	668.333313
1187.242567	664.333313
1187.794184	667.333313
1188.345745	669.0
1188.897249	666.666687
1189.448696	666.333313
1190.000086	668.333313
1190.55142	667.0
1191.102697	668.333313
1191.653918	666.666687
1192.205081	665.0
1192.756188	662.666687
1193.307238	683.0
1193.858232	664.333313
1194.409169	663.0
1194.960049	667.333313
1195.510872	664.666687
1196.061639	666.0
1196.612349	665.666687
1197.163003	664.333313
1197.713599	665.0
1198.264139	666.666687
1198.814623	668.333313
1199.36505	664.666687
1199.91542	667.666687
1200.465734	667.0
1201.01599	664.666687
1201.566191	663.333313
1202.116334	667.333313
1202.666421	665.333313
1203.216452	664.333313
1203.766425	663.666687
1204.316343	664.666687
1204.866203	669.333313
1205.416007	667.666687
1205.965754	665.666687
1206.515445	663.333313
1207.065079	665.0
1207.614657	668.333313
1208.164177	667.333313
1208.713642	666.333313
1209.26305	662.666687
1209.812401	668.333313
1210.361695	667.0
1210.910933	670.0
1211.460115	665.0
1212.00924	668.0
1212.558308	665.666687
1213.10732	666.0
1213.656275	664.666687
1214.205174	666.666687
1214.754016	668.333313
1215.302801	665.333313
1215.85153	668.333313
1216.400203	666.0
1216.948819	666.333313
1217.497378	666.333313
1218.045881	662.0
1218.594327	664.666687
1219.142717	669.666687
1219.691051	667.333313
1220.239327	666.666687
1220.787548	669.0
1221.335712	664.666687
1221.883819	666.666687
1222.43187	668.0
1222.979864	667.333313
1223.527802	666.333313
1224.075683	667.333313
1224.623508	667.666687
1225.171277	668.666687
1225.718989	671.0
1226.266644	667.666687
1226.814243	669.0
1227.361786	668.333313
1227.909272	665.333313
1228.456702	667.333313
1229.004075	669.333313
1229.551392	667.666687
1230.098652	664.666687
1230.645856	670.666687
1231.193003	670.0
1231.740094	669.666687
1232.287129	665.666687
1232.834107	673.666687
1233.381029	667.666687
1233.927894	667.333313
1234.474703	669.333313
1235.021455	666.666687
1235.568151	669.666687
1236.114791	667.666687
1236.661374	667.333313
1237.207901	669.0
1237.754372	667.333313
1238.300786	669.0
1238.847144	672.333313
1239.393445	667.0
1239.93969	665.666687
1240.485879	669.666687
1241.032011	665.333313
1241.578087	666.666687
1242.124106	669.666687
1242.67007	670.0
1243.215976	673.333313
1243.761827	669.333313
1244.307621	667.0
1244.853359	671.0
1245.39904	668.0
1245.944665	667.666687
1246.490234	669.333313
1247.035746	670.333313
1247.581203	669.333313
1248.126602	668.666687
1248.671946	672.333313
1249.217233	670.0
1249.762464	668.333313
1250.307638	667.666687
1250.852757	673.333313
1251.397819	670.666687
1251.942824	667.333313
1252.487774	668.0
1253.032667	669.666687
1253.577503	667.666687
1254.122284	668.333313
1254.667008	671.333313
1255.211676	667.666687
1255.756288	674.333313
1256.300843	671.333313
1256.845342	667.666687
1257.389785	671.333313
1257.934172	667.0
1258.478502	669.333313
1259.022776	671.0
1259.566994	670.0
1260.111156	685.0
1260.655261	670.0
1261.199311	669.333313
1261.743304	670.333313
1262.28724	672.0
1262.831121	676.333313
1263.374945	681.666687
1263.918713	685.333313
1264.462425	702.333313
1265.006081	709.0
1265.54968	706.333313
1266.093223	689.333313
1266.636711	679.666687
1267.180141	678.666687
1267.723516	674.0
1268.266835	673.0
1268.810097	667.333313
1269.353303	671.666687
1269.896453	669.0
1270.439547	671.666687
1270.982584	671.666687
1271.525566	669.666687
1272.068491	673.0
1272.61136	671.0
1273.154173	667.666687
1273.69693	672.666687
1274.239631	675.666687
1274.782275	670.0
1275.324864	671.666687
1275.867396	669.0
1276.409872	670.333313
1276.952292	670.666687
1277.494656	671.333313
1278.036964	672.333313
1278.579215	668.333313
1279.121411	674.333313
1279.66355	675.333313
1280.205634	673.0
1280.747661	671.666687
1281.289632	678.666687
1281.831547	683.0
1282.373406	681.333313
1282.915209	704.666687
1283.456955	732.0
1283.998646	791.0
1284.540281	955.666687
1285.081859	1277.666626
1285.623381	1297.333374
1286.164848	944.0
1286.706258	761.0
1287.247612	710.666687
1287.788911	691.333313
1288.330153	689.666687
1288.871339	676.666687
1289.412469	676.666687
1289.953543	678.666687
1290.494561	674.333313
1291.035523	672.666687
1291.576428	676.333313
1292.117278	675.0
1292.658072	671.333313
1293.19881	671.0
1293.739492	673.333313
1294.280118	673.0
1294.820687	673.0
1295.361201	670.666687
1295.901659	670.666687
1296.442061	669.0
1296.982406	673.333313
1297.522696	669.0
1298.06293	669.333313
1298.603108	671.333313
1299.143229	671.333313
1299.683295	670.0
1300.223305	668.666687
1300.763259	672.333313
1301.303157	668.666687
1301.842999	666.0
1302.382785	666.666687
1302.922515	671.666687
1303.462189	672.0
1304.001807	666.0
1304.541369	667.333313
1305.080875	669.333313
1305.620326	666.333313
1306.15972	668.0
1306.699058	669.333313
1307.238341	668.333313
1307.777567	671.0
1308.316738	669.666687
1308.855853	669.333313
1309.394912	669.666687
1309.933915	668.333313
1310.472862	668.666687
1311.011753	664.333313
1311.550588	669.333313
1312.089367	669.333313
1312.62809	669.0
1313.166758	669.666687
1313.70537	671.333313
1314.243925	666.666687
1314.782425	669.0
1315.320869	665.0
1315.859257	666.0
1316.397589	670.0
1316.935866	669.333313
1317.474086	666.333313
1318.012251	667.0
1318.55036	669.666687
1319.088413	668.0
1319.62641	669.0
1320.164351	668.0
1320.702236	667.0
1321.240066	664.333313
1321.777839	665.333313
1322.315557	670.333313
1322.853219	665.666687
1323.390826	666.333313
1323.928376	672.0
1324.465871	664.666687
1325.003309	665.333313
1325.540692	669.666687
1326.07802	668.333313
1326.615291	667.666687
1327.152506	671.0
1327.689666	667.666687
1328.22677	669.666687
1328.763818	667.333313
1329.300811	666.333313
1329.837747	666.666687
1330.374628	669.666687
1330.911453	670.0
1331.448222	668.333313
1331.984936	668.0
1332.521594	667.333313
1333.058196	669.333313
1333.594742	669.666687
1334.131232	665.0
1334.667667	669.333313
1335.204046	667.0
1335.740369	669.666687
1336.276637	665.0
1336.812848	669.666687
1337.349004	667.0
1337.885105	667.0
1338.421149	665.333313
1338.957138	666.333313
1339.493071	669.333313
1340.028949	665.666687
1340.56477	669.333313
1341.100536	670.666687
1341.636246	666.666687
1342.171901	666.333313
1342.7075	667.666687
1343.243043	670.0
1343.77853	668.666687
1344.313962	667.333313
1344.849338	670.333313
1345.384659	663.333313
1345.919923	670.666687
1346.455133	668.0
1346.990286	666.333313
1347.525384	667.666687
1348.060426	668.666687
1348.595412	669.0
1349.130343	670.333313
1349.665218	670.333313
1350.200037	666.666687
1350.734801	667.666687
1351.269509	664.666687
1351.804162	667.666687
1352.338758	668.0
1352.8733	670.0
1353.407785	671.333313
1353.942215	670.666687
1354.476589	670.0
1355.010908	669.0
1355.545171	664.666687
1356.079379	671.666687
1356.61353	671.0
1357.147627	671.333313
1357.681667	664.666687
1358.215652	668.666687
1358.749582	666.0
1359.283456	670.666687
1359.817274	667.333313
1360.351037	666.0
1360.884744	671.333313
1361.418395	671.666687
1361.951991	670.666687
1362.485531	670.0
1363.019016	670.666687
1363.552445	667.666687
1364.085819	668.0
1364.619137	671.666687
1365.1524	665.0
1365.685607	671.0
1366.218758	673.0
1366.751854	674.666687
1367.284894	673.333313
1367.817879	667.666687
1368.350808	671.666687
1368.883682	669.0
1369.4165	673.333313
1369.949263	673.666687
1370.48197	689.666687
1371.014622	681.666687
1371.547218	676.333313
1372.079758	669.666687
1372.612244	670.0
1373.144673	668.0
1373.677047	669.666687
1374.209366	671.0
1374.741629	671.333313
1375.273836	670.666687
1375.805989	671.0
1376.338085	670.0
1376.870126	673.0
1377.402112	672.0
1377.934042	670.666687
1378.465917	673.333313
1378.997736	672.0
1379.5295	667.333313
1380.061208	674.333313
1380.592861	674.0
1381.124459	670.333313
1381.656	670.0
1382.187487	674.333313
1382.718918	673.333313
1383.250294	673.666687
1383.781614	677.666687
1384.312879	677.0
1384.844088	682.0
1385.375242	688.333313
1385.90634	697.666687
1386.437383	707.0
1386.968371	739.666687
1387.499303	802.333313
1388.03018	1061.0
1388.561001	1748.333374
1389.091767	1822.666626
1389.622478	1074.333374
1390.153133	786.333313
1390.683733	720.666687
1391.214277	699.333313
1391.744766	687.333313
1392.2752	682.333313
1392.805578	678.333313
1393.335901	676.0
1393.866168	680.666687
1394.396381	674.666687
1394.926537	673.0
1395.456639	675.666687
1395.986685	676.333313
1396.516675	671.666687
1397.046611	676.333313
1397.576491	672.333313
1398.106315	673.0
1398.636084	672.666687
1399.165798	674.333313
1399.695457	670.666687
1400.22506	671.333313
1400.754608	672.0
1401.284101	670.0
1401.813538	671.0
1402.34292	671.0
1402.872247	670.0
1403.401518	673.0
1403.930734	674.0
1404.459895	672.0
1404.989	671.666687
1405.51805	670.333313
1406.047045	667.666687
1406.575984	672.0
1407.104869	676.666687
1407.633697	677.666687
1408.162471	680.666687
1408.691189	689.333313
1409.219852	701.0
1409.74846	741.333313
1410.277013	753.333313
1410.80551	725.0
1411.333952	693.333313
1411.862339	681.333313
1412.39067	673.0
1412.918946	672.666687
1413.447167	674.666687
1413.975333	669.0
1414.503444	668.666687
1415.031499	671.333313
1415.559499	675.0
1416.087444	670.333313
1416.615333	668.0
1417.143167	665.666687
1417.670947	667.666687
1418.19867	668.333313
1418.726339	669.666687
1419.253952	667.333313
1419.781511	668.0
1420.309014	669.666687
1420.836461	669.333313
1421.363854	670.333313
1421.891191	668.333313
1422.418474	665.666687
1422.945701	667.0
1423.472872	666.666687
1423.999989	668.0
1424.52705	670.333313
1425.054057	669.666687
1425.581008	667.333313
1426.107904	670.0
1426.634745	667.0
1427.16153	670.0
1427.688261	669.666687
1428.214936	668.666687
1428.741556	668.0
1429.268121	668.333313
1429.794631	666.0
1430.321085	668.0
1430.847485	671.0
1431.373829	668.333313
1431.900118	667.333313
1432.426353	665.0
1432.952532	669.666687
1433.478655	668.333313
1434.004724	667.666687
1434.530738	669.0
1435.056696	667.666687
1435.5826	667.666687
1436.108448	665.666687
1436.634241	664.0
1437.159979	665.666687
1437.685662	667.333313
1438.21129	665.0
1438.736863	668.0
1439.262381	663.333313
1439.787843	664.0
1440.313251	665.0
1440.838603	668.333313
1441.3639	668.0
1441.889143	667.333313
1442.41433	666.0
1442.939462	667.0
1443.464539	666.666687
1443.989561	665.0
1444.514528	664.333313
1445.03944	668.666687
1445.564297	669.333313
1446.089099	668.333313
1446.613846	666.333313
1447.138537	667.0
1447.663174	666.0
1448.187756	671.0
1448.712282	665.0
1449.236754	666.666687
1449.761171	665.333313
1450.285532	665.666687
1450.809839	667.0
1451.33409	665.666687
1451.858287	662.0
1452.382428	666.333313
1452.906515	662.666687
1453.430546	663.333313
1453.954523	665.0
1454.478444	666.0
1455.002311	666.333313
1455.526123	665.333313
1456.049879	663.666687
1456.573581	667.0
1457.097227	671.666687
1457.620819	668.666687
1458.144356	665.333313
1458.667837	667.0
1459.191264	666.0
1459.714636	664.0
1460.237952	666.0
1460.761214	669.333313
1461.284421	668.666687
1461.807573	666.333313
1462.33067	668.666687
1463.899632	681.333313
1464.422509	668.0
1464.945331	665.333313
1465.468099	663.333313
1465.990811	663.333313
1466.513469	666.0
1467.036071	665.333313
1467.558619	664.0
1468.081112	666.0
1468.60355	669.333313
1469.125933	667.666687
1469.648261	661.666687
1470.170534	666.0
1470.692752	666.666687
1471.214916	666.0
1471.737024	665.666687
1472.259078	668.666687
1472.781077	665.333313
1473.303021	664.666687
1473.82491	664.666687
1474.346744	665.333313
1474.868523	667.333313
1475.390248	665.0
1475.911917	663.333313
1476.433532	664.0
1476.955092	665.333313
1477.476597	665.666687
1477.998047	667.666687
1478.519442	665.333313
1479.040783	666.0
1479.562068	668.0
1480.083299	664.0
1480.604475	666.0
1481.125596	666.0
1481.646663	664.0
1482.167674	664.0
1482.688631	667.666687
1483.209533	665.666687
1483.73038	665.666687
1484.251172	666.666687
1484.771909	664.0
1485.292592	667.333313
1485.81322	664.0
1486.333793	665.0
1486.854311	667.0
1487.374775	665.333313
1487.895183	668.333313
1488.415537	663.333313
1488.935836	665.0
1489.456081	664.333313
1489.97627	663.666687
1490.496405	661.333313
1491.016485	666.333313
1491.536511	662.333313
1492.056481	662.0
1492.576397	665.666687
1493.096258	664.333313
1493.616064	662.0
1494.135816	664.666687
1494.655513	662.666687
1495.175155	662.333313
1495.694742	664.333313
1496.214274	665.666687
1496.733752	664.666687
1497.253175	665.0
1497.772544	663.0
1498.291858	664.333313
1498.811116	661.666687
1499.330321	661.333313
1499.84947	668.333313
1500.368565	663.333313
1500.887605	662.666687
1501.406591	663.666687
1501.925521	665.666687
1502.444397	666.0
1502.963219	662.0
1503.481985	663.666687
1504.000697	664.333313
1504.519355	661.666687
1505.037957	666.333313
1505.556505	665.666687
1506.074999	662.0
1506.593437	662.333313
1507.111821	663.333313
1507.63015	660.666687
1508.148425	662.333313
1508.666645	664.0
1509.18481	664.0
1509.702921	663.333313
1510.220977	666.333313
1510.738979	668.333313
1511.256925	664.666687
1511.774817	662.666687
1512.292655	662.666687
1512.810438	661.666687
1513.328166	663.666687
1513.84584	666.333313
1514.363459	665.0
1514.881023	664.333313
1515.398533	665.0
1515.915988	663.666687
1516.433389	663.666687
1516.950734	665.666687
1517.468026	664.333313
1517.985263	664.666687
1518.502445	661.666687
1519.019572	665.0
1519.536645	667.0
1520.053664	665.666687
1520.570628	666.666687
1521.087537	666.666687
1521.604392	665.666687
1522.121192	663.666687
1522.637937	664.666687
1523.154628	667.333313
1523.671265	667.0
1524.187847	665.0
1524.704374	666.666687
1525.220847	665.0
1525.737265	681.666687
1526.769938	688.0
1527.286192	671.333313
1527.802392	662.333313
1528.318538	666.0
1528.834629	666.333313
1529.350666	662.0
1529.866648	660.333313
1530.382575	664.666687
1530.898448	666.333313
1531.414266	663.333313
1531.93003	665.333313
1532.44574	666.333313
1532.961395	663.666687
1533.476995	665.666687
1533.992541	662.0
1534.508033	665.333313
1535.02347	665.333313
1535.538852	663.333313
1536.05418	663.0
1536.569454	662.666687
1537.084673	665.0
1537.599837	666.333313
1538.114947	666.666687
1538.630003	664.666687
1539.145004	665.666687
1539.659951	664.0
1540.174843	665.666687
1540.689681	667.0
1541.204465	657.333313
1541.719194	663.0
1542.233868	662.666687
1542.748488	662.666687
1543.263054	665.0
1543.777565	665.666687
1544.292022	667.666687
1544.806424	664.666687
1545.320772	663.0
1545.835066	669.333313
1546.349305	667.333313
1546.863489	663.666687
1547.37762	669.0
1547.891696	666.0
1548.405717	666.666687
1548.919684	663.666687
1549.433597	665.666687
1549.947455	664.666687
1550.461259	666.333313
1550.975009	664.666687
1551.488704	669.0
1552.002345	667.333313
1552.515931	668.333313
1553.029463	666.333313
1553.542941	669.0
1554.056364	666.0
1554.569733	668.0
1555.083048	668.0
1555.596308	668.0
1556.109514	666.333313
1556.622665	666.666687
1557.135762	665.333313
1557.648805	669.666687
1558.161794	664.666687
1558.674728	665.0
1559.187608	672.0
1559.700433	670.333313
1560.213205	669.333313
1560.725921	663.333313
1561.238584	666.666687
1561.751192	669.666687
1562.263746	664.666687
1562.776246	668.333313
1563.288691	667.666687
1563.801082	671.0
1564.313419	670.0
1564.825701	671.0
1565.337929	673.333313
1565.850103	671.333313
1566.362223	672.333313
1566.874288	678.0
1567.386299	672.333313
1567.898256	674.333313
1568.410158	675.0
1568.922007	669.333313
1569.4338	670.0
1569.94554	670.0
1570.457226	667.666687
1570.968857	665.333313
1571.480434	668.333313
1571.991956	666.666687
1572.503425	666.0
1573.014839	665.666687
1573.526199	663.333313
1574.037505	665.666687
1574.548756	665.0
1575.059953	666.666687
1575.571096	662.333313
1576.082185	662.0
1576.59322	667.666687
1577.1042	666.333313
1577.615126	667.333313
1578.125998	662.666687
1578.636816	661.333313
1579.14758	666.666687
1579.658289	665.666687
1580.168944	665.666687
1580.679545	668.666687
1581.190092	664.666687
1581.700585	663.333313
1582.211023	665.333313
1582.721407	670.0
1583.231737	665.333313
1583.742013	666.0
1584.252235	663.333313
1584.762403	661.333313
1585.272516	664.333313
1585.782575	663.333313
1586.292581	663.666687
1586.802532	667.333313
1587.312428	665.333313
1587.822271	666.0
1588.33206	666.0
1588.841794	665.666687
1589.351474	665.333313
1589.8611	664.333313
1590.370672	666.333313
1590.88019	663.333313
1591.389654	667.333313
1591.899064	667.333313
1592.408419	663.0
