1042.452273	680.7999878
1043.018714	680.0
1043.585098	682.5999756
1044.151424	682.5999756
1044.717692	677.2000122
1045.283903	679.5999756
1045.850056	680.4000244
1046.416151	677.2000122
1046.982188	679.7999878
1047.548167	676.5999756
1048.114089	675.4000244
1048.679953	675.4000244
1049.24576	673.4000244
1049.811509	677.0
1050.3772	673.5999756
1050.942833	674.4000244
1051.508408	672.2000122
1052.073926	671.5999756
1052.639387	674.0
1053.204789	675.0
1053.770134	672.2000122
1054.335421	675.0
1054.900651	672.4000244
1055.465823	672.5999756
1056.030937	676.2000122
1056.595993	670.4000244
1057.160992	672.5999756
1057.725934	674.0
1058.290817	673.7999878
1058.855643	670.7999878
1059.420411	670.7999878
1059.985122	671.0
1060.549775	670.0
1061.114371	673.4000244
1061.678908	668.5999756
1062.243389	672.7999878
1062.807811	669.4000244
1063.372176	669.7999878
1063.936483	672.0
1064.500733	671.2000122
1065.064925	670.5999756
1065.62906	668.5999756
1066.193137	673.0
1066.757156	669.4000244
1067.321118	671.7999878
1067.885022	668.4000244
1068.448869	670.7999878
1069.012658	671.7999878
1069.57639	670.4000244
1070.140063	678.2000122
1070.70368	672.4000244
1071.267239	670.4000244
1071.83074	666.7999878
1072.394184	672.0
1072.95757	668.2000122
1073.520899	672.5999756
1074.08417	670.7999878
1074.647383	673.5999756
1075.21054	669.4000244
1075.773638	668.2000122
1076.336679	670.0
1076.899663	673.0
1077.462589	665.4000244
1078.025457	671.0
1078.588268	670.4000244
1079.151022	672.4000244
1079.713718	667.2000122
1080.276356	667.5999756
1080.838937	670.5999756
1081.401461	667.7999878
1081.963927	672.2000122
1082.526336	670.2000122
1083.088687	670.2000122
1083.650981	671.0
1084.213217	669.5999756
1084.775396	670.2000122
1085.337517	668.4000244
1085.899581	673.0
1086.461587	672.0
1087.023536	670.2000122
1087.585428	670.7999878
1088.147262	672.2000122
1088.709039	669.7999878
1089.270758	673.0
1089.83242	672.7999878
1090.394024	672.2000122
1090.955571	672.2000122
1091.517061	673.0
1092.078493	670.4000244
1092.639868	672.0
1093.201185	673.2000122
1093.762445	673.0
1094.323648	670.0
1094.884793	671.0
1095.445881	674.7999878
1096.006911	671.7999878
1096.567884	671.2000122
1097.1288	679.7999878
1097.689659	671.0
1098.25046	672.4000244
1098.811203	668.2000122
1099.37189	672.2000122
1099.932518	672.2000122
1100.49309	671.5999756
1101.053604	672.4000244
1101.614061	666.7999878
1102.174461	672.0
1102.734803	671.2000122
1103.295088	671.7999878
1103.855316	667.4000244
1104.415486	670.0
1104.975599	667.5999756
1105.535655	671.2000122
1106.095653	671.5999756
1106.655594	670.4000244
1107.215478	668.7999878
1107.775305	668.5999756
1108.335074	671.2000122
1108.894786	670.5999756
1109.45444	674.2000122
1110.014038	671.4000244
1110.573578	669.7999878
1111.133061	669.2000122
1111.692486	671.0
1112.251854	671.5999756
1112.811165	674.4000244
1113.370419	672.2000122
1113.929616	670.7999878
1114.488755	669.2000122
1115.047837	670.5999756
1115.606862	673.4000244
1116.16583	669.4000244
1116.72474	672.2000122
1117.283593	671.4000244
1117.842389	667.4000244
1118.401128	671.2000122
1118.959809	670.2000122
1119.518433	670.7999878
1120.077	668.2000122
1120.63551	669.2000122
1121.193963	671.0
1121.752358	670.5999756
1122.310697	670.0
1122.868978	668.2000122
1123.427202	669.2000122
1123.985368	668.4000244
1124.543478	665.7999878
1125.10153	669.2000122
1125.659526	668.7999878
1126.217464	669.4000244
1126.775345	665.7999878
1127.333168	668.0
1127.890935	668.7999878
1128.448644	670.7999878
1129.006297	669.2000122
1129.563892	669.0
1130.12143	670.0
1130.678911	669.7999878
1131.236335	669.2000122
1131.793701	668.7999878
1132.351011	669.5999756
1132.908263	669.5999756
1133.465458	668.2000122
1134.022597	667.4000244
1134.579678	668.0
1135.136702	670.4000244
1135.693669	669.4000244
1136.250578	670.7999878
1136.807431	668.5999756
1137.364227	668.0
1137.920965	668.7999878
1138.477647	669.0
1139.034271	670.2000122
1139.590839	668.5999756
1140.147349	669.7999878
1140.703802	671.4000244
1141.260198	669.0
1141.816537	667.2000122
1142.37282	669.4000244
1142.929045	669.2000122
1143.485213	669.5999756
1144.041323	664.7999878
1144.597377	670.2000122
1145.153374	669.0
1145.709314	671.7999878
1146.265197	668.7999878
1146.821023	667.7999878
1147.376792	670.2000122
1147.932503	669.2000122
1148.488158	669.0
1149.043756	669.4000244
1149.599297	668.2000122
1150.154781	669.0
1150.710207	667.5999756
1151.265577	666.7999878
1151.82089	670.5999756
1152.376146	668.2000122
1152.931345	671.4000244
1153.486487	669.2000122
1154.041572	668.7999878
1154.5966	667.5999756
1155.151571	669.7999878
1155.706485	670.4000244
1156.261342	671.7999878
1156.816142	668.2000122
1157.370885	668.7999878
1157.925572	670.5999756
1158.480201	670.4000244
1159.034774	669.4000244
1159.589289	667.4000244
1160.143748	669.4000244
1160.698149	669.0
1161.252494	670.4000244
1161.806782	668.2000122
1162.361013	670.7999878
1162.915187	667.4000244
1163.469304	671.4000244
1164.023364	667.2000122
1164.577368	669.0
1165.131314	671.2000122
1165.685204	668.2000122
1166.239036	670.7999878
1166.792812	669.4000244
1167.346531	671.5999756
1167.900193	669.7999878
1168.453798	669.4000244
1169.007347	767.2000122
1169.560838	755.5999756
1170.114273	668.4000244
1170.66765	669.5999756
1171.220971	669.4000244
1171.774235	668.0
1172.327443	668.4000244
1172.880593	668.5999756
1173.433687	671.2000122
1173.986723	668.7999878
1174.539703	664.0
1175.092626	667.5999756
1175.645493	667.4000244
1176.198302	672.7999878
1176.751055	669.0
1177.303751	667.0
1177.85639	667.0
1178.408972	671.4000244
1178.961498	668.4000244
1179.513966	669.7999878
1180.066378	669.5999756
1180.618733	666.0
1181.171032	669.0
1181.723273	669.2000122
1182.275458	668.7999878
1182.827586	670.0
1183.379657	668.2000122
1183.931672	667.0
1184.48363	669.2000122
1185.035531	669.5999756
1185.587375	670.7999878
1186.139162	672.7999878
1186.690893	667.4000244
1187.242567	668.5999756
1187.794184	668.7999878
1188.345745	670.0
1188.897249	671.5999756
1189.448696	669.7999878
1190.000086	669.4000244
1190.55142	668.2000122
1191.102697	671.0
1191.653918	668.7999878
1192.205081	669.2000122
1192.756188	667.5999756
1193.307238	687.4000244
1193.858232	671.0
1194.409169	671.0
1194.960049	670.4000244
1195.510872	668.4000244
1196.061639	669.7999878
1196.612349	667.4000244
1197.163003	668.0
1197.713599	665.7999878
1198.264139	668.5999756
1198.814623	667.4000244
1199.36505	669.2000122
1199.91542	667.2000122
1200.465734	668.7999878
1201.01599	670.5999756
1201.566191	668.7999878
1202.116334	670.7999878
1202.666421	669.0
1203.216452	668.5999756
1203.766425	668.7999878
1204.316343	667.2000122
1204.866203	670.2000122
1205.416007	667.7999878
1205.965754	669.5999756
1206.515445	669.7999878
1207.065079	670.2000122
1207.614657	670.0
1208.164177	671.2000122
1208.713642	668.2000122
1209.26305	666.5999756
1209.812401	669.4000244
1210.361695	670.5999756
1210.910933	668.7999878
1211.460115	669.0
1212.00924	669.4000244
1212.558308	668.7999878
1213.10732	671.4000244
1213.656275	673.2000122
1214.205174	671.4000244
1214.754016	668.4000244
1215.302801	670.2000122
1215.85153	669.5999756
1216.400203	672.7999878
1216.948819	670.2000122
1217.497378	667.5999756
1218.045881	666.7999878
1218.594327	669.5999756
1219.142717	668.7999878
1219.691051	671.2000122
1220.239327	669.5999756
1220.787548	670.5999756
1221.335712	672.4000244
1221.883819	668.7999878
1222.43187	673.2000122
1222.979864	671.7999878
1223.527802	669.2000122
1224.075683	670.7999878
1224.623508	670.4000244
1225.171277	667.2000122
1225.718989	669.2000122
1226.266644	672.0
1226.814243	672.0
1227.361786	671.7999878
1227.909272	672.4000244
1228.456702	672.2000122
1229.004075	668.7999878
1229.551392	671.4000244
1230.098652	673.0
1230.645856	670.7999878
1231.193003	673.7999878
1231.740094	674.2000122
1232.287129	668.7999878
1232.834107	672.4000244
1233.381029	670.5999756
1233.927894	671.2000122
1234.474703	671.2000122
1235.021455	673.7999878
1235.568151	669.7999878
1236.114791	673.7999878
1236.661374	671.2000122
1237.207901	669.5999756
1237.754372	671.5999756
1238.300786	675.2000122
1238.847144	672.7999878
1239.393445	671.5999756
1239.93969	671.7999878
1240.485879	673.2000122
1241.032011	671.7999878
1241.578087	671.0
1242.124106	671.4000244
1242.67007	673.7999878
1243.215976	675.4000244
1243.761827	672.5999756
1244.307621	673.4000244
1244.853359	673.0
1245.39904	671.4000244
1245.944665	669.0
1246.490234	672.2000122
1247.035746	675.0
1247.581203	671.5999756
1248.126602	671.7999878
1248.671946	675.0
1249.217233	673.2000122
1249.762464	674.5999756
1250.307638	678.2000122
1250.852757	673.2000122
1251.397819	674.7999878
1251.942824	673.4000244
1252.487774	674.2000122
1253.032667	674.4000244
1253.577503	671.7999878
1254.122284	676.4000244
1254.667008	674.0
1255.211676	672.5999756
1255.756288	677.2000122
1256.300843	675.4000244
1256.845342	674.7999878
1257.389785	677.2000122
1257.934172	673.5999756
1258.478502	675.2000122
1259.022776	679.5999756
1259.566994	683.0
1260.111156	696.4000244
1260.655261	677.7999878
1261.199311	678.7999878
1261.743304	676.5999756
1262.28724	681.4000244
1262.831121	682.7999878
1263.374945	685.7999878
1263.918713	694.5999756
1264.462425	712.4000244
1265.006081	731.0
1265.54968	723.0
1266.093223	702.4000244
1266.636711	689.0
1267.180141	677.5999756
1267.723516	678.7999878
1268.266835	677.4000244
1268.810097	677.0
1269.353303	678.2000122
1269.896453	673.0
1270.439547	676.0
1270.982584	674.7999878
1271.525566	675.7999878
1272.068491	676.0
1272.61136	677.5999756
1273.154173	674.4000244
1273.69693	676.2000122
1274.239631	673.5999756
1274.782275	676.4000244
1275.324864	675.0
1275.867396	677.0
1276.409872	675.7999878
1276.952292	677.4000244
1277.494656	680.4000244
1278.036964	679.2000122
1278.579215	677.5999756
1279.121411	679.5999756
1279.66355	678.7999878
1280.205634	679.0
1280.747661	683.0
1281.289632	685.5999756
1281.831547	688.7999878
1282.373406	702.5999756
1282.915209	717.0
1283.456955	755.2000122
1283.998646	851.7999878
1284.540281	1074.400024
1285.081859	1511.400024
1285.623381	1551.599976
1286.164848	1058.0
1286.706258	812.5999756
1287.247612	738.5999756
1287.788911	705.0
1288.330153	697.7999878
1288.871339	688.0
1289.412469	684.4000244
1289.953543	682.0
1290.494561	680.5999756
1291.035523	682.2000122
1291.576428	679.4000244
1292.117278	679.2000122
1292.658072	674.5999756
1293.19881	679.2000122
1293.739492	678.0
1294.280118	676.4000244
1294.820687	675.7999878
1295.361201	674.2000122
1295.901659	674.2000122
1296.442061	676.0
1296.982406	675.7999878
1297.522696	673.7999878
1298.06293	675.2000122
1298.603108	675.2000122
1299.143229	673.5999756
1299.683295	675.5999756
1300.223305	674.5999756
1300.763259	673.4000244
1301.303157	671.7999878
1301.842999	674.0
1302.382785	676.0
1302.922515	674.0
1303.462189	673.4000244
1304.001807	675.0
1304.541369	676.4000244
1305.080875	673.4000244
1305.620326	672.5999756
1306.15972	670.4000244
1306.699058	673.0
1307.238341	671.7999878
1307.777567	676.5999756
1308.316738	674.4000244
1308.855853	672.2000122
1309.394912	673.7999878
1309.933915	669.7999878
1310.472862	673.2000122
1311.011753	674.7999878
1311.550588	674.4000244
1312.089367	674.7999878
1312.62809	670.7999878
1313.166758	672.0
1313.70537	672.4000244
1314.243925	673.5999756
1314.782425	670.0
1315.320869	670.7999878
1315.859257	673.5999756
1316.397589	672.2000122
1316.935866	674.0
1317.474086	672.7999878
1318.012251	671.5999756
1318.55036	671.0
1319.088413	670.7999878
1319.62641	673.4000244
1320.164351	673.7999878
1320.702236	670.7999878
1321.240066	671.4000244
1321.777839	672.5999756
1322.315557	672.2000122
1322.853219	674.2000122
1323.390826	671.4000244
1323.928376	675.2000122
1324.465871	670.7999878
1325.003309	672.4000244
1325.540692	675.5999756
1326.07802	672.7999878
1326.615291	670.4000244
1327.152506	670.2000122
1327.689666	670.4000244
1328.22677	673.7999878
1328.763818	670.2000122
1329.300811	673.4000244
1329.837747	670.7999878
1330.374628	672.0
1330.911453	671.2000122
1331.448222	672.4000244
1331.984936	671.4000244
1332.521594	670.7999878
1333.058196	669.7999878
1333.594742	672.2000122
1334.131232	672.2000122
1334.667667	672.5999756
1335.204046	669.5999756
1335.740369	671.4000244
1336.276637	667.4000244
1336.812848	672.4000244
1337.349004	675.5999756
1337.885105	672.4000244
1338.421149	670.7999878
1338.957138	669.4000244
1339.493071	671.4000244
1340.028949	673.2000122
1340.56477	672.2000122
1341.100536	674.2000122
1341.636246	673.7999878
1342.171901	670.5999756
1342.7075	669.4000244
1343.243043	670.7999878
1343.77853	673.0
1344.313962	670.0
1344.849338	673.5999756
1345.384659	671.0
1345.919923	671.5999756
1346.455133	672.0
1346.990286	672.5999756
1347.525384	671.2000122
1348.060426	670.2000122
1348.595412	671.4000244
1349.130343	669.7999878
1349.665218	674.2000122
1350.200037	675.2000122
1350.734801	671.5999756
1351.269509	672.7999878
1351.804162	671.7999878
1352.338758	673.2000122
1352.8733	673.2000122
1353.407785	672.0
1353.942215	674.5999756
1354.476589	673.0
1355.010908	674.5999756
1355.545171	671.4000244
1356.079379	672.7999878
1356.61353	669.7999878
1357.147627	672.5999756
1357.681667	673.5999756
1358.215652	673.2000122
1358.749582	672.5999756
1359.283456	672.4000244
1359.817274	671.4000244
1360.351037	670.5999756
1360.884744	674.4000244
1361.418395	673.2000122
1361.951991	672.7999878
1362.485531	673.2000122
1363.019016	670.5999756
1363.552445	672.7999878
1364.085819	673.2000122
1364.619137	670.7999878
1365.1524	672.7999878
1365.685607	675.7999878
1366.218758	675.0
1366.751854	675.2000122
1367.284894	674.0
1367.817879	675.4000244
1368.350808	674.5999756
1368.883682	673.5999756
1369.4165	676.5999756
1369.949263	686.4000244
1370.48197	702.2000122
1371.014622	693.7999878
1371.547218	676.4000244
1372.079758	676.7999878
1372.612244	676.7999878
1373.144673	673.0
1373.677047	673.5999756
1374.209366	676.4000244
1374.741629	671.7999878
1375.273836	675.4000244
1375.805989	675.2000122
1376.338085	675.7999878
1376.870126	679.5999756
1377.402112	675.5999756
1377.934042	679.4000244
1378.465917	675.5999756
1378.997736	676.2000122
1379.5295	680.7999878
1380.061208	675.0
1380.592861	678.7999878
1381.124459	677.2000122
1381.656	681.0
1382.187487	681.5999756
1382.718918	682.4000244
1383.250294	684.7999878
1383.781614	686.5999756
1384.312879	688.0
1384.844088	696.2000122
1385.375242	697.7999878
1385.90634	707.0
1386.437383	732.7999878
1386.968371	763.7999878
1387.499303	863.0
1388.03018	1213.800049
1388.561001	2190.600098
1389.091767	2261.600098
1389.622478	1233.199951
1390.153133	839.2000122
1390.683733	745.2000122
1391.214277	711.5999756
1391.744766	698.0
1392.2752	697.5999756
1392.805578	687.4000244
1393.335901	682.4000244
1393.866168	685.2000122
1394.396381	680.5999756
1394.926537	680.7999878
1395.456639	676.7999878
1395.986685	678.7999878
1396.516675	678.5999756
1397.046611	677.2000122
1397.576491	674.5999756
1398.106315	677.5999756
1398.636084	677.5999756
1399.165798	677.4000244
1399.695457	678.5999756
1400.22506	674.7999878
1400.754608	675.2000122
1401.284101	676.2000122
1401.813538	675.4000244
1402.34292	673.5999756
1402.872247	675.4000244
1403.401518	674.5999756
1403.930734	675.7999878
1404.459895	676.0
1404.989	674.5999756
1405.51805	679.0
1406.047045	673.5999756
1406.575984	679.0
1407.104869	680.2000122
1407.633697	683.5999756
1408.162471	690.5999756
1408.691189	700.5999756
1409.219852	719.5999756
1409.74846	755.2000122
1410.277013	782.7999878
1410.80551	755.0
1411.333952	712.2000122
1411.862339	691.0
1412.39067	685.7999878
1412.918946	679.5999756
1413.447167	675.2000122
1413.975333	678.0
1414.503444	674.7999878
1415.031499	676.0
1415.559499	685.4000244
1416.087444	673.0
1416.615333	673.5999756
1417.143167	670.5999756
1417.670947	676.4000244
1418.19867	671.7999878
1418.726339	672.7999878
1419.253952	674.4000244
1419.781511	671.0
1420.309014	670.4000244
1420.836461	675.0
1421.363854	674.7999878
1421.891191	668.2000122
1422.418474	671.2000122
1422.945701	670.7999878
1423.472872	670.0
1423.999989	673.4000244
1424.52705	674.2000122
1425.054057	670.7999878
1425.581008	672.4000244
1426.107904	673.0
1426.634745	674.2000122
1427.16153	671.4000244
1427.688261	671.5999756
1428.214936	673.5999756
1428.741556	671.7999878
1429.268121	675.5999756
1429.794631	669.0
1430.321085	669.0
1430.847485	671.7999878
1431.373829	674.2000122
1431.900118	671.0
1432.426353	670.0
1432.952532	669.2000122
1433.478655	669.2000122
1434.004724	669.4000244
1434.530738	669.5999756
1435.056696	667.4000244
1435.5826	668.5999756
1436.108448	670.2000122
1436.634241	669.5999756
1437.159979	669.7999878
1437.685662	670.5999756
1438.21129	670.5999756
1438.736863	671.2000122
1439.262381	669.0
1439.787843	669.4000244
1440.313251	670.2000122
1440.838603	669.0
1441.3639	667.7999878
1441.889143	671.7999878
1442.41433	666.4000244
1442.939462	669.7999878
1443.464539	667.5999756
1443.989561	667.2000122
1444.514528	668.7999878
1445.03944	672.5999756
1445.564297	670.2000122
1446.089099	665.7999878
1446.613846	669.4000244
1447.138537	671.2000122
1447.663174	668.4000244
1448.187756	667.5999756
1448.712282	670.0
1449.236754	670.4000244
1449.761171	666.0
1450.285532	667.7999878
1450.809839	668.2000122
1451.33409	668.0
1451.858287	667.7999878
1452.382428	670.4000244
1452.906515	668.4000244
1453.430546	667.5999756
1453.954523	668.5999756
1454.478444	666.7999878
1455.002311	664.7999878
1455.526123	668.4000244
1456.049879	667.4000244
1456.573581	667.4000244
1457.097227	667.0
1457.620819	668.2000122
1458.144356	668.2000122
1458.667837	668.0
1459.191264	666.4000244
1459.714636	667.0
1460.237952	668.4000244
1460.761214	668.5999756
1461.284421	667.2000122
1461.807573	671.5999756
1462.33067	671.0
1462.853712	682.5999756
1463.899632	676.7999878
1464.422509	670.2000122
1464.945331	665.0
1465.468099	666.7999878
1465.990811	668.2000122
1466.513469	670.2000122
1467.036071	668.5999756
1467.558619	666.5999756
1468.081112	666.0
1468.60355	666.5999756
1469.125933	669.2000122
1469.648261	666.4000244
1470.170534	665.7999878
1470.692752	667.4000244
1471.214916	666.7999878
1471.737024	666.5999756
1472.259078	667.2000122
1472.781077	663.4000244
1473.303021	666.5999756
1473.82491	667.5999756
1474.346744	667.7999878
1474.868523	664.0
1475.390248	669.4000244
1475.911917	668.0
1476.433532	665.2000122
1476.955092	668.0
1477.476597	666.2000122
1477.998047	665.0
1478.519442	668.2000122
1479.040783	666.7999878
1479.562068	666.2000122
1480.083299	667.4000244
1480.604475	666.2000122
1481.125596	664.7999878
1481.646663	668.0
1482.167674	665.2000122
1482.688631	667.7999878
1483.209533	665.4000244
1483.73038	666.7999878
1484.251172	665.5999756
1484.771909	666.7999878
1485.292592	664.5999756
1485.81322	667.2000122
1486.333793	666.4000244
1486.854311	666.5999756
1487.374775	667.2000122
1487.895183	666.0
1488.415537	664.7999878
1488.935836	666.0
1489.456081	667.4000244
1489.97627	667.0
1490.496405	666.4000244
1491.016485	667.7999878
1491.536511	664.7999878
1492.056481	668.7999878
1492.576397	666.0
1493.096258	668.0
1493.616064	666.4000244
1494.135816	667.4000244
1494.655513	665.7999878
1495.175155	665.2000122
1495.694742	666.5999756
1496.214274	665.7999878
1496.733752	668.2000122
1497.253175	665.4000244
1497.772544	662.7999878
1498.291858	666.7999878
1498.811116	670.0
1499.330321	667.7999878
1499.84947	672.2000122
1500.368565	666.0
1500.887605	665.2000122
1501.406591	664.5999756
1501.925521	665.5999756
1502.444397	663.7999878
1502.963219	666.2000122
1503.481985	665.2000122
1504.000697	664.5999756
1504.519355	666.5999756
1505.037957	665.5999756
1505.556505	664.5999756
1506.074999	666.4000244
1506.593437	664.2000122
1507.111821	664.0
1507.63015	665.4000244
1508.148425	665.7999878
1508.666645	665.0
1509.18481	665.0
1509.702921	664.4000244
1510.220977	666.4000244
1510.738979	672.7999878
1511.256925	666.5999756
1511.774817	665.5999756
1512.292655	665.7999878
1512.810438	665.0
1513.328166	666.0
1513.84584	665.2000122
1514.363459	665.7999878
1514.881023	665.2000122
1515.398533	664.4000244
1515.915988	666.0
1516.433389	664.0
1516.950734	664.4000244
1517.468026	664.2000122
1517.985263	668.7999878
1518.502445	667.7999878
1519.019572	666.4000244
1519.536645	667.5999756
1520.053664	665.7999878
1520.570628	669.0
1521.087537	666.7999878
1521.604392	666.2000122
1522.121192	668.0
1522.637937	665.0
1523.154628	665.2000122
1523.671265	666.2000122
1524.187847	667.0
1524.704374	664.4000244
1525.220847	666.5999756
1525.737265	673.4000244
1526.253629	689.0
1526.769938	678.4000244
1527.286192	669.2000122
1527.802392	664.7999878
1528.318538	667.5999756
1528.834629	665.2000122
1529.350666	664.5999756
1529.866648	664.5999756
1530.382575	667.2000122
1530.898448	664.0
1531.414266	664.7999878
1531.93003	664.2000122
1532.44574	668.5999756
1532.961395	663.0
1533.476995	665.0
1533.992541	665.7999878
1534.508033	664.5999756
1535.02347	666.0
1535.538852	669.0
1536.05418	665.4000244
1536.569454	665.0
1537.084673	666.0
1537.599837	667.7999878
1538.114947	666.7999878
1538.630003	665.2000122
1539.145004	665.5999756
1539.659951	663.2000122
1540.174843	666.4000244
1540.689681	667.4000244
1541.204465	665.0
1541.719194	664.4000244
1542.233868	664.4000244
1542.748488	666.0
1543.263054	666.4000244
1543.777565	667.0
1544.292022	663.4000244
1544.806424	665.2000122
1545.320772	666.5999756
1545.835066	669.0
1546.349305	665.4000244
1546.863489	664.5999756
1547.37762	666.7999878
1547.891696	665.5999756
1548.405717	665.4000244
1548.919684	666.5999756
1549.433597	666.4000244
1549.947455	666.2000122
1550.461259	665.7999878
1550.975009	668.4000244
1551.488704	668.4000244
1552.002345	667.2000122
1552.515931	667.5999756
1553.029463	666.0
1553.542941	666.0
1554.056364	668.4000244
1554.569733	668.5999756
1555.083048	665.4000244
1555.596308	665.4000244
1556.109514	664.7999878
1556.622665	665.4000244
1557.135762	662.2000122
1557.648805	668.2000122
1558.161794	665.2000122
1558.674728	666.7999878
1559.187608	667.0
1559.700433	666.2000122
1560.213205	667.4000244
1560.725921	665.2000122
1561.238584	667.7999878
1561.751192	665.4000244
1562.263746	670.2000122
1562.776246	668.7999878
1563.288691	666.0
1563.801082	665.7999878
1564.313419	667.4000244
1564.825701	667.7999878
1565.337929	667.4000244
1565.850103	671.2000122
1566.362223	668.7999878
1566.874288	671.5999756
1567.386299	670.4000244
1567.898256	670.2000122
1568.410158	671.7999878
1568.922007	667.4000244
1569.4338	664.7999878
1569.94554	667.0
1570.457226	671.7999878
1570.968857	662.7999878
1571.480434	666.2000122
1571.991956	668.7999878
1572.503425	664.5999756
1573.014839	665.4000244
1573.526199	664.0
1574.037505	665.7999878
1574.548756	666.5999756
1575.059953	667.2000122
1575.571096	662.7999878
1576.082185	665.7999878
1576.59322	669.4000244
1577.1042	667.2000122
1577.615126	668.5999756
1578.125998	663.2000122
1578.636816	668.5999756
1579.14758	667.4000244
1579.658289	667.4000244
1580.168944	664.7999878
1580.679545	664.4000244
1581.190092	667.4000244
1581.700585	664.2000122
1582.211023	666.5999756
1582.721407	667.7999878
1583.231737	664.7999878
1583.742013	665.7999878
1584.252235	664.2000122
1584.762403	666.4000244
1585.272516	663.2000122
1585.782575	667.4000244
1586.292581	667.7999878
1586.802532	666.5999756
1587.312428	663.0
1587.822271	664.5999756
1588.33206	667.2000122
1588.841794	663.7999878
1589.351474	666.7999878
1589.8611	664.0
1590.370672	665.2000122
1590.88019	664.5999756
1591.389654	665.2000122
1591.899064	663.7999878
1592.408419	662.2000122
