1042.452273	685.2000122
1043.018714	683.7999878
1043.585098	681.4000244
1044.151424	682.7999878
1044.717692	684.5999756
1045.283903	679.0
1045.850056	678.7999878
1046.416151	675.5999756
1046.982188	678.4000244
1047.548167	675.4000244
1048.114089	674.7999878
1048.679953	676.2000122
1049.24576	674.2000122
1049.811509	677.2000122
1050.3772	676.4000244
1050.942833	672.2000122
1051.508408	674.7999878
1052.073926	672.2000122
1052.639387	674.2000122
1053.204789	675.2000122
1053.770134	671.4000244
1054.335421	670.2000122
1054.900651	669.5999756
1055.465823	669.2000122
1056.030937	672.2000122
1056.595993	673.4000244
1057.160992	669.4000244
1057.725934	670.4000244
1058.290817	667.7999878
1058.855643	666.4000244
1059.420411	668.5999756
1059.985122	671.4000244
1060.549775	667.5999756
1061.114371	666.7999878
1061.678908	667.5999756
1062.243389	669.2000122
1062.807811	667.0
1063.372176	669.4000244
1063.936483	670.7999878
1064.500733	669.2000122
1065.064925	666.5999756
1065.62906	672.2000122
1066.193137	666.7999878
1066.757156	667.0
1067.321118	670.5999756
1069.012658	668.7999878
1069.57639	666.4000244
1070.140063	676.2000122
1070.70368	666.4000244
1071.267239	665.5999756
1071.83074	666.4000244
1072.394184	666.4000244
1072.95757	666.5999756
1073.520899	667.2000122
1074.08417	670.0
1074.647383	667.2000122
1075.21054	665.4000244
1075.773638	667.0
1076.336679	665.5999756
1076.899663	669.0
1077.462589	666.4000244
1078.025457	666.7999878
1078.588268	664.4000244
1079.151022	662.7999878
1079.713718	665.2000122
1080.276356	667.7999878
1080.838937	665.7999878
1081.401461	668.2000122
1081.963927	665.7999878
1082.526336	667.7999878
1083.088687	669.2000122
1083.650981	668.7999878
1084.213217	667.5999756
1084.775396	667.4000244
1085.337517	666.4000244
1085.899581	669.2000122
1086.461587	666.7999878
1087.023536	672.2000122
1087.585428	665.5999756
1088.147262	669.4000244
1088.709039	665.2000122
1089.270758	668.0
1089.83242	667.4000244
1090.394024	667.5999756
1090.955571	668.4000244
1091.517061	666.2000122
1092.078493	666.7999878
1092.639868	667.5999756
1093.201185	670.7999878
1093.762445	668.7999878
1094.323648	665.0
1094.884793	666.7999878
1095.445881	670.0
1096.006911	669.4000244
1096.567884	667.4000244
1097.1288	675.0
1097.689659	667.2000122
1098.25046	667.7999878
1098.811203	667.0
1099.37189	665.4000244
1099.932518	670.7999878
1100.49309	665.5999756
1101.053604	668.2000122
1101.614061	666.2000122
1102.174461	668.0
1102.734803	669.7999878
1103.295088	663.2000122
1103.855316	666.2000122
1104.415486	664.7999878
1104.975599	667.7999878
1105.535655	667.2000122
1106.095653	667.4000244
1106.655594	665.5999756
1107.215478	665.0
1107.775305	667.0
1108.335074	666.0
1108.894786	664.7999878
1109.45444	663.5999756
1110.014038	665.2000122
1110.573578	663.5999756
1111.133061	664.5999756
1111.692486	666.4000244
1112.251854	667.2000122
1112.811165	664.5999756
1113.370419	667.4000244
1113.929616	664.4000244
1114.488755	666.2000122
1115.047837	662.4000244
1115.606862	664.2000122
1116.16583	663.2000122
1116.72474	664.0
1117.283593	664.2000122
1117.842389	664.5999756
1118.401128	664.5999756
1118.959809	667.2000122
1119.518433	665.7999878
1120.077	664.0
1120.63551	664.7999878
1121.193963	664.0
1121.752358	666.4000244
1122.310697	661.5999756
1122.868978	666.2000122
1123.427202	665.7999878
1123.985368	664.4000244
1124.543478	665.0
1125.10153	662.5999756
1125.659526	666.5999756
1126.217464	664.0
1126.775345	664.7999878
1127.333168	667.5999756
1127.890935	665.2000122
1128.448644	662.7999878
1129.006297	667.4000244
1129.563892	664.2000122
1130.12143	665.7999878
1130.678911	663.7999878
1131.236335	662.2000122
1131.793701	662.4000244
1132.351011	664.4000244
1132.908263	665.7999878
1133.465458	665.2000122
1134.022597	664.7999878
1134.579678	663.4000244
1135.136702	666.0
1135.693669	668.5999756
1136.250578	662.4000244
1136.807431	666.5999756
1137.364227	663.0
1137.920965	664.7999878
1138.477647	663.2000122
1139.034271	665.5999756
1139.590839	665.5999756
1140.147349	664.2000122
1140.703802	664.2000122
1141.260198	664.4000244
1141.816537	667.2000122
1142.37282	666.2000122
1142.929045	665.2000122
1143.485213	665.4000244
1144.041323	664.7999878
1144.597377	664.5999756
1145.153374	668.5999756
1145.709314	663.7999878
1146.265197	666.4000244
1146.821023	664.4000244
1147.376792	665.5999756
1147.932503	664.7999878
1148.488158	666.0
1149.043756	664.4000244
1149.599297	665.5999756
1150.154781	664.5999756
1150.710207	663.5999756
1151.265577	662.7999878
1151.82089	662.5999756
1152.376146	666.0
1152.931345	665.5999756
1153.486487	665.4000244
1154.041572	664.0
1154.5966	666.0
1155.151571	665.4000244
1155.706485	668.2000122
1156.261342	666.7999878
1156.816142	665.7999878
1157.370885	664.5999756
1157.925572	667.0
1158.480201	666.0
1159.034774	665.0
1159.589289	665.0
1160.143748	663.4000244
1160.698149	666.4000244
1161.252494	666.5999756
1161.806782	662.4000244
1162.361013	663.5999756
1162.915187	666.7999878
1163.469304	664.0
1164.023364	663.2000122
1164.577368	667.0
1165.131314	665.2000122
1165.685204	665.2000122
1166.239036	664.0
1166.792812	666.4000244
1167.346531	666.7999878
1167.900193	665.4000244
1168.453798	663.0
1169.007347	663.0
1169.560838	665.4000244
1170.114273	665.0
1170.66765	661.7999878
1171.220971	668.4000244
1171.774235	665.0
1172.327443	663.2000122
1172.880593	664.7999878
1173.433687	664.5999756
1173.986723	663.0
1174.539703	666.5999756
1175.092626	667.7999878
1175.645493	665.5999756
1176.198302	666.5999756
1176.751055	663.5999756
1177.303751	664.7999878
1177.85639	664.4000244
1178.408972	666.2000122
1178.961498	661.2000122
1179.513966	665.0
1180.066378	663.4000244
1180.618733	662.2000122
1181.171032	664.7999878
1181.723273	666.4000244
1182.275458	667.0
1182.827586	662.4000244
1183.379657	663.2000122
1183.931672	665.5999756
1184.48363	668.7999878
1185.035531	667.5999756
1185.587375	664.2000122
1186.139162	662.5999756
1186.690893	662.4000244
1187.242567	663.5999756
1187.794184	662.0
1188.345745	665.0
1188.897249	666.0
1189.448696	666.2000122
1190.000086	664.5999756
1190.55142	665.2000122
1191.102697	663.2000122
1191.653918	665.2000122
1192.205081	662.7999878
1192.756188	664.4000244
1193.307238	684.5999756
1193.858232	664.4000244
1194.409169	662.4000244
1194.960049	662.7999878
1195.510872	664.2000122
1196.061639	663.2000122
1196.612349	665.2000122
1197.163003	666.0
1197.713599	664.0
1198.264139	665.7999878
1198.814623	666.5999756
1199.36505	665.2000122
1199.91542	663.5999756
1200.465734	667.4000244
1201.01599	666.2000122
1201.566191	663.4000244
1202.116334	665.2000122
1202.666421	665.4000244
1203.216452	663.5999756
1203.766425	663.5999756
1204.316343	664.4000244
1204.866203	664.2000122
1205.416007	664.5999756
1205.965754	667.5999756
1206.515445	664.5999756
1207.065079	663.4000244
1207.614657	663.4000244
1208.164177	664.2000122
1208.713642	667.2000122
1209.26305	667.4000244
1209.812401	664.2000122
1210.361695	665.0
1210.910933	666.2000122
1211.460115	662.7999878
1212.00924	666.2000122
1212.558308	664.5999756
1213.10732	664.4000244
1213.656275	665.7999878
1214.205174	663.7999878
1214.754016	666.0
1215.302801	664.5999756
1215.85153	665.0
1216.400203	666.2000122
1216.948819	664.5999756
1217.497378	667.2000122
1218.045881	664.7999878
1218.594327	667.5999756
1219.142717	666.2000122
1219.691051	663.0
1220.239327	666.5999756
1220.787548	662.7999878
1221.335712	664.0
1221.883819	666.5999756
1222.43187	666.7999878
1222.979864	667.0
1223.527802	664.5999756
1224.075683	667.5999756
1224.623508	667.4000244
1225.171277	668.2000122
1225.718989	667.5999756
1226.266644	663.0
1226.814243	664.7999878
1227.361786	668.4000244
1227.909272	666.2000122
1228.456702	664.5999756
1229.004075	664.2000122
1229.551392	665.7999878
1230.098652	664.7999878
1230.645856	666.4000244
1231.193003	667.4000244
1231.740094	665.5999756
1232.287129	667.5999756
1232.834107	667.4000244
1233.381029	664.5999756
1233.927894	667.7999878
1234.474703	667.4000244
1235.021455	663.7999878
1235.568151	668.5999756
1236.114791	667.7999878
1236.661374	665.4000244
1237.207901	666.5999756
1237.754372	667.2000122
1238.300786	665.5999756
1238.847144	666.2000122
1239.393445	667.5999756
1239.93969	666.4000244
1240.485879	666.7999878
1241.032011	665.7999878
1241.578087	667.5999756
1242.124106	664.7999878
1242.67007	667.0
1243.215976	668.0
1243.761827	668.2000122
1244.307621	664.4000244
1244.853359	668.7999878
1245.39904	669.5999756
1245.944665	667.2000122
1246.490234	668.2000122
1247.035746	669.7999878
1247.581203	668.7999878
1248.126602	666.7999878
1248.671946	666.4000244
1249.217233	669.5999756
1249.762464	668.2000122
1250.307638	668.4000244
1250.852757	667.2000122
1251.397819	671.5999756
1251.942824	671.7999878
1252.487774	670.0
1253.032667	667.4000244
1253.577503	669.5999756
1254.122284	668.2000122
1254.667008	667.2000122
1255.211676	669.0
1255.756288	670.0
1256.300843	670.2000122
1256.845342	670.4000244
1257.389785	675.4000244
1257.934172	672.5999756
1258.478502	674.7999878
1259.022776	675.4000244
1259.566994	676.0
1260.111156	698.7999878
1260.655261	679.4000244
1261.199311	679.7999878
1261.743304	686.7999878
1262.28724	689.2000122
1262.831121	700.4000244
1263.374945	701.7999878
1263.918713	702.2000122
1264.462425	700.2000122
1265.006081	694.5999756
1265.54968	686.4000244
1266.093223	685.5999756
1266.636711	682.2000122
1267.180141	676.0
1267.723516	677.4000244
1268.266835	678.7999878
1268.810097	673.7999878
1269.353303	672.7999878
1269.896453	675.4000244
1270.439547	674.7999878
1270.982584	675.7999878
1271.525566	675.7999878
1272.068491	675.2000122
1272.61136	674.5999756
1273.154173	675.2000122
1273.69693	673.2000122
1274.239631	673.7999878
1274.782275	675.4000244
1275.324864	679.5999756
1275.867396	676.2000122
1276.409872	682.0
1276.952292	679.0
1277.494656	680.0
1278.036964	678.5999756
1278.579215	683.0
1279.121411	683.7999878
1279.66355	691.0
1280.205634	699.7999878
1280.747661	711.7999878
1281.289632	741.0
1281.831547	793.5999756
1282.373406	912.5999756
1282.915209	1070.0
1283.456955	1175.800049
1283.998646	1152.599976
1284.540281	1047.199951
1285.081859	910.4000244
1285.623381	793.2000122
1286.164848	740.0
1286.706258	712.0
1287.247612	695.2000122
1287.788911	689.5999756
1288.330153	686.2000122
1288.871339	682.5999756
1289.412469	681.4000244
1289.953543	679.4000244
1290.494561	675.7999878
1291.035523	677.7999878
1291.576428	677.2000122
1292.117278	679.4000244
1292.658072	677.0
1293.19881	673.7999878
1293.739492	671.7999878
1294.280118	674.0
1294.820687	674.4000244
1295.361201	674.7999878
1295.901659	671.7999878
1296.442061	671.7999878
1296.982406	674.7999878
1297.522696	674.5999756
1298.06293	671.5999756
1298.603108	671.5999756
1299.143229	670.7999878
1299.683295	673.2000122
1300.223305	669.4000244
1300.763259	672.2000122
1301.303157	668.2000122
1301.842999	673.7999878
1302.382785	671.7999878
1302.922515	670.5999756
1303.462189	673.2000122
1304.001807	671.5999756
1304.541369	668.2000122
1305.080875	670.5999756
1305.620326	672.7999878
1306.15972	668.7999878
1306.699058	669.7999878
1307.238341	669.2000122
1307.777567	671.4000244
1308.316738	669.0
1308.855853	669.4000244
1309.394912	668.7999878
1309.933915	669.4000244
1310.472862	669.4000244
1311.011753	670.0
1311.550588	668.7999878
1312.089367	671.7999878
1312.62809	671.5999756
1313.166758	669.4000244
1313.70537	669.2000122
1314.243925	666.0
1314.782425	669.7999878
1315.320869	665.4000244
1315.859257	669.4000244
1316.397589	669.4000244
1316.935866	669.7999878
1317.474086	669.5999756
1318.012251	667.5999756
1318.55036	667.7999878
1319.088413	669.4000244
1319.62641	667.4000244
1320.164351	667.7999878
1320.702236	667.0
1321.240066	667.2000122
1321.777839	670.0
1322.315557	668.7999878
1322.853219	669.2000122
1323.390826	668.5999756
1323.928376	671.7999878
1324.465871	665.7999878
1325.003309	668.0
1325.540692	669.4000244
1326.07802	668.4000244
1326.615291	670.0
1327.152506	670.2000122
1327.689666	670.0
1328.22677	668.4000244
1328.763818	669.0
1329.300811	668.2000122
1329.837747	668.4000244
1330.374628	668.4000244
1330.911453	666.0
1331.448222	670.7999878
1331.984936	668.0
1332.521594	668.5999756
1333.058196	668.7999878
1333.594742	668.7999878
1334.131232	668.2000122
1334.667667	669.0
1335.204046	670.0
1335.740369	668.0
1336.276637	669.7999878
1336.812848	667.2000122
1337.349004	672.2000122
1337.885105	665.0
1338.421149	667.7999878
1338.957138	666.7999878
1339.493071	670.5999756
1340.028949	667.7999878
1340.56477	670.2000122
1341.100536	668.0
1341.636246	669.2000122
1342.171901	668.7999878
1342.7075	668.0
1343.243043	666.5999756
1343.77853	668.4000244
1344.313962	667.7999878
1344.849338	667.0
1345.384659	667.7999878
1345.919923	669.4000244
1346.455133	670.4000244
1346.990286	669.0
1347.525384	669.7999878
1348.060426	668.2000122
1348.595412	670.5999756
1349.130343	668.7999878
1349.665218	668.4000244
1350.200037	671.0
1350.734801	667.5999756
1351.269509	670.0
1351.804162	669.2000122
1352.338758	669.7999878
1352.8733	668.4000244
1353.407785	668.0
1353.942215	671.0
1354.476589	668.7999878
1355.010908	669.5999756
1355.545171	669.5999756
1356.079379	670.7999878
1356.61353	667.7999878
1357.147627	668.0
1357.681667	671.5999756
1358.215652	670.2000122
1358.749582	672.0
1359.283456	670.7999878
1359.817274	672.7999878
1360.351037	668.2000122
1360.884744	669.4000244
1361.418395	666.0
1361.951991	670.0
1362.485531	674.2000122
1363.019016	672.7999878
1363.552445	672.0
1364.085819	670.7999878
1364.619137	671.0
1365.1524	674.4000244
1365.685607	674.7999878
1366.218758	674.0
1366.751854	672.2000122
1367.284894	672.4000244
1367.817879	672.0
1368.350808	673.5999756
1368.883682	673.0
1369.4165	682.7999878
1369.949263	699.7999878
1370.48197	689.0
1371.014622	675.5999756
1371.547218	673.7999878
1372.079758	676.2000122
1372.612244	676.4000244
1373.144673	674.2000122
1373.677047	671.5999756
1374.209366	675.2000122
1374.741629	673.5999756
1375.273836	676.2000122
1375.805989	677.5999756
1376.338085	676.7999878
1376.870126	676.2000122
1377.402112	677.5999756
1377.934042	678.0
1378.465917	674.0
1378.997736	678.0
1379.5295	679.0
1380.061208	685.2000122
1380.592861	683.5999756
1381.124459	684.4000244
1381.656	688.5999756
1382.187487	689.2000122
1382.718918	692.7999878
1383.250294	695.4000244
1383.781614	703.0
1384.312879	713.0
1384.844088	727.4000244
1385.375242	754.7999878
1385.90634	809.7999878
1386.437383	925.5999756
1386.968371	1229.800049
1387.499303	1637.800049
1388.03018	1794.0
1388.561001	1438.599976
1389.091767	1029.800049
1389.622478	825.4000244
1390.153133	759.4000244
1390.683733	720.7999878
1391.214277	713.0
1391.744766	700.2000122
1392.2752	694.0
1392.805578	688.2000122
1393.335901	686.4000244
1393.866168	685.2000122
1394.396381	682.4000244
1394.926537	680.4000244
1395.456639	681.7999878
1395.986685	682.0
1396.516675	681.0
1397.046611	678.2000122
1397.576491	679.0
1398.106315	675.7999878
1398.636084	677.2000122
1399.165798	675.0
1399.695457	679.7999878
1400.22506	675.5999756
1400.754608	676.0
1401.284101	675.5999756
1401.813538	674.4000244
1402.34292	676.7999878
1402.872247	679.0
1403.401518	676.5999756
1403.930734	679.7999878
1404.459895	679.7999878
1404.989	682.7999878
1405.51805	681.2000122
1406.047045	683.2000122
1406.575984	687.2000122
1407.104869	692.4000244
1407.633697	698.0
1408.162471	709.0
1408.691189	722.5999756
1409.219852	734.0
1409.74846	733.5999756
1410.277013	719.2000122
1410.80551	703.7999878
1411.333952	689.2000122
1411.862339	685.2000122
1412.39067	679.5999756
1412.918946	676.7999878
1413.447167	674.0
1413.975333	672.4000244
1414.503444	675.5999756
1415.031499	670.5999756
1415.559499	684.4000244
1416.087444	669.7999878
1416.615333	669.5999756
1417.143167	668.2000122
1417.670947	670.2000122
1418.19867	667.2000122
1418.726339	667.2000122
1419.253952	670.0
1419.781511	668.0
1420.309014	668.0
1420.836461	668.0
1421.363854	669.4000244
1421.891191	667.7999878
1422.418474	670.4000244
1422.945701	669.4000244
1423.472872	670.0
1423.999989	668.0
1424.52705	667.4000244
1425.054057	668.0
1425.581008	669.5999756
1426.107904	667.2000122
1426.634745	667.7999878
1427.16153	669.7999878
1427.688261	666.4000244
1428.214936	670.7999878
1428.741556	666.5999756
1429.268121	670.0
1429.794631	666.2000122
1430.321085	668.0
1430.847485	666.4000244
1431.373829	667.7999878
1431.900118	665.7999878
1432.426353	666.4000244
1432.952532	664.4000244
1433.478655	665.0
1434.004724	664.5999756
1434.530738	663.5999756
1435.056696	665.5999756
1435.5826	665.7999878
1436.108448	665.5999756
1436.634241	667.7999878
1437.159979	664.7999878
1437.685662	666.0
1438.21129	663.7999878
1438.736863	665.2000122
1439.262381	663.4000244
1439.787843	666.2000122
1440.313251	665.4000244
1440.838603	664.2000122
1441.3639	667.7999878
1441.889143	665.4000244
1442.41433	665.7999878
1442.939462	663.2000122
1443.464539	664.4000244
1443.989561	664.5999756
1444.514528	664.7999878
1445.03944	664.0
1445.564297	664.0
1446.089099	663.7999878
1446.613846	663.7999878
1447.138537	664.5999756
1447.663174	663.7999878
1448.187756	664.7999878
1448.712282	666.4000244
1449.236754	665.4000244
1449.761171	665.0
1450.285532	663.5999756
1450.809839	663.4000244
1451.33409	664.5999756
1451.858287	663.0
1452.382428	662.7999878
1452.906515	662.5999756
1453.430546	664.5999756
1453.954523	664.4000244
1454.478444	663.4000244
1455.002311	663.7999878
1455.526123	663.0
1456.049879	660.4000244
1456.573581	664.5999756
1457.097227	663.2000122
1457.620819	665.4000244
1458.144356	663.7999878
1458.667837	665.4000244
1459.191264	663.5999756
1459.714636	665.7999878
1460.237952	664.0
1460.761214	664.0
1461.284421	663.2000122
1461.807573	663.2000122
1462.33067	661.4000244
1462.853712	667.4000244
1463.376699	672.4000244
1463.899632	665.4000244
1464.422509	664.4000244
1464.945331	665.2000122
1465.468099	662.2000122
1465.990811	660.5999756
1466.513469	661.5999756
1467.036071	663.5999756
1467.558619	663.2000122
1468.081112	666.2000122
1468.60355	664.2000122
1469.125933	665.0
1469.648261	664.0
1470.170534	664.4000244
1470.692752	661.5999756
1471.214916	663.5999756
1471.737024	665.4000244
1472.259078	663.2000122
1472.781077	662.2000122
1473.303021	664.2000122
1473.82491	660.5999756
1474.346744	664.0
1474.868523	662.4000244
1475.390248	661.5999756
1475.911917	664.4000244
1476.433532	661.7999878
1476.955092	663.4000244
1477.476597	663.2000122
1477.998047	663.5999756
1478.519442	660.0
1479.040783	662.4000244
1479.562068	662.0
1480.083299	662.0
1480.604475	661.0
1481.125596	663.2000122
1481.646663	663.2000122
1482.167674	662.4000244
1482.688631	663.4000244
1483.209533	663.4000244
1483.73038	662.7999878
1484.251172	662.7999878
1484.771909	663.0
1485.292592	661.7999878
1485.81322	662.7999878
1486.333793	664.0
1486.854311	662.7999878
1487.374775	663.0
1487.895183	662.0
1488.415537	663.7999878
1488.935836	663.4000244
1489.456081	663.4000244
1489.97627	661.7999878
1490.496405	664.0
1491.016485	661.5999756
1491.536511	662.5999756
1492.056481	662.7999878
1492.576397	662.2000122
1493.096258	661.4000244
1493.616064	661.5999756
1494.135816	664.2000122
1494.655513	662.0
1495.175155	662.2000122
1495.694742	663.4000244
1496.214274	662.5999756
1496.733752	663.2000122
1497.253175	661.2000122
1497.772544	660.4000244
1498.291858	661.7999878
1498.811116	661.0
1499.330321	661.2000122
1499.84947	669.5999756
1500.368565	662.4000244
1500.887605	662.7999878
1501.406591	661.0
1501.925521	661.5999756
1502.444397	662.4000244
1502.963219	659.7999878
1503.481985	663.0
1504.000697	662.0
1504.519355	664.0
1505.037957	664.4000244
1505.556505	665.0
1506.074999	664.4000244
1506.593437	661.4000244
1507.111821	664.5999756
1507.63015	663.2000122
1508.148425	664.5999756
1508.666645	663.0
1509.18481	663.0
1509.702921	662.4000244
1510.220977	660.5999756
1510.738979	671.5999756
1511.256925	663.5999756
1511.774817	661.5999756
1512.292655	661.4000244
1512.810438	660.7999878
1513.328166	662.4000244
1513.84584	662.0
1514.363459	662.0
1514.881023	660.5999756
1515.398533	662.0
1515.915988	660.7999878
1516.433389	659.7999878
1516.950734	661.7999878
1517.468026	664.7999878
1517.985263	661.4000244
1518.502445	662.2000122
1519.019572	663.5999756
1519.536645	662.7999878
1520.053664	663.4000244
1520.570628	660.2000122
1521.087537	660.2000122
1521.604392	662.7999878
1522.121192	663.2000122
1522.637937	662.4000244
1523.154628	665.0
1523.671265	660.2000122
1524.187847	663.2000122
1524.704374	662.4000244
1525.220847	662.0
1525.737265	661.5999756
1526.253629	666.2000122
1526.769938	664.2000122
1527.286192	664.0
1527.802392	664.4000244
1528.318538	661.7999878
1528.834629	661.0
1529.350666	660.7999878
1529.866648	665.4000244
1530.382575	663.7999878
1530.898448	660.0
1531.414266	665.0
1531.93003	662.7999878
1532.44574	662.0
1532.961395	663.0
1533.476995	661.7999878
1533.992541	662.5999756
1534.508033	663.4000244
1535.02347	663.5999756
1535.538852	663.2000122
1536.05418	663.0
1536.569454	663.0
1537.084673	663.5999756
1537.599837	661.5999756
1538.114947	661.5999756
1538.630003	664.0
1539.145004	659.0
1539.659951	661.7999878
1540.174843	661.2000122
1540.689681	659.7999878
1541.204465	661.5999756
1541.719194	661.4000244
1542.233868	663.2000122
1542.748488	661.7999878
1543.263054	661.4000244
1543.777565	661.7999878
1544.292022	664.2000122
1544.806424	664.0
1545.320772	661.5999756
1545.835066	662.0
1546.349305	662.2000122
1546.863489	664.0
1547.37762	660.5999756
1547.891696	662.0
1548.405717	662.0
1548.919684	661.5999756
1549.433597	660.7999878
1549.947455	663.0
1550.461259	663.7999878
1550.975009	661.2000122
1551.488704	663.4000244
1552.002345	663.2000122
1552.515931	663.0
1553.029463	660.2000122
1553.542941	661.0
1554.056364	659.7999878
1554.569733	665.0
1555.083048	663.2000122
1555.596308	662.4000244
1556.109514	663.2000122
1556.622665	663.7999878
1557.135762	665.0
1557.648805	663.7999878
1558.161794	661.5999756
1558.674728	661.5999756
1559.187608	663.0
1559.700433	662.0
1560.213205	661.4000244
1560.725921	663.0
1561.238584	663.7999878
1561.751192	660.2000122
1562.263746	662.0
1562.776246	663.4000244
1563.288691	662.7999878
1563.801082	661.5999756
1564.313419	662.0
1564.825701	661.4000244
1565.337929	662.4000244
1565.850103	662.5999756
1566.362223	660.7999878
1566.874288	662.7999878
1567.386299	663.2000122
1567.898256	664.2000122
1568.410158	661.5999756
1568.922007	662.5999756
1569.4338	663.4000244
1569.94554	664.0
1570.457226	662.7999878
1570.968857	662.0
1571.480434	660.7999878
1571.991956	660.2000122
1572.503425	659.0
1573.014839	665.2000122
1573.526199	661.2000122
1574.037505	659.4000244
1574.548756	662.2000122
1575.059953	662.2000122
1575.571096	661.4000244
1576.082185	661.7999878
1576.59322	659.4000244
1577.1042	663.4000244
1577.615126	663.2000122
1578.125998	664.0
1578.636816	661.0
1579.14758	661.4000244
1579.658289	662.0
1580.168944	661.5999756
1580.679545	664.0
1581.190092	663.4000244
1581.700585	661.0
1582.211023	661.0
1582.721407	663.0
1583.231737	661.0
1583.742013	662.5999756
1584.252235	663.0
1584.762403	661.7999878
1585.272516	662.5999756
1585.782575	660.7999878
1586.292581	660.5999756
1586.802532	662.0
1587.312428	663.7999878
1587.822271	664.4000244
1588.33206	660.4000244
1588.841794	661.7999878
1589.351474	661.4000244
1589.8611	663.0
1590.370672	661.0
1590.88019	662.0
1591.389654	659.4000244
1591.899064	659.0
1592.408419	659.4000244
