1042.452273	690.2000122
1043.018714	686.2000122
1043.585098	689.0
1044.151424	686.2000122
1044.717692	684.2000122
1045.283903	680.4000244
1045.850056	685.7999878
1046.416151	683.0
1046.982188	679.0
1047.548167	677.7999878
1048.114089	681.2000122
1048.679953	675.7999878
1049.24576	678.5999756
1049.811509	679.5999756
1050.3772	676.7999878
1050.942833	679.2000122
1051.508408	676.7999878
1052.073926	672.4000244
1052.639387	675.5999756
1053.204789	673.5999756
1053.770134	676.0
1054.335421	673.0
1054.900651	671.5999756
1055.465823	673.2000122
1056.030937	673.5999756
1057.725934	674.2000122
1058.290817	669.0
1058.855643	671.0
1059.420411	669.4000244
1059.985122	671.7999878
1060.549775	669.5999756
1061.114371	671.7999878
1061.678908	668.4000244
1062.243389	669.7999878
1062.807811	668.2000122
1063.372176	670.2000122
1063.936483	667.2000122
1064.500733	669.4000244
1065.064925	670.5999756
1065.62906	669.5999756
1066.193137	670.0
1066.757156	667.7999878
1067.321118	668.0
1067.885022	671.5999756
1068.448869	670.0
1069.012658	667.5999756
1069.57639	668.4000244
1070.140063	680.4000244
1070.70368	670.5999756
1071.267239	668.5999756
1071.83074	671.5999756
1072.394184	667.0
1072.95757	667.4000244
1073.520899	668.2000122
1074.08417	669.0
1074.647383	669.7999878
1075.21054	670.7999878
1075.773638	667.5999756
1076.336679	668.2000122
1076.899663	668.7999878
1077.462589	668.4000244
1078.025457	670.5999756
1078.588268	670.7999878
1079.151022	665.0
1079.713718	668.2000122
1080.276356	667.2000122
1080.838937	668.2000122
1081.401461	669.0
1081.963927	667.4000244
1082.526336	670.7999878
1083.088687	670.5999756
1083.650981	669.0
1084.213217	671.4000244
1084.775396	668.4000244
1085.337517	668.2000122
1085.899581	669.5999756
1086.461587	668.4000244
1087.023536	667.7999878
1087.585428	668.0
1088.147262	671.5999756
1088.709039	672.7999878
1089.270758	670.5999756
1089.83242	671.5999756
1090.394024	667.7999878
1090.955571	671.4000244
1091.517061	669.4000244
1092.078493	671.0
1092.639868	669.7999878
1093.201185	672.2000122
1093.762445	671.5999756
1094.323648	671.4000244
1094.884793	674.4000244
1095.445881	671.5999756
1096.006911	670.4000244
1096.567884	670.0
1097.1288	677.5999756
1097.689659	671.0
1098.25046	669.2000122
1098.811203	670.7999878
1099.37189	668.7999878
1099.932518	672.2000122
1100.49309	667.2000122
1101.053604	672.2000122
1101.614061	667.5999756
1102.174461	666.4000244
1102.734803	668.7999878
1103.295088	667.4000244
1103.855316	666.2000122
1104.415486	668.4000244
1104.975599	668.2000122
1105.535655	670.2000122
1106.095653	668.5999756
1106.655594	666.2000122
1107.215478	667.5999756
1107.775305	668.0
1108.335074	666.5999756
1108.894786	668.2000122
1109.45444	668.7999878
1110.014038	668.2000122
1110.573578	664.4000244
1111.133061	666.5999756
1111.692486	669.7999878
1112.251854	668.4000244
1112.811165	667.0
1113.370419	666.2000122
1113.929616	667.5999756
1114.488755	668.2000122
1115.047837	669.7999878
1115.606862	663.4000244
1116.16583	668.5999756
1116.72474	668.2000122
1117.283593	670.4000244
1117.842389	665.7999878
1118.401128	669.2000122
1118.959809	663.5999756
1119.518433	666.5999756
1120.077	666.0
1120.63551	667.5999756
1121.193963	666.0
1121.752358	666.2000122
1122.310697	667.5999756
1122.868978	666.2000122
1123.427202	667.4000244
1123.985368	666.7999878
1124.543478	666.0
1125.10153	667.4000244
1125.659526	667.2000122
1126.217464	664.7999878
1126.775345	665.4000244
1127.333168	665.4000244
1127.890935	667.7999878
1128.448644	666.5999756
1129.006297	664.0
1129.563892	668.4000244
1130.12143	668.2000122
1130.678911	664.2000122
1131.236335	666.2000122
1131.793701	667.5999756
1132.351011	667.5999756
1132.908263	662.7999878
1133.465458	668.5999756
1134.022597	665.0
1134.579678	666.5999756
1135.136702	666.4000244
1135.693669	666.7999878
1136.250578	665.7999878
1136.807431	666.4000244
1137.364227	666.4000244
1137.920965	666.0
1138.477647	666.2000122
1139.034271	667.0
1139.590839	668.4000244
1140.147349	666.4000244
1140.703802	667.5999756
1141.260198	669.4000244
1141.816537	664.5999756
1142.37282	669.0
1142.929045	663.5999756
1143.485213	669.2000122
1144.041323	668.2000122
1144.597377	667.0
1145.153374	667.2000122
1145.709314	666.5999756
1146.265197	668.7999878
1146.821023	664.7999878
1147.376792	666.2000122
1147.932503	666.5999756
1148.488158	668.5999756
1149.043756	669.4000244
1149.599297	667.4000244
1150.154781	666.5999756
1150.710207	665.0
1151.265577	666.7999878
1151.82089	668.0
1152.376146	667.7999878
1152.931345	669.0
1153.486487	668.5999756
1154.041572	667.5999756
1154.5966	667.2000122
1155.151571	667.7999878
1155.706485	668.4000244
1156.261342	666.5999756
1156.816142	669.2000122
1157.370885	668.7999878
1157.925572	665.4000244
1158.480201	665.5999756
1159.034774	666.4000244
1159.589289	665.4000244
1160.143748	666.7999878
1160.698149	668.2000122
1161.252494	668.7999878
1161.806782	662.7999878
1162.361013	665.5999756
1162.915187	668.4000244
1163.469304	664.4000244
1164.023364	666.4000244
1164.577368	667.4000244
1165.131314	665.0
1165.685204	666.5999756
1166.239036	663.2000122
1166.792812	664.7999878
1167.346531	666.0
1167.900193	665.4000244
1168.453798	670.0
1169.007347	667.0
1169.560838	668.2000122
1170.114273	666.5999756
1170.66765	664.2000122
1171.220971	665.7999878
1171.774235	668.5999756
1172.327443	667.5999756
1172.880593	665.4000244
1173.433687	665.5999756
1173.986723	668.2000122
1174.539703	665.5999756
1175.092626	668.7999878
1175.645493	662.7999878
1176.198302	665.2000122
1176.751055	665.7999878
1177.303751	667.5999756
1177.85639	667.0
1178.408972	665.5999756
1178.961498	667.5999756
1179.513966	665.5999756
1180.066378	666.7999878
1180.618733	666.7999878
1181.171032	666.4000244
1181.723273	665.4000244
1182.275458	664.4000244
1182.827586	666.5999756
1183.379657	665.0
1183.931672	667.4000244
1184.48363	668.0
1185.035531	664.5999756
1185.587375	665.0
1186.139162	667.0
1186.690893	668.2000122
1187.242567	667.5999756
1187.794184	662.2000122
1188.345745	666.4000244
1188.897249	666.0
1189.448696	666.0
1190.000086	667.4000244
1190.55142	665.7999878
1191.102697	664.4000244
1191.653918	666.7999878
1192.205081	666.2000122
1192.756188	667.5999756
1193.307238	686.5999756
1193.858232	664.4000244
1194.409169	664.7999878
1194.960049	667.5999756
1195.510872	665.2000122
1196.061639	668.2000122
1196.612349	667.5999756
1197.163003	664.5999756
1197.713599	665.0
1198.264139	667.5999756
1198.814623	665.4000244
1199.36505	665.2000122
1199.91542	668.4000244
1200.465734	667.4000244
1201.01599	666.0
1201.566191	664.4000244
1202.116334	666.4000244
1202.666421	667.0
1203.216452	667.5999756
1203.766425	665.0
1204.316343	666.7999878
1204.866203	666.4000244
1205.416007	667.4000244
1205.965754	666.4000244
1206.515445	667.2000122
1207.065079	664.0
1207.614657	666.5999756
1208.164177	667.7999878
1208.713642	667.7999878
1209.26305	668.2000122
1209.812401	665.5999756
1210.361695	667.4000244
1210.910933	669.7999878
1211.460115	667.7999878
1212.00924	666.5999756
1212.558308	669.2000122
1213.10732	669.5999756
1213.656275	665.2000122
1214.205174	669.0
1214.754016	668.2000122
1215.302801	669.4000244
1215.85153	666.4000244
1216.400203	667.5999756
1216.948819	669.2000122
1217.497378	668.0
1218.045881	667.2000122
1218.594327	667.5999756
1219.142717	666.2000122
1219.691051	666.0
1220.239327	668.5999756
1220.787548	665.7999878
1221.335712	667.4000244
1221.883819	667.0
1222.43187	667.4000244
1222.979864	667.2000122
1223.527802	666.2000122
1224.075683	667.5999756
1224.623508	669.0
1225.171277	668.7999878
1225.718989	670.2000122
1226.266644	668.7999878
1226.814243	670.4000244
1227.361786	669.2000122
1227.909272	666.2000122
1228.456702	665.2000122
1229.004075	668.5999756
1229.551392	670.0
1230.098652	671.0
1230.645856	668.2000122
1231.193003	667.7999878
1231.740094	671.4000244
1232.287129	668.0
1232.834107	671.0
1233.381029	669.2000122
1233.927894	667.4000244
1234.474703	668.5999756
1235.021455	669.2000122
1235.568151	672.7999878
1236.114791	670.0
1236.661374	668.4000244
1237.207901	667.7999878
1237.754372	668.7999878
1238.300786	669.5999756
1238.847144	669.5999756
1239.393445	673.0
1239.93969	668.7999878
1240.485879	670.2000122
1241.032011	670.4000244
1241.578087	672.7999878
1242.124106	670.0
1242.67007	671.4000244
1243.215976	673.0
1243.761827	669.7999878
1244.307621	672.5999756
1244.853359	674.0
1245.39904	671.2000122
1245.944665	672.2000122
1246.490234	673.2000122
1247.035746	673.2000122
1247.581203	673.2000122
1248.126602	677.4000244
1248.671946	671.4000244
1249.217233	676.5999756
1249.762464	671.0
1250.307638	676.7999878
1250.852757	675.0
1251.397819	671.4000244
1251.942824	675.4000244
1252.487774	673.2000122
1253.032667	675.0
1253.577503	673.4000244
1254.122284	675.0
1254.667008	675.2000122
1255.211676	674.4000244
1255.756288	673.2000122
1256.300843	675.0
1256.845342	680.2000122
1257.389785	681.2000122
1257.934172	684.4000244
1258.478502	689.0
1259.022776	681.7999878
1259.566994	687.4000244
1260.111156	701.4000244
1260.655261	695.5999756
1261.199311	698.5999756
1261.743304	708.0
1262.28724	718.2000122
1262.831121	729.5999756
1263.374945	730.5999756
1263.918713	730.4000244
1264.462425	725.4000244
1265.006081	712.5999756
1265.54968	702.4000244
1266.093223	694.5999756
1266.636711	692.2000122
1267.180141	686.4000244
1267.723516	687.5999756
1268.266835	685.7999878
1268.810097	685.0
1269.353303	680.0
1269.896453	682.2000122
1270.439547	683.5999756
1270.982584	684.2000122
1271.525566	683.0
1272.068491	683.5999756
1272.61136	682.2000122
1273.154173	684.0
1273.69693	686.0
1274.239631	685.7999878
1274.782275	685.0
1275.324864	687.7999878
1275.867396	685.4000244
1276.409872	687.5999756
1276.952292	690.5999756
1277.494656	691.2000122
1278.036964	692.7999878
1278.579215	701.0
1279.121411	708.7999878
1279.66355	717.5999756
1280.205634	726.2000122
1280.747661	756.5999756
1281.289632	807.5999756
1281.831547	938.7999878
1282.373406	1163.800049
1282.915209	1506.599976
1283.456955	1675.800049
1283.998646	1543.800049
1284.540281	1270.599976
1285.081859	1020.400024
1285.623381	867.5999756
1286.164848	783.7999878
1286.706258	744.7999878
1287.247612	725.5999756
1287.788911	710.5999756
1288.330153	704.5999756
1288.871339	703.0
1289.412469	690.7999878
1289.953543	693.5999756
1290.494561	690.0
1291.035523	688.7999878
1291.576428	686.4000244
1292.117278	685.7999878
1292.658072	688.2000122
1293.19881	681.0
1293.739492	683.2000122
1294.280118	681.5999756
1294.820687	681.4000244
1295.361201	682.5999756
1295.901659	682.2000122
1296.442061	677.0
1296.982406	681.0
1297.522696	682.0
1298.06293	677.7999878
1298.603108	681.2000122
1299.143229	679.7999878
1299.683295	678.7999878
1300.223305	679.2000122
1300.763259	677.5999756
1301.303157	680.4000244
1301.842999	675.7999878
1302.382785	675.4000244
1302.922515	678.2000122
1303.462189	674.2000122
1304.001807	674.5999756
1304.541369	676.0
1305.080875	677.7999878
1305.620326	679.2000122
1306.15972	676.2000122
1306.699058	672.5999756
1307.238341	675.0
1307.777567	676.5999756
1308.316738	672.7999878
1308.855853	674.4000244
1309.394912	677.0
1309.933915	675.4000244
1310.472862	675.0
1311.011753	676.2000122
1311.550588	673.5999756
1312.089367	673.4000244
1312.62809	674.0
1313.166758	674.2000122
1313.70537	675.7999878
1314.243925	675.4000244
1314.782425	673.5999756
1315.320869	671.5999756
1315.859257	672.2000122
1316.397589	674.7999878
1316.935866	674.5999756
1317.474086	673.7999878
1318.012251	673.0
1318.55036	673.2000122
1319.088413	674.7999878
1319.62641	675.7999878
1320.164351	672.7999878
1320.702236	673.4000244
1321.240066	673.4000244
1321.777839	674.7999878
1322.315557	673.4000244
1322.853219	675.4000244
1323.390826	673.5999756
1323.928376	678.4000244
1324.465871	671.4000244
1325.003309	671.0
1325.540692	678.0
1326.07802	675.0
1326.615291	674.5999756
1327.152506	674.5999756
1327.689666	671.4000244
1328.22677	674.0
1328.763818	671.0
1329.300811	673.0
1329.837747	675.0
1330.374628	673.5999756
1330.911453	673.4000244
1331.448222	672.7999878
1331.984936	677.5999756
1332.521594	674.2000122
1333.058196	674.5999756
1333.594742	672.2000122
1334.131232	673.2000122
1334.667667	673.5999756
1335.204046	674.4000244
1335.740369	674.0
1336.276637	673.7999878
1336.812848	672.2000122
1337.349004	676.4000244
1337.885105	673.4000244
1338.421149	672.4000244
1338.957138	674.0
1339.493071	673.4000244
1340.028949	674.4000244
1340.56477	673.5999756
1341.100536	673.5999756
1341.636246	672.4000244
1342.171901	675.0
1342.7075	674.2000122
1343.243043	673.2000122
1343.77853	673.5999756
1344.313962	674.4000244
1344.849338	672.4000244
1345.384659	672.4000244
1345.919923	672.5999756
1346.455133	671.4000244
1346.990286	672.5999756
1347.525384	672.7999878
1348.060426	671.0
1348.595412	674.4000244
1349.130343	672.4000244
1349.665218	673.2000122
1350.200037	675.7999878
1350.734801	671.4000244
1351.269509	671.0
1351.804162	676.7999878
1352.338758	671.4000244
1352.8733	673.4000244
1353.407785	673.4000244
1353.942215	676.5999756
1354.476589	677.2000122
1355.010908	675.4000244
1355.545171	676.7999878
1356.079379	677.0
1356.61353	674.0
1357.147627	679.2000122
1357.681667	674.7999878
1358.215652	672.7999878
1358.749582	678.4000244
1359.283456	676.7999878
1359.817274	678.0
1360.351037	675.2000122
1360.884744	675.7999878
1361.418395	678.7999878
1361.951991	679.0
1362.485531	678.7999878
1363.019016	678.7999878
1363.552445	677.5999756
1364.085819	680.0
1364.619137	684.2000122
1365.1524	682.7999878
1365.685607	680.4000244
1366.218758	683.7999878
1366.751854	683.7999878
1367.284894	681.0
1367.817879	680.0
1368.350808	684.0
1368.883682	689.4000244
1369.4165	706.2000122
1369.949263	725.7999878
1370.48197	706.2000122
1371.014622	690.4000244
1371.547218	685.4000244
1372.079758	683.7999878
1372.612244	687.7999878
1373.144673	684.7999878
1373.677047	682.0
1374.209366	682.7999878
1374.741629	684.2000122
1375.273836	685.2000122
1375.805989	687.0
1376.338085	691.7999878
1376.870126	686.5999756
1377.402112	691.2000122
1377.934042	690.4000244
1378.465917	693.5999756
1378.997736	688.5999756
1379.5295	696.2000122
1380.061208	691.7999878
1380.592861	700.5999756
1381.124459	701.5999756
1381.656	703.2000122
1382.187487	711.5999756
1382.718918	715.5999756
1383.250294	729.2000122
1383.781614	743.0
1384.312879	758.2000122
1384.844088	785.2000122
1385.375242	844.7999878
1385.90634	950.2000122
1386.437383	1200.400024
1386.968371	1823.400024
1387.499303	2662.399902
1388.03018	2743.600098
1388.561001	1962.800049
1389.091767	1243.599976
1389.622478	944.7999878
1390.153133	826.7999878
1390.683733	774.7999878
1391.214277	750.2000122
1391.744766	727.7999878
1392.2752	720.0
1392.805578	706.0
1393.335901	705.4000244
1393.866168	704.5999756
1394.396381	699.0
1394.926537	694.4000244
1395.456639	697.0
1395.986685	694.7999878
1396.516675	694.5999756
1397.046611	692.5999756
1397.576491	691.5999756
1398.106315	691.2000122
1398.636084	689.5999756
1399.165798	688.5999756
1399.695457	687.2000122
1400.22506	687.0
1400.754608	688.0
1401.284101	690.4000244
1401.813538	685.4000244
1402.34292	687.0
1402.872247	689.4000244
1403.401518	693.5999756
1403.930734	689.7999878
1404.459895	691.0
1404.989	697.2000122
1405.51805	693.5999756
1406.047045	704.0
1406.575984	707.7999878
1407.104869	716.2000122
1407.633697	727.7999878
1408.162471	751.2000122
1408.691189	774.0
1409.219852	779.7999878
1409.74846	781.0
1410.277013	759.5999756
1410.80551	734.4000244
1411.333952	716.5999756
1411.862339	701.2000122
1412.39067	695.2000122
1412.918946	690.7999878
1413.447167	683.0
1413.975333	681.2000122
1414.503444	679.0
1415.031499	679.7999878
1415.559499	691.4000244
1416.087444	679.2000122
1416.615333	678.2000122
1417.143167	673.4000244
1417.670947	676.2000122
1418.19867	676.2000122
1418.726339	673.5999756
1419.253952	672.5999756
1419.781511	674.4000244
1420.309014	673.2000122
1420.836461	673.2000122
1421.363854	672.5999756
1421.891191	670.2000122
1422.418474	676.0
1422.945701	674.0
1423.472872	675.2000122
1423.999989	672.2000122
1424.52705	675.2000122
1425.054057	674.0
1425.581008	673.4000244
1426.107904	674.7999878
1426.634745	673.4000244
1427.16153	674.2000122
1427.688261	674.7999878
1428.214936	674.0
1428.741556	670.5999756
1429.268121	669.5999756
1429.794631	669.2000122
1430.321085	667.4000244
1430.847485	671.4000244
1431.373829	668.4000244
1431.900118	668.4000244
1432.426353	666.2000122
1432.952532	668.0
1433.478655	670.4000244
1434.004724	670.0
1434.530738	670.0
1435.056696	669.7999878
1435.5826	668.7999878
1436.108448	669.7999878
1436.634241	667.4000244
1437.159979	668.7999878
1437.685662	670.4000244
1438.21129	669.2000122
1438.736863	669.0
1439.262381	669.0
1439.787843	665.2000122
1440.313251	666.5999756
1440.838603	665.4000244
1441.3639	665.4000244
1441.889143	670.2000122
1442.41433	667.0
1442.939462	666.5999756
1443.464539	667.0
1443.989561	665.5999756
1444.514528	668.0
1445.03944	668.5999756
1445.564297	665.5999756
1446.089099	669.2000122
1446.613846	665.0
1447.138537	664.2000122
1447.663174	668.5999756
1448.187756	668.7999878
1448.712282	667.5999756
1449.236754	667.0
1449.761171	666.0
1450.285532	670.0
1450.809839	666.2000122
1451.33409	664.7999878
1451.858287	666.5999756
1452.382428	664.2000122
1452.906515	665.4000244
1453.430546	665.0
1453.954523	667.4000244
1454.478444	661.4000244
1455.002311	665.7999878
1455.526123	667.7999878
1456.049879	665.2000122
1456.573581	664.4000244
1457.097227	666.2000122
1457.620819	664.7999878
1458.144356	663.2000122
1458.667837	664.5999756
1459.191264	666.5999756
1459.714636	663.2000122
1460.237952	663.4000244
1460.761214	667.4000244
1461.284421	665.5999756
1461.807573	665.0
1462.33067	666.7999878
1462.853712	671.0
1463.376699	675.0
1463.899632	667.5999756
1464.422509	665.4000244
1464.945331	666.4000244
1465.468099	663.0
1465.990811	663.4000244
1466.513469	663.2000122
1467.036071	664.7999878
1467.558619	664.2000122
1468.081112	665.4000244
1468.60355	663.7999878
1469.125933	665.4000244
1469.648261	666.0
1470.170534	668.7999878
1470.692752	664.0
1471.214916	662.2000122
1471.737024	665.2000122
1472.259078	665.4000244
1472.781077	665.2000122
1473.303021	663.4000244
1473.82491	664.0
1474.346744	661.2000122
1474.868523	664.5999756
1475.390248	664.4000244
1475.911917	665.0
1476.433532	665.4000244
1476.955092	664.2000122
1477.476597	666.7999878
1477.998047	664.7999878
1478.519442	664.2000122
1479.040783	661.5999756
1479.562068	665.7999878
1480.083299	661.2000122
1480.604475	665.0
1481.125596	662.7999878
1481.646663	663.2000122
1482.167674	664.0
1482.688631	661.5999756
1483.209533	664.0
1483.73038	663.2000122
1484.251172	664.5999756
1484.771909	662.7999878
1485.292592	664.4000244
1485.81322	665.2000122
1486.333793	664.2000122
1486.854311	661.4000244
1487.374775	663.0
1487.895183	664.2000122
1488.415537	664.2000122
1488.935836	663.0
1489.456081	663.5999756
1489.97627	666.0
1490.496405	663.4000244
1491.016485	664.2000122
1491.536511	665.0
1492.056481	664.7999878
1492.576397	662.5999756
1493.096258	663.7999878
1493.616064	662.7999878
1494.135816	663.7999878
1494.655513	661.7999878
1495.175155	663.2000122
1495.694742	663.0
1496.214274	663.2000122
1496.733752	663.2000122
1497.253175	662.0
1497.772544	660.4000244
1498.291858	664.4000244
1498.811116	663.7999878
1499.330321	663.5999756
1499.84947	675.0
1500.368565	662.7999878
1500.887605	660.5999756
1501.406591	663.5999756
1501.925521	663.4000244
1502.444397	665.4000244
1502.963219	662.7999878
1503.481985	663.5999756
1504.000697	662.0
1504.519355	664.2000122
1505.037957	664.0
1505.556505	663.7999878
1506.074999	665.5999756
1506.593437	660.7999878
1507.111821	665.2000122
1507.63015	660.4000244
1508.148425	663.7999878
1508.666645	663.4000244
1509.18481	661.0
1509.702921	663.5999756
1510.220977	665.0
1510.738979	670.5999756
1511.256925	663.2000122
1511.774817	662.7999878
1512.292655	663.5999756
1512.810438	665.5999756
1513.328166	661.0
1513.84584	663.7999878
1514.363459	663.4000244
1514.881023	663.5999756
1515.398533	665.2000122
1515.915988	663.7999878
1516.433389	663.5999756
1516.950734	662.0
1517.468026	663.4000244
1517.985263	661.2000122
1518.502445	662.2000122
1519.019572	662.4000244
1519.536645	662.0
1520.053664	661.4000244
1520.570628	662.2000122
1521.087537	661.5999756
1521.604392	660.7999878
1522.121192	663.0
1522.637937	664.4000244
1523.154628	662.4000244
1523.671265	662.5999756
1524.187847	661.4000244
1524.704374	664.5999756
1525.220847	662.4000244
1525.737265	664.2000122
1526.253629	669.4000244
1526.769938	666.2000122
1527.286192	664.4000244
1527.802392	661.0
1528.318538	663.4000244
1528.834629	662.2000122
1529.350666	660.5999756
1529.866648	664.7999878
1530.382575	664.0
1530.898448	662.0
1531.414266	663.7999878
1531.93003	660.2000122
1532.44574	663.0
1532.961395	661.2000122
1533.476995	664.5999756
1533.992541	662.5999756
1534.508033	663.0
1535.02347	660.7999878
1535.538852	663.7999878
1536.05418	662.7999878
1536.569454	663.2000122
1537.084673	664.0
1537.599837	659.0
1538.114947	663.4000244
1538.630003	661.4000244
1539.145004	659.7999878
1539.659951	665.4000244
1540.174843	659.5999756
1540.689681	662.0
1541.204465	660.7999878
1541.719194	663.7999878
1542.233868	663.4000244
1542.748488	665.5999756
1543.263054	663.5999756
1543.777565	661.4000244
1544.292022	663.2000122
1544.806424	662.7999878
1545.320772	664.0
1545.835066	661.5999756
1546.349305	665.2000122
1546.863489	662.0
1547.37762	661.4000244
1547.891696	664.0
1548.405717	664.5999756
1548.919684	661.0
1549.433597	663.0
1549.947455	665.0
1550.461259	664.4000244
1550.975009	662.4000244
1551.488704	662.5999756
1552.002345	661.5999756
1552.515931	662.7999878
1553.029463	662.5999756
1553.542941	660.5999756
1554.056364	663.5999756
1554.569733	661.5999756
1555.083048	662.2000122
1555.596308	662.4000244
1556.109514	664.4000244
1556.622665	661.5999756
1557.135762	661.4000244
1557.648805	662.4000244
1558.161794	662.7999878
1558.674728	664.0
1559.187608	661.7999878
1559.700433	661.5999756
1560.213205	662.7999878
1560.725921	661.5999756
1561.238584	661.5999756
1561.751192	662.5999756
1562.263746	663.2000122
1562.776246	665.0
1563.288691	662.5999756
1563.801082	662.7999878
1564.313419	662.2000122
1564.825701	664.7999878
1565.337929	660.5999756
1565.850103	661.2000122
1566.362223	664.2000122
1566.874288	667.4000244
1567.386299	660.4000244
1567.898256	665.2000122
1568.410158	664.2000122
1568.922007	664.0
1569.4338	664.5999756
1569.94554	663.2000122
1570.457226	662.4000244
1570.968857	661.7999878
1571.480434	661.5999756
1571.991956	661.4000244
1572.503425	662.5999756
1573.014839	661.4000244
1573.526199	662.5999756
1574.037505	661.2000122
1574.548756	660.4000244
1575.059953	663.2000122
1575.571096	663.7999878
1576.082185	660.4000244
1576.59322	660.2000122
1577.1042	662.0
1577.615126	662.0
1578.125998	659.0
1578.636816	660.7999878
1579.14758	661.4000244
1579.658289	662.7999878
1580.168944	663.4000244
1580.679545	663.4000244
1581.190092	658.7999878
1581.700585	660.7999878
1582.211023	662.4000244
1582.721407	662.4000244
1583.231737	665.7999878
1583.742013	660.7999878
1584.252235	663.0
1584.762403	660.4000244
1585.272516	662.7999878
1585.782575	661.5999756
1586.292581	661.4000244
1586.802532	662.0
1587.312428	661.5999756
1587.822271	664.0
1588.33206	660.4000244
1588.841794	662.0
1589.351474	660.2000122
1589.8611	662.0
1590.370672	661.0
1590.88019	661.5999756
1591.389654	661.7999878
1591.899064	661.2000122
1592.408419	660.7999878
