1042.452273	690.2000122
1043.018714	682.7999878
1043.585098	684.7999878
1044.151424	686.4000244
1044.717692	680.7999878
1045.283903	681.7999878
1045.850056	679.5999756
1046.416151	678.5999756
1046.982188	681.5999756
1047.548167	676.2000122
1048.114089	674.5999756
1048.679953	677.0
1049.24576	674.4000244
1049.811509	672.2000122
1050.3772	673.2000122
1050.942833	673.4000244
1051.508408	673.0
1052.073926	674.4000244
1052.639387	672.4000244
1053.204789	672.2000122
1053.770134	672.5999756
1054.335421	672.4000244
1054.900651	669.2000122
1055.465823	671.5999756
1056.030937	669.5999756
1056.595993	668.7999878
1057.160992	667.2000122
1057.725934	670.5999756
1058.290817	668.5999756
1058.855643	671.5999756
1059.420411	665.2000122
1059.985122	667.5999756
1060.549775	667.2000122
1061.114371	668.0
1061.678908	668.2000122
1062.243389	665.5999756
1062.807811	665.5999756
1063.372176	666.2000122
1063.936483	667.0
1064.500733	665.4000244
1065.064925	667.5999756
1065.62906	665.5999756
1066.193137	667.4000244
1066.757156	663.7999878
1067.321118	666.0
1067.885022	667.2000122
1068.448869	665.0
1069.012658	664.2000122
1069.57639	666.7999878
1070.140063	673.5999756
1070.70368	666.7999878
1071.267239	665.4000244
1071.83074	666.7999878
1072.394184	666.0
1072.95757	664.5999756
1073.520899	666.2000122
1074.08417	665.7999878
1074.647383	663.4000244
1075.21054	665.7999878
1075.773638	665.4000244
1076.336679	666.4000244
1076.899663	667.7999878
1077.462589	663.4000244
1078.025457	667.5999756
1078.588268	666.2000122
1079.151022	662.4000244
1079.713718	665.4000244
1080.276356	667.0
1080.838937	665.0
1081.401461	666.0
1081.963927	667.4000244
1082.526336	665.7999878
1083.088687	663.0
1083.650981	664.5999756
1084.213217	664.4000244
1084.775396	665.4000244
1085.337517	666.2000122
1085.899581	664.7999878
1086.461587	665.4000244
1087.023536	665.7999878
1087.585428	665.5999756
1088.147262	665.5999756
1088.709039	664.2000122
1089.270758	664.7999878
1089.83242	662.5999756
1090.394024	664.4000244
1090.955571	663.7999878
1091.517061	664.2000122
1092.078493	663.0
1092.639868	665.7999878
1093.201185	664.7999878
1093.762445	663.0
1094.323648	664.7999878
1094.884793	665.4000244
1095.445881	664.4000244
1096.006911	665.4000244
1096.567884	668.7999878
1097.1288	669.0
1097.689659	664.7999878
1098.25046	663.7999878
1098.811203	664.0
1099.37189	664.2000122
1099.932518	664.4000244
1100.49309	665.2000122
1101.053604	664.2000122
1101.614061	662.5999756
1102.174461	666.5999756
1102.734803	662.2000122
1103.295088	665.4000244
1103.855316	662.5999756
1104.415486	663.5999756
1104.975599	664.0
1105.535655	662.7999878
1106.095653	665.7999878
1106.655594	666.0
1107.215478	667.0
1107.775305	661.2000122
1108.335074	663.4000244
1108.894786	664.4000244
1109.45444	665.0
1110.014038	662.4000244
1110.573578	666.4000244
1111.133061	663.7999878
1111.692486	663.0
1112.251854	663.5999756
1112.811165	668.2000122
1113.370419	662.4000244
1113.929616	663.5999756
1114.488755	664.7999878
1115.047837	663.4000244
1115.606862	665.4000244
1116.16583	664.4000244
1116.72474	664.5999756
1117.283593	666.7999878
1117.842389	662.0
1118.401128	664.2000122
1118.959809	664.2000122
1119.518433	665.0
1120.077	663.2000122
1120.63551	665.5999756
1121.193963	664.0
1121.752358	664.5999756
1122.310697	662.7999878
1122.868978	663.0
1123.427202	663.0
1123.985368	663.7999878
1124.543478	662.4000244
1125.10153	666.2000122
1125.659526	664.5999756
1126.217464	663.2000122
1126.775345	663.2000122
1127.333168	665.2000122
1127.890935	664.0
1128.448644	663.0
1129.006297	662.7999878
1129.563892	662.7999878
1130.12143	661.2000122
1130.678911	665.4000244
1131.236335	664.7999878
1131.793701	664.5999756
1132.351011	664.0
1132.908263	662.4000244
1133.465458	664.7999878
1134.022597	662.7999878
1134.579678	663.7999878
1135.136702	661.4000244
1135.693669	664.4000244
1136.250578	663.5999756
1136.807431	665.5999756
1137.364227	666.2000122
1137.920965	664.7999878
1138.477647	661.0
1139.034271	664.5999756
1139.590839	665.2000122
1140.147349	663.0
1140.703802	660.7999878
1141.260198	661.4000244
1141.816537	664.2000122
1142.37282	661.2000122
1142.929045	662.0
1143.485213	663.4000244
1144.041323	663.5999756
1144.597377	664.4000244
1145.153374	663.5999756
1145.709314	664.7999878
1146.265197	664.4000244
1146.821023	661.2000122
1147.376792	663.7999878
1147.932503	663.7999878
1148.488158	662.4000244
1149.043756	663.0
1149.599297	664.4000244
1150.154781	664.4000244
1150.710207	666.2000122
1151.265577	661.4000244
1151.82089	663.4000244
1152.376146	662.0
1152.931345	663.0
1153.486487	664.2000122
1154.041572	664.0
1154.5966	661.5999756
1155.151571	663.7999878
1155.706485	664.0
1156.261342	662.7999878
1156.816142	663.4000244
1157.370885	665.0
1157.925572	663.4000244
1158.480201	662.7999878
1159.034774	662.5999756
1159.589289	662.5999756
1160.143748	663.0
1160.698149	663.5999756
1161.252494	662.7999878
1161.806782	663.5999756
1162.361013	668.0
1162.915187	664.4000244
1163.469304	662.7999878
1164.023364	663.5999756
1164.577368	662.5999756
1165.131314	663.7999878
1165.685204	664.4000244
1166.239036	664.5999756
1166.792812	662.2000122
1167.346531	662.5999756
1167.900193	664.7999878
1168.453798	664.0
1169.007347	662.0
1169.560838	666.5999756
1170.114273	663.4000244
1170.66765	663.5999756
1171.220971	666.2000122
1171.774235	663.0
1172.327443	664.5999756
1172.880593	661.5999756
1173.433687	665.2000122
1173.986723	662.5999756
1174.539703	666.0
1175.092626	663.7999878
1175.645493	662.0
1176.198302	661.7999878
1176.751055	663.4000244
1177.303751	665.4000244
1177.85639	662.0
1178.408972	662.5999756
1178.961498	662.0
1179.513966	664.2000122
1180.066378	660.0
1180.618733	665.2000122
1181.171032	661.4000244
1181.723273	662.0
1182.275458	664.0
1182.827586	661.2000122
1183.379657	661.7999878
1183.931672	662.5999756
1184.48363	664.5999756
1185.035531	664.2000122
1185.587375	660.5999756
1186.139162	663.4000244
1186.690893	662.4000244
1187.242567	661.4000244
1187.794184	660.7999878
1188.345745	661.0
1188.897249	666.4000244
1189.448696	660.5999756
1190.000086	665.0
1190.55142	662.4000244
1191.102697	661.5999756
1191.653918	664.0
1192.205081	662.0
1192.756188	662.7999878
1193.307238	684.7999878
1193.858232	664.2000122
1194.409169	660.5999756
1194.960049	663.4000244
1195.510872	663.5999756
1196.061639	663.4000244
1196.612349	664.4000244
1197.163003	665.7999878
1197.713599	664.5999756
1198.264139	662.7999878
1198.814623	662.7999878
1199.36505	663.2000122
1199.91542	662.0
1200.465734	664.2000122
1201.01599	663.4000244
1201.566191	665.0
1202.116334	663.0
1202.666421	665.5999756
1203.216452	663.5999756
1203.766425	663.2000122
1204.316343	660.2000122
1204.866203	663.7999878
1205.416007	665.4000244
1205.965754	663.0
1206.515445	662.4000244
1207.065079	664.0
1207.614657	663.4000244
1208.164177	662.2000122
1208.713642	665.0
1209.26305	664.5999756
1209.812401	663.2000122
1210.361695	664.7999878
1210.910933	662.2000122
1211.460115	662.7999878
1212.00924	666.5999756
1212.558308	663.2000122
1213.10732	667.4000244
1213.656275	663.5999756
1214.205174	666.2000122
1214.754016	663.2000122
1215.302801	663.4000244
1215.85153	663.7999878
1216.400203	661.4000244
1216.948819	662.7999878
1217.497378	665.2000122
1218.045881	662.5999756
1218.594327	664.0
1219.142717	664.4000244
1219.691051	666.0
1220.239327	666.0
1220.787548	661.7999878
1221.335712	663.5999756
1221.883819	666.0
1222.43187	662.5999756
1222.979864	665.5999756
1223.527802	665.2000122
1224.075683	666.5999756
1224.623508	662.4000244
1225.171277	666.4000244
1225.718989	663.7999878
1226.266644	666.7999878
1226.814243	665.0
1227.361786	665.7999878
1227.909272	666.4000244
1228.456702	665.4000244
1229.004075	663.0
1229.551392	665.2000122
1230.098652	665.5999756
1230.645856	666.7999878
1231.193003	665.4000244
1231.740094	668.0
1232.287129	666.7999878
1232.834107	667.0
1233.381029	667.2000122
1233.927894	666.7999878
1234.474703	666.5999756
1235.021455	664.4000244
1235.568151	666.2000122
1236.114791	665.5999756
1236.661374	665.4000244
1237.207901	663.2000122
1237.754372	667.0
1238.300786	665.0
1238.847144	667.4000244
1239.393445	666.0
1239.93969	665.7999878
1240.485879	668.0
1241.032011	665.2000122
1241.578087	669.4000244
1242.124106	664.7999878
1242.67007	666.0
1243.215976	665.2000122
1243.761827	667.5999756
1244.307621	666.2000122
1244.853359	669.2000122
1245.39904	668.2000122
1245.944665	665.0
1246.490234	667.4000244
1247.035746	667.2000122
1247.581203	667.7999878
1248.126602	667.4000244
1248.671946	670.7999878
1249.217233	669.7999878
1249.762464	667.5999756
1250.307638	666.4000244
1250.852757	671.0
1251.397819	665.7999878
1251.942824	667.5999756
1252.487774	673.0
1253.032667	668.4000244
1253.577503	671.0
1254.122284	673.4000244
1254.667008	668.7999878
1255.211676	668.5999756
1255.756288	670.5999756
1256.300843	670.5999756
1256.845342	674.4000244
1257.389785	675.7999878
1257.934172	674.4000244
1258.478502	680.7999878
1259.022776	677.4000244
1259.566994	676.2000122
1260.111156	695.7999878
1260.655261	682.2000122
1261.199311	685.7999878
1261.743304	694.4000244
1262.28724	702.0
1262.831121	703.7999878
1263.374945	707.4000244
1263.918713	706.4000244
1264.462425	696.7999878
1265.006081	690.4000244
1265.54968	690.7999878
1266.093223	677.7999878
1266.636711	680.0
1267.180141	682.0
1267.723516	676.0
1268.266835	678.5999756
1268.810097	675.5999756
1269.353303	678.4000244
1269.896453	677.5999756
1270.439547	678.2000122
1270.982584	678.0
1271.525566	679.2000122
1272.068491	677.2000122
1272.61136	679.7999878
1273.154173	676.0
1273.69693	677.2000122
1274.239631	679.2000122
1274.782275	678.7999878
1275.324864	679.7999878
1275.867396	682.2000122
1276.409872	675.7999878
1276.952292	684.5999756
1277.494656	684.2000122
1278.036964	684.7999878
1278.579215	691.0
1279.121411	694.0
1279.66355	699.5999756
1280.205634	710.0
1280.747661	729.0
1281.289632	776.5999756
1281.831547	866.0
1282.373406	1048.199951
1282.915209	1274.599976
1283.456955	1384.800049
1283.998646	1217.0
1284.540281	1001.400024
1285.081859	843.5999756
1285.623381	761.0
1286.164848	729.2000122
1286.706258	714.2000122
1287.247612	700.7999878
1287.788911	693.7999878
1288.330153	687.5999756
1288.871339	685.2000122
1289.412469	683.5999756
1289.953543	682.2000122
1290.494561	681.5999756
1291.035523	681.2000122
1291.576428	680.0
1292.117278	676.2000122
1292.658072	675.2000122
1293.19881	680.0
1293.739492	674.5999756
1294.280118	676.2000122
1294.820687	674.5999756
1295.361201	675.5999756
1295.901659	676.4000244
1296.442061	674.7999878
1296.982406	675.2000122
1297.522696	674.7999878
1298.06293	673.5999756
1298.603108	674.0
1299.143229	675.0
1299.683295	672.7999878
1300.223305	672.7999878
1300.763259	674.4000244
1301.303157	672.7999878
1301.842999	671.0
1302.382785	672.4000244
1302.922515	673.2000122
1303.462189	672.2000122
1304.001807	669.7999878
1304.541369	672.5999756
1305.080875	670.7999878
1305.620326	670.5999756
1306.15972	672.0
1306.699058	669.4000244
1307.238341	668.0
1307.777567	670.4000244
1308.316738	670.4000244
1308.855853	667.5999756
1309.394912	671.2000122
1309.933915	673.2000122
1310.472862	669.7999878
1311.011753	668.7999878
1311.550588	669.2000122
1312.089367	669.2000122
1312.62809	666.7999878
1313.166758	667.5999756
1313.70537	672.5999756
1314.243925	669.0
1314.782425	669.5999756
1315.320869	671.7999878
1315.859257	667.2000122
1316.397589	670.5999756
1316.935866	669.5999756
1317.474086	667.5999756
1318.012251	667.5999756
1318.55036	672.2000122
1319.088413	669.4000244
1319.62641	664.2000122
1320.164351	666.7999878
1320.702236	668.0
1321.240066	668.2000122
1321.777839	668.7999878
1322.315557	669.5999756
1322.853219	667.5999756
1323.390826	668.4000244
1323.928376	673.7999878
1324.465871	667.7999878
1325.003309	666.0
1325.540692	668.4000244
1326.07802	668.5999756
1326.615291	670.2000122
1327.152506	670.5999756
1327.689666	667.7999878
1328.22677	668.7999878
1328.763818	670.0
1329.300811	669.5999756
1329.837747	666.2000122
1330.374628	668.0
1330.911453	667.4000244
1331.448222	669.0
1331.984936	669.4000244
1332.521594	668.2000122
1333.058196	668.7999878
1333.594742	671.4000244
1334.131232	666.4000244
1334.667667	668.0
1335.204046	670.7999878
1335.740369	665.7999878
1336.276637	669.0
1336.812848	669.7999878
1337.349004	668.0
1337.885105	667.0
1338.421149	666.0
1338.957138	666.7999878
1339.493071	669.5999756
1340.028949	669.2000122
1340.56477	670.4000244
1341.100536	669.4000244
1341.636246	668.0
1342.171901	671.5999756
1342.7075	669.4000244
1343.243043	670.5999756
1343.77853	672.4000244
1344.313962	667.2000122
1344.849338	668.7999878
1345.384659	668.4000244
1345.919923	671.7999878
1346.455133	669.2000122
1346.990286	670.0
1347.525384	672.2000122
1348.060426	668.2000122
1348.595412	671.4000244
1349.130343	670.0
1349.665218	670.0
1350.200037	668.0
1350.734801	667.2000122
1351.269509	668.0
1351.804162	668.0
1352.338758	667.5999756
1352.8733	668.7999878
1353.407785	669.4000244
1353.942215	668.7999878
1354.476589	668.7999878
1355.010908	671.0
1355.545171	669.7999878
1356.079379	670.2000122
1356.61353	670.2000122
1357.147627	668.5999756
1357.681667	668.5999756
1358.215652	671.2000122
1358.749582	672.0
1359.283456	669.5999756
1359.817274	673.7999878
1360.351037	670.2000122
1360.884744	671.5999756
1361.418395	669.4000244
1361.951991	672.4000244
1362.485531	674.2000122
1363.019016	670.5999756
1363.552445	672.5999756
1364.085819	674.7999878
1364.619137	674.4000244
1365.1524	677.5999756
1365.685607	672.4000244
1366.218758	674.0
1366.751854	675.5999756
1367.284894	672.0
1367.817879	675.0
1368.350808	673.7999878
1368.883682	679.2000122
1369.4165	692.0
1369.949263	711.0
1370.48197	687.0
1371.014622	677.4000244
1371.547218	677.5999756
1372.079758	677.0
1372.612244	679.5999756
1373.144673	676.0
1373.677047	676.5999756
1374.209366	678.4000244
1374.741629	679.0
1375.273836	677.7999878
1375.805989	679.4000244
1376.338085	679.7999878
1376.870126	677.5999756
1377.402112	679.7999878
1377.934042	681.4000244
1378.465917	686.5999756
1378.997736	681.7999878
1379.5295	685.5999756
1380.061208	688.7999878
1380.592861	687.7999878
1381.124459	689.7999878
1381.656	694.5999756
1382.187487	694.4000244
1382.718918	702.2000122
1383.250294	710.2000122
1383.781614	717.2000122
1384.312879	731.0
1384.844088	748.5999756
1385.375242	785.5999756
1385.90634	864.0
1386.437383	1058.800049
1386.968371	1475.199951
1387.499303	2055.199951
1388.03018	1981.0
1388.561001	1381.400024
1389.091767	986.7999878
1389.622478	825.5999756
1390.153133	771.5999756
1390.683733	732.4000244
1391.214277	718.5999756
1391.744766	705.4000244
1392.2752	699.2000122
1392.805578	697.4000244
1393.335901	692.4000244
1393.866168	692.5999756
1394.396381	685.2000122
1394.926537	685.7999878
1395.456639	684.5999756
1395.986685	687.5999756
1396.516675	682.5999756
1397.046611	685.0
1397.576491	682.7999878
1398.106315	679.2000122
1398.636084	679.4000244
1399.165798	681.2000122
1399.695457	679.4000244
1400.22506	679.5999756
1400.754608	675.5999756
1401.284101	679.7999878
1401.813538	681.2000122
1402.34292	680.0
1402.872247	679.7999878
1403.401518	681.5999756
1403.930734	682.5999756
1404.459895	681.4000244
1404.989	683.5999756
1405.51805	687.0
1406.047045	688.7999878
1406.575984	694.2000122
1407.104869	701.2000122
1407.633697	705.5999756
1408.162471	721.5999756
1408.691189	725.4000244
1409.219852	733.2000122
1409.74846	733.0
1410.277013	714.7999878
1410.80551	703.0
1411.333952	692.7999878
1411.862339	686.5999756
1412.39067	683.4000244
1412.918946	678.0
1413.447167	678.0
1413.975333	676.5999756
1414.503444	672.7999878
1415.031499	671.2000122
1415.559499	683.7999878
1416.087444	671.5999756
1416.615333	669.5999756
1417.143167	672.2000122
1417.670947	669.7999878
1418.19867	669.2000122
1418.726339	668.7999878
1419.253952	669.2000122
1419.781511	668.5999756
1420.309014	670.7999878
1420.836461	691.2000122
1421.891191	669.2000122
1422.418474	668.7999878
1422.945701	668.0
1423.472872	668.5999756
1423.999989	671.2000122
1424.52705	668.0
1425.054057	670.0
1425.581008	668.4000244
1426.107904	667.0
1426.634745	667.4000244
1427.16153	665.7999878
1427.688261	665.4000244
1428.214936	663.7999878
1428.741556	667.2000122
1429.268121	667.5999756
1429.794631	667.7999878
1430.321085	666.7999878
1430.847485	667.5999756
1431.373829	667.2000122
1431.900118	665.2000122
1432.426353	662.0
1432.952532	664.4000244
1433.478655	664.4000244
1434.004724	664.2000122
1434.530738	664.2000122
1435.056696	667.4000244
1435.5826	665.0
1436.108448	666.0
1436.634241	666.4000244
1437.159979	663.5999756
1437.685662	662.7999878
1438.21129	665.2000122
1438.736863	666.0
1439.262381	664.7999878
1439.787843	663.5999756
1440.313251	663.0
1440.838603	669.2000122
1441.3639	663.7999878
1441.889143	664.7999878
1442.41433	664.4000244
1442.939462	664.5999756
1443.464539	666.7999878
1443.989561	662.4000244
1444.514528	661.5999756
1445.03944	664.4000244
1445.564297	663.5999756
1446.089099	661.0
1446.613846	662.5999756
1447.138537	664.0
1447.663174	662.0
1448.187756	664.0
1448.712282	663.5999756
1449.236754	661.7999878
1449.761171	662.4000244
1450.285532	663.2000122
1450.809839	663.2000122
1451.33409	663.0
1451.858287	663.0
1452.382428	662.7999878
1452.906515	662.7999878
1453.430546	661.0
1453.954523	660.2000122
1454.478444	663.4000244
1455.002311	660.5999756
1455.526123	660.5999756
1456.049879	661.0
1456.573581	664.4000244
1457.097227	662.5999756
1457.620819	661.2000122
1458.144356	664.7999878
1458.667837	663.0
1459.191264	661.0
1459.714636	663.5999756
1460.237952	662.5999756
1460.761214	662.4000244
1461.284421	665.2000122
1461.807573	660.2000122
1462.33067	663.0
1462.853712	663.7999878
1463.376699	664.4000244
1463.899632	663.7999878
1464.422509	664.2000122
1464.945331	659.4000244
1465.468099	661.5999756
1465.990811	662.4000244
1466.513469	662.2000122
1467.036071	659.5999756
1467.558619	662.4000244
1468.081112	663.0
1468.60355	661.4000244
1469.125933	662.5999756
1469.648261	660.4000244
1470.170534	663.4000244
1470.692752	660.4000244
1471.214916	662.2000122
1471.737024	663.2000122
1472.259078	662.5999756
1472.781077	662.7999878
1473.303021	660.0
1473.82491	660.7999878
1474.346744	663.5999756
1474.868523	661.7999878
1475.390248	662.4000244
1475.911917	663.5999756
1476.433532	659.7999878
1476.955092	662.5999756
1477.476597	662.2000122
1477.998047	662.0
1478.519442	663.5999756
1479.040783	658.7999878
1479.562068	663.2000122
1480.083299	660.2000122
1480.604475	661.4000244
1481.125596	661.4000244
1481.646663	656.2000122
1482.167674	660.2000122
1482.688631	660.2000122
1483.209533	660.4000244
1483.73038	660.2000122
1484.251172	662.5999756
1484.771909	661.4000244
1485.292592	661.0
1485.81322	662.7999878
1486.333793	659.0
1486.854311	660.0
1487.374775	661.4000244
1487.895183	659.7999878
1488.415537	660.2000122
1488.935836	658.2000122
1489.456081	661.5999756
1489.97627	658.2000122
1490.496405	663.2000122
1491.016485	662.0
1491.536511	662.0
1492.056481	659.7999878
1492.576397	658.2000122
1493.096258	660.7999878
1493.616064	659.5999756
1494.135816	660.2000122
1494.655513	659.0
1495.175155	661.4000244
1495.694742	661.5999756
1496.214274	660.7999878
1496.733752	659.4000244
1497.253175	659.7999878
1497.772544	658.0
1498.291858	659.4000244
1498.811116	660.7999878
1499.330321	661.5999756
1499.84947	668.4000244
1500.368565	661.0
1500.887605	659.4000244
1501.406591	660.0
1501.925521	658.0
1502.444397	662.5999756
1502.963219	660.5999756
1503.481985	661.2000122
1504.000697	662.4000244
1504.519355	660.2000122
1505.037957	660.7999878
1505.556505	662.4000244
1506.074999	661.4000244
1506.593437	661.5999756
1507.111821	658.5999756
1507.63015	660.5999756
1508.148425	656.0
1508.666645	661.2000122
1509.18481	661.7999878
1509.702921	661.2000122
1510.220977	660.5999756
1510.738979	667.7999878
1511.256925	658.7999878
1511.774817	659.2000122
1512.292655	662.5999756
1512.810438	662.0
1513.328166	659.2000122
1513.84584	661.0
1514.363459	659.0
1514.881023	660.4000244
1515.398533	662.2000122
1515.915988	660.0
1516.433389	659.7999878
1516.950734	659.4000244
1517.468026	661.2000122
1517.985263	660.2000122
1518.502445	661.7999878
1519.019572	658.5999756
1519.536645	657.5999756
1520.053664	660.4000244
1520.570628	660.5999756
1521.087537	658.7999878
1521.604392	661.5999756
1522.121192	657.2000122
1522.637937	658.7999878
1523.154628	658.7999878
1523.671265	658.5999756
1524.187847	661.4000244
1524.704374	659.7999878
1525.220847	662.0
1525.737265	659.5999756
1526.253629	662.5999756
1526.769938	661.4000244
1527.286192	660.7999878
1527.802392	661.0
1528.318538	659.2000122
1528.834629	657.7999878
1529.350666	661.7999878
1529.866648	660.5999756
1530.382575	660.0
1530.898448	660.2000122
1531.414266	659.5999756
1531.93003	662.5999756
1532.44574	662.4000244
1532.961395	660.2000122
1533.476995	661.2000122
1533.992541	660.7999878
1534.508033	658.5999756
1535.02347	659.7999878
1535.538852	660.7999878
1536.05418	660.7999878
1536.569454	658.0
1537.084673	657.0
1537.599837	658.4000244
1538.114947	659.4000244
1538.630003	659.7999878
1539.145004	658.5999756
1539.659951	661.2000122
1540.174843	661.2000122
1540.689681	662.5999756
1541.204465	660.0
1541.719194	662.5999756
1542.233868	663.0
1542.748488	658.5999756
1543.263054	658.7999878
1543.777565	658.7999878
1544.292022	661.5999756
1544.806424	660.0
1545.320772	662.0
1545.835066	658.0
1546.349305	659.5999756
1546.863489	659.2000122
1547.37762	656.4000244
1547.891696	659.2000122
1548.405717	661.4000244
1548.919684	658.7999878
1549.433597	659.0
1549.947455	663.0
1550.461259	659.7999878
1550.975009	660.4000244
1551.488704	657.7999878
1552.002345	660.4000244
1552.515931	661.0
1553.029463	658.5999756
1553.542941	658.4000244
1554.056364	659.4000244
1554.569733	658.7999878
1555.083048	659.5999756
1555.596308	660.7999878
1556.109514	660.5999756
1556.622665	660.5999756
1557.135762	659.7999878
1557.648805	659.2000122
1558.161794	659.4000244
1558.674728	657.7999878
1559.187608	659.0
1559.700433	660.2000122
1560.213205	658.2000122
1560.725921	659.4000244
1561.238584	661.4000244
1561.751192	660.5999756
1562.263746	658.2000122
1562.776246	661.4000244
1563.288691	661.5999756
1563.801082	662.0
1564.313419	660.0
1564.825701	659.2000122
1565.337929	661.0
1565.850103	662.2000122
1566.362223	664.2000122
1566.874288	659.4000244
1567.386299	660.5999756
1567.898256	659.7999878
1568.410158	662.0
1568.922007	662.4000244
1569.4338	660.5999756
1569.94554	656.0
1570.457226	661.0
1570.968857	658.5999756
1571.480434	659.2000122
1571.991956	660.0
1572.503425	661.7999878
1573.014839	659.4000244
1573.526199	659.2000122
1574.037505	660.0
1574.548756	659.2000122
1575.059953	660.5999756
1575.571096	659.0
1576.082185	661.4000244
1576.59322	661.5999756
1577.1042	658.7999878
1577.615126	657.5999756
1578.125998	659.2000122
1578.636816	659.4000244
1579.14758	660.0
1579.658289	659.2000122
1580.168944	659.4000244
1580.679545	662.0
1581.190092	659.4000244
1581.700585	661.4000244
1582.211023	661.0
1582.721407	656.0
1583.231737	659.2000122
1583.742013	659.4000244
1584.252235	658.7999878
1584.762403	658.2000122
1585.272516	659.4000244
1585.782575	659.4000244
1586.292581	663.5999756
1586.802532	661.0
1587.312428	660.0
1587.822271	659.0
1588.33206	661.2000122
1588.841794	660.2000122
1589.351474	659.4000244
1589.8611	658.5999756
1590.370672	660.4000244
1590.88019	659.7999878
1591.389654	658.0
1591.899064	659.4000244
1592.408419	657.2000122
