1042.452273	689.2000122
1043.018714	685.2000122
1043.585098	687.2000122
1044.151424	684.7999878
1044.717692	683.4000244
1045.283903	682.5999756
1045.850056	680.0
1046.416151	679.2000122
1046.982188	681.2000122
1047.548167	676.0
1048.114089	678.4000244
1048.679953	672.7999878
1049.24576	674.7999878
1049.811509	678.2000122
1050.3772	674.2000122
1050.942833	672.4000244
1051.508408	673.4000244
1052.073926	673.4000244
1052.639387	669.7999878
1053.204789	676.0
1053.770134	671.4000244
1054.335421	673.5999756
1054.900651	672.7999878
1055.465823	671.5999756
1056.030937	666.2000122
1056.595993	670.5999756
1057.160992	667.2000122
1057.725934	669.7999878
1058.290817	669.5999756
1058.855643	668.5999756
1059.420411	665.7999878
1059.985122	668.5999756
1060.549775	667.2000122
1061.114371	667.7999878
1061.678908	667.2000122
1062.243389	665.5999756
1062.807811	667.2000122
1063.372176	670.4000244
1063.936483	665.4000244
1064.500733	667.4000244
1065.064925	667.7999878
1065.62906	668.2000122
1066.193137	666.7999878
1066.757156	665.7999878
1067.321118	663.5999756
1067.885022	665.0
1068.448869	664.5999756
1069.012658	666.7999878
1069.57639	667.4000244
1070.140063	674.2000122
1070.70368	664.0
1071.267239	666.7999878
1071.83074	664.0
1072.394184	665.4000244
1072.95757	664.2000122
1073.520899	664.7999878
1074.08417	664.7999878
1074.647383	664.7999878
1075.21054	664.2000122
1075.773638	665.7999878
1076.336679	664.5999756
1076.899663	665.4000244
1077.462589	662.2000122
1078.025457	664.7999878
1078.588268	667.2000122
1079.151022	666.2000122
1079.713718	666.0
1080.276356	664.0
1080.838937	663.4000244
1081.401461	662.4000244
1081.963927	664.4000244
1082.526336	666.7999878
1083.088687	663.4000244
1083.650981	662.0
1084.213217	666.2000122
1084.775396	666.0
1085.337517	663.0
1085.899581	663.5999756
1086.461587	663.4000244
1087.023536	665.5999756
1087.585428	666.2000122
1088.147262	666.2000122
1088.709039	664.7999878
1089.270758	665.7999878
1089.83242	663.7999878
1090.394024	664.5999756
1090.955571	665.4000244
1091.517061	665.2000122
1092.078493	661.7999878
1092.639868	665.0
1093.201185	666.7999878
1093.762445	663.7999878
1094.323648	665.4000244
1094.884793	662.2000122
1095.445881	665.2000122
1096.006911	666.0
1096.567884	662.2000122
1097.1288	673.4000244
1097.689659	663.4000244
1098.25046	664.7999878
1098.811203	664.7999878
1099.37189	663.0
1099.932518	663.7999878
1100.49309	665.4000244
1101.053604	666.0
1101.614061	666.4000244
1102.174461	662.5999756
1102.734803	663.5999756
1103.295088	665.5999756
1103.855316	664.5999756
1104.415486	661.7999878
1104.975599	663.4000244
1105.535655	666.4000244
1106.095653	663.5999756
1106.655594	663.0
1107.215478	663.5999756
1107.775305	664.0
1108.335074	663.0
1108.894786	661.2000122
1109.45444	665.2000122
1110.014038	663.7999878
1110.573578	666.2000122
1111.133061	665.4000244
1111.692486	662.7999878
1112.251854	665.7999878
1112.811165	663.2000122
1113.370419	663.0
1113.929616	665.7999878
1114.488755	662.2000122
1115.047837	663.0
1115.606862	661.4000244
1116.16583	665.7999878
1116.72474	664.5999756
1117.283593	665.7999878
1117.842389	662.0
1118.401128	665.5999756
1118.959809	662.4000244
1119.518433	662.7999878
1120.077	665.0
1120.63551	665.5999756
1121.193963	663.0
1121.752358	662.7999878
1122.310697	664.0
1122.868978	662.2000122
1123.427202	665.2000122
1123.985368	663.7999878
1124.543478	659.4000244
1125.10153	665.4000244
1125.659526	662.4000244
1126.217464	664.4000244
1126.775345	662.2000122
1127.333168	664.7999878
1127.890935	664.4000244
1128.448644	661.7999878
1129.006297	663.2000122
1129.563892	661.2000122
1130.12143	664.5999756
1130.678911	663.4000244
1131.236335	663.2000122
1131.793701	663.7999878
1132.351011	663.7999878
1132.908263	660.7999878
1133.465458	663.4000244
1134.022597	662.4000244
1134.579678	663.0
1135.136702	663.2000122
1135.693669	663.4000244
1136.250578	663.4000244
1136.807431	666.7999878
1137.364227	665.4000244
1137.920965	663.2000122
1138.477647	664.7999878
1139.034271	664.4000244
1139.590839	662.7999878
1140.147349	661.7999878
1140.703802	665.4000244
1141.260198	663.2000122
1141.816537	663.7999878
1142.37282	664.4000244
1142.929045	665.7999878
1143.485213	665.4000244
1144.041323	665.0
1144.597377	666.2000122
1145.153374	662.5999756
1145.709314	662.0
1146.265197	662.7999878
1146.821023	664.7999878
1147.376792	665.5999756
1147.932503	662.7999878
1148.488158	665.2000122
1149.043756	665.7999878
1149.599297	666.0
1150.154781	671.2000122
1150.710207	666.7999878
1151.265577	666.0
1151.82089	664.5999756
1152.376146	664.2000122
1152.931345	662.5999756
1153.486487	663.7999878
1154.041572	664.4000244
1154.5966	666.7999878
1155.151571	664.2000122
1155.706485	662.4000244
1156.261342	661.4000244
1156.816142	661.5999756
1157.370885	662.4000244
1157.925572	664.2000122
1158.480201	663.0
1159.034774	664.2000122
1159.589289	664.5999756
1160.143748	664.2000122
1160.698149	662.5999756
1161.252494	663.2000122
1161.806782	663.0
1162.361013	664.7999878
1162.915187	665.2000122
1163.469304	663.7999878
1164.023364	661.5999756
1164.577368	662.7999878
1165.131314	663.7999878
1165.685204	661.5999756
1166.239036	664.5999756
1166.792812	663.2000122
1167.346531	665.5999756
1167.900193	665.2000122
1168.453798	660.4000244
1169.007347	663.4000244
1169.560838	661.5999756
1170.114273	663.4000244
1170.66765	663.7999878
1171.220971	662.0
1171.774235	663.5999756
1172.327443	662.4000244
1172.880593	664.2000122
1173.433687	664.5999756
1173.986723	664.0
1174.539703	664.2000122
1175.092626	664.2000122
1175.645493	664.0
1176.198302	665.4000244
1176.751055	665.0
1177.303751	663.5999756
1177.85639	663.7999878
1178.408972	662.5999756
1178.961498	663.7999878
1179.513966	664.4000244
1180.066378	662.7999878
1180.618733	664.5999756
1181.171032	663.4000244
1181.723273	662.0
1182.275458	663.7999878
1182.827586	663.7999878
1183.379657	662.0
1183.931672	662.7999878
1184.48363	663.4000244
1185.035531	665.4000244
1185.587375	665.2000122
1186.139162	662.4000244
1186.690893	663.0
1187.242567	660.7999878
1187.794184	664.4000244
1188.345745	666.0
1188.897249	663.4000244
1189.448696	661.7999878
1190.000086	664.5999756
1190.55142	663.0
1191.102697	661.7999878
1191.653918	666.0
1192.205081	661.0
1192.756188	663.5999756
1193.307238	684.4000244
1193.858232	665.0
1194.409169	661.7999878
1194.960049	664.7999878
1195.510872	660.7999878
1196.061639	659.0
1196.612349	663.7999878
1197.163003	663.4000244
1197.713599	660.4000244
1198.264139	663.5999756
1198.814623	665.2000122
1199.36505	662.5999756
1199.91542	665.2000122
1200.465734	666.7999878
1201.01599	663.2000122
1201.566191	661.2000122
1202.116334	663.0
1202.666421	663.4000244
1203.216452	662.4000244
1203.766425	661.7999878
1204.316343	661.7999878
1204.866203	662.7999878
1205.416007	661.5999756
1205.965754	663.7999878
1206.515445	663.2000122
1207.065079	667.2000122
1207.614657	661.7999878
1208.164177	663.2000122
1208.713642	663.2000122
1209.26305	663.0
1209.812401	664.5999756
1210.361695	664.2000122
1210.910933	662.5999756
1211.460115	665.2000122
1212.00924	663.7999878
1212.558308	664.7999878
1213.10732	667.5999756
1213.656275	663.0
1214.205174	662.4000244
1214.754016	662.7999878
1215.302801	663.4000244
1215.85153	663.5999756
1216.400203	665.7999878
1216.948819	663.7999878
1217.497378	665.0
1218.045881	666.0
1218.594327	665.5999756
1219.142717	664.0
1219.691051	665.0
1220.239327	666.0
1220.787548	663.7999878
1221.335712	663.4000244
1221.883819	665.5999756
1222.43187	664.4000244
1222.979864	665.7999878
1223.527802	663.2000122
1224.075683	665.5999756
1224.623508	666.0
1225.171277	666.0
1225.718989	666.5999756
1226.266644	665.4000244
1226.814243	667.7999878
1227.361786	663.0
1227.909272	664.7999878
1228.456702	666.0
1229.004075	666.7999878
1229.551392	664.4000244
1230.098652	667.0
1230.645856	664.5999756
1231.193003	665.0
1231.740094	666.2000122
1232.287129	667.0
1232.834107	666.0
1233.381029	667.4000244
1233.927894	663.5999756
1234.474703	667.0
1235.021455	666.2000122
1235.568151	663.5999756
1236.114791	666.2000122
1236.661374	667.2000122
1237.207901	664.0
1237.754372	662.7999878
1238.300786	665.5999756
1238.847144	664.5999756
1239.393445	669.2000122
1239.93969	664.2000122
1240.485879	668.0
1241.032011	665.2000122
1241.578087	666.5999756
1242.124106	666.0
1242.67007	665.2000122
1243.215976	668.5999756
1243.761827	670.0
1244.307621	666.7999878
1244.853359	670.2000122
1245.39904	670.4000244
1245.944665	669.2000122
1246.490234	666.0
1247.035746	666.7999878
1247.581203	668.2000122
1248.126602	669.4000244
1248.671946	668.0
1249.217233	666.5999756
1249.762464	669.7999878
1250.307638	667.0
1250.852757	670.7999878
1251.397819	669.0
1251.942824	668.0
1252.487774	669.0
1253.032667	669.4000244
1253.577503	670.2000122
1254.122284	670.0
1254.667008	667.7999878
1255.211676	670.7999878
1255.756288	670.5999756
1256.300843	672.5999756
1256.845342	671.4000244
1257.389785	674.0
1257.934172	679.7999878
1258.478502	675.5999756
1259.022776	680.0
1259.566994	680.4000244
1260.111156	699.5999756
1260.655261	682.7999878
1261.199311	689.0
1261.743304	687.7999878
1262.28724	698.7999878
1262.831121	703.7999878
1263.374945	705.2000122
1263.918713	705.7999878
1264.462425	697.0
1265.006081	689.4000244
1265.54968	685.7999878
1266.093223	679.7999878
1266.636711	682.2000122
1267.180141	679.0
1267.723516	678.7999878
1268.266835	678.2000122
1268.810097	671.2000122
1269.353303	679.2000122
1269.896453	677.2000122
1270.439547	677.2000122
1270.982584	678.0
1271.525566	677.0
1272.068491	676.0
1272.61136	676.7999878
1273.154173	675.7999878
1273.69693	678.4000244
1274.239631	675.2000122
1274.782275	677.7999878
1275.324864	676.4000244
1275.867396	676.4000244
1276.409872	682.2000122
1276.952292	685.2000122
1277.494656	683.4000244
1278.036964	685.2000122
1278.579215	687.2000122
1279.121411	692.0
1279.66355	701.4000244
1280.205634	709.4000244
1280.747661	732.0
1281.289632	771.5999756
1281.831547	865.5999756
1282.373406	1048.199951
1282.915209	1264.599976
1283.456955	1343.400024
1283.998646	1194.599976
1284.540281	980.5999756
1285.081859	829.5999756
1285.623381	764.2000122
1286.164848	724.4000244
1286.706258	705.4000244
1287.247612	699.2000122
1287.788911	691.2000122
1288.330153	684.2000122
1288.871339	682.0
1289.412469	683.0
1289.953543	682.5999756
1290.494561	682.4000244
1291.035523	679.4000244
1291.576428	679.2000122
1292.117278	680.2000122
1292.658072	674.7999878
1293.19881	677.7999878
1293.739492	679.2000122
1294.280118	674.4000244
1294.820687	674.7999878
1295.361201	675.2000122
1295.901659	676.4000244
1296.442061	673.5999756
1296.982406	675.4000244
1297.522696	674.5999756
1298.06293	672.2000122
1298.603108	672.4000244
1299.143229	674.5999756
1299.683295	671.5999756
1300.223305	674.2000122
1300.763259	671.7999878
1301.303157	673.2000122
1301.842999	675.7999878
1302.382785	675.2000122
1302.922515	670.4000244
1303.462189	672.2000122
1304.001807	671.0
1304.541369	668.5999756
1305.080875	670.7999878
1305.620326	670.2000122
1306.15972	672.7999878
1306.699058	670.2000122
1307.238341	666.7999878
1307.777567	668.5999756
1308.316738	669.2000122
1308.855853	671.5999756
1309.394912	669.0
1309.933915	670.7999878
1310.472862	671.0
1311.011753	667.4000244
1311.550588	670.5999756
1312.089367	668.0
1312.62809	670.4000244
1313.166758	665.0
1313.70537	670.7999878
1314.243925	671.0
1314.782425	668.5999756
1315.320869	669.5999756
1315.859257	666.4000244
1316.397589	668.4000244
1316.935866	668.2000122
1317.474086	669.7999878
1318.012251	666.0
1318.55036	669.5999756
1319.088413	669.2000122
1319.62641	669.0
1320.164351	669.4000244
1320.702236	671.2000122
1321.240066	669.0
1321.777839	668.5999756
1322.315557	667.2000122
1322.853219	668.7999878
1323.390826	668.7999878
1323.928376	671.4000244
1324.465871	668.5999756
1325.003309	668.2000122
1325.540692	667.5999756
1326.07802	666.0
1326.615291	669.2000122
1327.152506	666.5999756
1327.689666	670.5999756
1328.22677	667.4000244
1328.763818	668.4000244
1329.300811	667.2000122
1329.837747	668.4000244
1330.374628	667.7999878
1330.911453	671.0
1331.448222	670.5999756
1331.984936	668.0
1332.521594	669.5999756
1333.058196	666.4000244
1333.594742	669.4000244
1334.131232	663.2000122
1334.667667	670.2000122
1335.204046	670.0
1335.740369	669.0
1336.276637	669.2000122
1336.812848	668.4000244
1337.349004	670.2000122
1337.885105	666.7999878
1338.421149	667.5999756
1338.957138	667.7999878
1339.493071	669.4000244
1340.028949	669.4000244
1340.56477	670.5999756
1341.100536	668.0
1341.636246	669.4000244
1342.171901	670.0
1342.7075	667.2000122
1343.243043	671.2000122
1343.77853	670.0
1344.313962	669.0
1344.849338	667.4000244
1345.384659	669.4000244
1345.919923	669.0
1346.455133	667.5999756
1346.990286	669.2000122
1347.525384	668.7999878
1348.060426	670.2000122
1348.595412	668.4000244
1349.130343	669.2000122
1349.665218	669.2000122
1350.200037	668.5999756
1350.734801	668.4000244
1351.269509	666.0
1351.804162	669.4000244
1352.338758	669.0
1352.8733	670.7999878
1353.407785	670.7999878
1353.942215	667.5999756
1354.476589	669.7999878
1355.010908	671.2000122
1355.545171	668.5999756
1356.079379	672.2000122
1356.61353	669.0
1357.147627	671.2000122
1357.681667	669.5999756
1358.215652	670.4000244
1358.749582	674.0
1359.283456	671.0
1359.817274	669.7999878
1360.351037	668.5999756
1360.884744	672.7999878
1361.418395	668.5999756
1361.951991	671.7999878
1362.485531	674.4000244
1363.019016	674.7999878
1363.552445	668.5999756
1364.085819	674.7999878
1364.619137	673.4000244
1365.1524	677.5999756
1365.685607	675.0
1366.218758	673.5999756
1366.751854	672.5999756
1367.284894	672.5999756
1367.817879	675.5999756
1368.350808	675.4000244
1368.883682	679.4000244
1369.4165	691.7999878
1369.949263	703.4000244
1370.48197	691.2000122
1371.014622	679.5999756
1371.547218	675.4000244
1372.079758	678.4000244
1372.612244	677.4000244
1373.144673	676.7999878
1373.677047	674.7999878
1374.209366	676.4000244
1374.741629	678.5999756
1375.273836	680.5999756
1375.805989	679.0
1376.338085	678.7999878
1376.870126	679.7999878
1377.402112	679.5999756
1377.934042	680.4000244
1378.465917	678.4000244
1378.997736	681.0
1379.5295	683.0
1380.061208	686.7999878
1380.592861	685.2000122
1381.124459	693.4000244
1381.656	691.7999878
1382.187487	695.4000244
1382.718918	698.5999756
1383.250294	705.0
1383.781614	713.0
1384.312879	726.5999756
1384.844088	746.7999878
1385.375242	780.0
1385.90634	856.0
1386.437383	1042.800049
1386.968371	1462.599976
1387.499303	2017.0
1388.03018	1954.0
1388.561001	1345.400024
1389.091767	969.7999878
1389.622478	821.7999878
1390.153133	761.4000244
1390.683733	730.5999756
1391.214277	716.5999756
1391.744766	710.2000122
1392.2752	700.4000244
1392.805578	695.7999878
1393.335901	693.0
1393.866168	691.4000244
1394.396381	686.0
1394.926537	686.4000244
1395.456639	684.0
1395.986685	683.2000122
1396.516675	682.4000244
1397.046611	683.5999756
1397.576491	681.2000122
1398.106315	680.0
1398.636084	681.5999756
1399.165798	676.2000122
1399.695457	680.4000244
1400.22506	680.2000122
1400.754608	680.2000122
1401.284101	680.2000122
1401.813538	678.0
1402.34292	676.4000244
1402.872247	680.0
1403.401518	678.0
1403.930734	682.5999756
1404.459895	680.7999878
1404.989	685.4000244
1405.51805	685.4000244
1406.047045	685.5999756
1406.575984	693.2000122
1407.104869	696.7999878
1407.633697	709.0
1408.162471	716.5999756
1408.691189	728.2000122
1409.219852	730.2000122
1409.74846	727.7999878
1410.277013	716.7999878
1410.80551	700.2000122
1411.333952	690.2000122
1411.862339	684.0
1412.39067	677.7999878
1412.918946	677.2000122
1413.447167	678.2000122
1413.975333	673.4000244
1414.503444	671.0
1415.031499	670.4000244
1415.559499	682.5999756
1416.087444	673.0
1416.615333	671.0
1417.143167	669.7999878
1417.670947	670.7999878
1418.19867	668.5999756
1418.726339	670.5999756
1419.253952	669.4000244
1419.781511	668.0
1420.309014	668.7999878
1420.836461	668.2000122
1421.363854	667.4000244
1421.891191	670.5999756
1422.418474	668.0
1422.945701	670.0
1423.472872	669.5999756
1423.999989	669.7999878
1424.52705	666.2000122
1425.054057	669.5999756
1425.581008	667.5999756
1426.107904	666.5999756
1426.634745	667.7999878
1427.16153	666.7999878
1427.688261	666.2000122
1428.214936	665.5999756
1428.741556	665.2000122
1429.268121	665.2000122
1429.794631	666.0
1430.321085	666.5999756
1430.847485	663.5999756
1431.373829	664.2000122
1431.900118	664.5999756
1432.426353	663.4000244
1432.952532	664.5999756
1433.478655	666.0
1434.004724	666.4000244
1434.530738	664.5999756
1435.056696	667.0
1435.5826	663.5999756
1436.108448	664.2000122
1436.634241	667.0
1437.159979	665.5999756
1437.685662	665.2000122
1438.21129	665.5999756
1438.736863	668.7999878
1439.262381	664.2000122
1439.787843	664.4000244
1440.313251	665.5999756
1440.838603	661.2000122
1441.3639	661.7999878
1441.889143	664.2000122
1442.41433	659.5999756
1442.939462	662.2000122
1443.464539	663.7999878
1443.989561	663.2000122
1444.514528	662.7999878
1445.03944	664.0
1445.564297	666.2000122
1446.089099	662.4000244
1446.613846	663.0
1447.138537	662.7999878
1447.663174	664.0
1448.187756	662.2000122
1448.712282	664.0
1449.236754	663.5999756
1449.761171	663.2000122
1450.285532	661.2000122
1450.809839	663.4000244
1451.33409	663.4000244
1451.858287	663.0
1452.382428	662.0
1452.906515	660.0
1453.430546	661.7999878
1453.954523	664.5999756
1454.478444	661.7999878
1455.002311	663.5999756
1455.526123	663.7999878
1456.049879	661.4000244
1456.573581	664.7999878
1457.097227	661.5999756
1457.620819	662.4000244
1458.144356	662.7999878
1458.667837	663.5999756
1459.191264	660.4000244
1459.714636	662.0
1460.237952	664.0
1460.761214	661.2000122
1461.284421	663.5999756
1461.807573	661.5999756
1462.33067	661.5999756
1462.853712	662.2000122
1463.376699	663.7999878
1463.899632	663.2000122
1464.422509	662.5999756
1464.945331	662.5999756
1465.468099	661.2000122
1465.990811	661.5999756
1466.513469	661.2000122
1467.036071	660.0
1467.558619	663.0
1468.081112	661.7999878
1468.60355	661.4000244
1469.125933	661.4000244
1469.648261	659.7999878
1470.170534	666.0
1470.692752	662.0
1471.214916	661.2000122
1471.737024	660.0
1472.259078	660.5999756
1472.781077	662.5999756
1473.303021	660.0
1473.82491	664.2000122
1474.346744	663.2000122
1474.868523	661.0
1475.390248	661.4000244
1475.911917	661.7999878
1476.433532	659.5999756
1476.955092	659.4000244
1477.476597	659.7999878
1477.998047	659.2000122
1478.519442	660.2000122
1479.040783	661.0
1479.562068	663.0
1480.083299	660.5999756
1480.604475	660.5999756
1481.125596	660.4000244
1481.646663	659.7999878
1482.167674	660.4000244
1482.688631	658.7999878
1483.209533	662.0
1483.73038	661.4000244
1484.251172	662.5999756
1484.771909	658.5999756
1485.292592	660.2000122
1485.81322	661.7999878
1486.333793	661.2000122
1486.854311	660.7999878
1487.374775	661.2000122
1487.895183	663.7999878
1488.415537	657.7999878
1488.935836	658.7999878
1489.456081	659.5999756
1489.97627	658.5999756
1490.496405	661.2000122
1491.016485	661.4000244
1491.536511	661.0
1492.056481	661.4000244
1492.576397	661.0
1493.096258	657.5999756
1493.616064	661.5999756
1494.135816	661.7999878
1494.655513	661.2000122
1495.175155	658.7999878
1495.694742	661.2000122
1496.214274	660.2000122
1496.733752	659.7999878
1497.253175	661.4000244
1497.772544	659.0
1498.291858	662.0
1498.811116	662.0
1499.330321	658.5999756
1499.84947	665.2000122
1500.368565	659.2000122
1500.887605	661.7999878
1501.406591	661.0
1501.925521	662.4000244
1502.444397	663.5999756
1502.963219	659.0
1503.481985	659.4000244
1504.000697	660.5999756
1504.519355	661.5999756
1505.037957	659.5999756
1505.556505	657.0
1506.074999	661.7999878
1506.593437	659.5999756
1507.111821	661.2000122
1507.63015	659.7999878
1508.148425	656.7999878
1508.666645	658.7999878
1509.18481	661.2000122
1509.702921	659.4000244
1510.220977	659.0
1510.738979	671.0
1511.256925	659.0
1511.774817	660.0
1512.292655	660.5999756
1512.810438	660.4000244
1513.328166	660.5999756
1513.84584	659.5999756
1514.363459	659.5999756
1514.881023	659.7999878
1515.398533	657.2000122
1515.915988	663.2000122
1516.433389	660.7999878
1516.950734	659.5999756
1517.468026	658.7999878
1517.985263	658.7999878
1518.502445	662.2000122
1519.019572	659.5999756
1519.536645	660.2000122
1520.053664	659.5999756
1520.570628	661.5999756
1521.087537	660.5999756
1521.604392	659.5999756
1522.121192	661.4000244
1522.637937	657.2000122
1523.154628	661.7999878
1523.671265	661.0
1524.187847	662.5999756
1524.704374	660.5999756
1525.220847	662.2000122
1525.737265	661.4000244
1526.253629	660.2000122
1526.769938	663.0
1527.286192	659.5999756
1527.802392	657.7999878
1528.318538	661.7999878
1528.834629	659.5999756
1529.350666	662.0
1529.866648	662.4000244
1530.382575	658.4000244
1530.898448	659.4000244
1531.414266	659.4000244
1531.93003	659.4000244
1532.44574	659.5999756
1532.961395	660.0
1533.476995	659.0
1533.992541	658.7999878
1534.508033	660.2000122
1535.02347	660.2000122
1535.538852	660.0
1536.05418	660.0
1536.569454	660.5999756
1537.084673	659.5999756
1537.599837	660.0
1538.114947	661.7999878
1538.630003	660.0
1539.145004	659.5999756
1539.659951	662.0
1540.174843	660.5999756
1541.719194	721.7999878
1542.233868	661.2000122
1542.748488	659.0
1543.263054	659.0
1543.777565	660.0
1544.292022	657.7999878
1544.806424	657.4000244
1545.320772	660.7999878
1545.835066	659.0
1546.349305	660.7999878
1546.863489	658.2000122
1547.37762	658.0
1547.891696	660.4000244
1548.405717	661.0
1548.919684	659.7999878
1549.433597	662.4000244
1549.947455	661.2000122
1550.461259	660.7999878
1550.975009	660.4000244
1551.488704	660.2000122
1552.002345	659.7999878
1552.515931	657.7999878
1553.029463	656.7999878
1553.542941	660.4000244
1554.056364	660.0
1554.569733	660.2000122
1555.083048	660.0
1555.596308	659.7999878
1556.109514	662.2000122
1556.622665	658.4000244
1557.135762	657.0
1557.648805	660.5999756
1558.161794	660.2000122
1558.674728	660.0
1559.187608	663.4000244
1559.700433	660.7999878
1560.213205	659.2000122
1560.725921	660.0
1561.238584	658.7999878
1561.751192	658.7999878
1562.263746	658.4000244
1562.776246	662.5999756
1563.288691	659.4000244
1563.801082	658.5999756
1564.313419	658.7999878
1564.825701	657.4000244
1565.337929	660.7999878
1565.850103	661.0
1566.362223	659.2000122
1566.874288	661.5999756
1567.386299	661.7999878
1567.898256	662.2000122
1568.410158	662.7999878
1568.922007	659.2000122
1569.4338	658.7999878
1569.94554	658.4000244
1570.457226	661.2000122
1570.968857	661.4000244
1571.480434	659.5999756
1571.991956	661.4000244
1572.503425	657.5999756
1573.014839	658.0
1573.526199	658.7999878
1574.037505	662.0
1574.548756	658.7999878
1575.059953	658.2000122
1575.571096	660.2000122
1576.082185	657.5999756
1576.59322	659.2000122
1577.1042	659.0
1577.615126	659.7999878
1578.125998	659.5999756
1578.636816	660.7999878
1579.14758	657.7999878
1579.658289	659.4000244
1580.168944	658.0
1580.679545	659.0
1581.190092	659.0
1581.700585	658.4000244
1582.211023	660.0
1582.721407	659.5999756
1583.231737	659.4000244
1583.742013	658.4000244
1584.252235	659.4000244
1584.762403	658.5999756
1585.272516	659.5999756
1585.782575	660.4000244
1586.292581	659.2000122
1586.802532	661.4000244
1587.312428	659.5999756
1587.822271	660.2000122
1588.33206	661.4000244
1588.841794	659.5999756
1589.351474	656.7999878
1589.8611	658.4000244
1590.370672	658.2000122
1590.88019	659.5999756
1591.389654	655.7999878
1591.899064	658.5999756
1592.408419	658.5999756
