1042.414189	702.25
1045.8123	682.0
1046.378449	685.25
1046.94454	682.25
1047.510573	680.5
1048.076548	678.5
1048.642465	680.75
1049.208325	681.0
1049.774126	678.5
1050.339869	676.75
1050.905555	676.5
1051.471183	680.75
1052.036752	681.0
1052.602264	677.0
1053.167718	676.0
1053.733114	677.5
1054.298452	677.0
1054.863733	677.75
1055.428955	678.0
1055.994119	677.75
1056.559226	675.5
1057.124275	678.5
1057.689266	676.5
1058.254199	679.5
1058.819074	678.0
1059.383891	675.75
1059.94865	676.25
1060.513352	676.5
1061.077996	677.25
1061.642582	673.25
1062.20711	676.75
1062.77158	676.75
1063.335992	675.5
1063.900347	676.5
1064.464643	676.75
1065.028882	671.0
1065.593063	676.5
1066.157187	678.25
1066.721252	680.0
1067.28526	674.25
1067.84921	673.75
1068.413102	674.75
1068.976936	677.0
1069.540713	672.75
1070.104431	684.25
1070.668092	676.0
1071.231696	678.25
1071.795241	677.25
1072.358729	677.25
1072.922159	678.0
1073.485531	677.75
1074.048845	677.0
1074.612102	678.75
1075.175301	677.5
1075.738442	676.25
1076.301525	676.75
1076.864551	675.25
1077.427519	674.0
1077.990429	676.5
1078.553281	676.5
1079.116076	676.5
1079.678813	675.0
1080.241492	675.25
1080.804114	676.0
1081.366678	674.75
1081.929184	674.75
1082.491633	674.75
1083.054024	679.0
1083.616357	673.5
1084.178632	672.25
1084.74085	674.25
1085.30301	675.0
1085.865113	677.25
1086.427158	674.0
1086.989145	673.75
1087.551074	677.75
1088.112946	675.0
1088.67476	673.0
1089.236517	677.0
1089.798216	673.0
1090.359857	676.25
1090.92144	676.5
1091.482966	674.0
1092.044435	676.25
1092.605845	675.0
1093.167199	673.25
1093.728494	676.0
1094.289732	672.0
1094.850912	674.25
1095.412035	682.5
1095.9731	677.0
1096.534107	676.5
1097.095057	684.25
1097.65595	673.75
1098.216784	674.75
1098.777561	676.5
1099.338281	675.25
1099.898943	675.5
1100.459547	675.75
1101.020094	671.75
1101.580584	674.0
1102.141015	673.25
1102.701389	675.5
1103.261706	674.25
1103.821965	679.0
1104.382167	675.5
1104.942311	675.0
1105.502397	675.75
1106.062426	676.0
1106.622398	678.25
1107.182312	676.75
1107.742168	677.5
1108.301967	676.75
1108.861708	679.75
1109.421392	678.5
1109.981019	678.75
1110.540587	678.25
1111.100099	677.75
1111.659553	678.0
1112.218949	679.75
1112.778288	676.25
1113.33757	679.75
1113.896794	677.75
1114.45596	679.5
1115.015069	677.0
1115.574121	677.0
1116.133115	673.75
1116.692052	677.25
1117.250931	677.25
1117.809753	676.0
1118.368517	678.75
1118.927224	678.75
1119.485873	676.75
1120.044465	674.25
1120.603	676.25
1121.161477	677.25
1121.719897	678.5
1122.278259	673.5
1122.836564	676.75
1123.394812	674.75
1123.953002	671.5
1124.511135	674.25
1125.06921	675.0
1125.627228	676.25
1126.185189	671.25
1126.743092	673.25
1127.300938	675.5
1127.858726	676.25
1128.416457	673.25
1128.974131	675.5
1129.531748	675.5
1130.089307	671.25
1130.646808	674.75
1131.204252	676.75
1131.761639	670.5
1132.318969	671.5
1132.876241	675.25
1133.433456	674.0
1133.990614	670.5
1134.547714	678.25
1135.104757	671.75
1135.661743	674.75
1136.218671	672.75
1136.775542	675.25
1137.332356	673.25
1137.889112	672.25
1138.445811	672.75
1139.002453	678.0
1139.559037	672.0
1140.115565	673.0
1140.672035	671.5
1141.228447	672.5
1141.784803	673.75
1142.341101	676.0
1142.897342	672.25
1143.453525	673.75
1144.009651	673.0
1144.565721	671.5
1145.121732	676.25
1145.677687	674.25
1146.233584	675.0
1146.789424	673.0
1147.345207	675.75
1147.900933	674.5
1148.456601	677.0
1149.012212	673.5
1149.567766	674.0
1150.123263	675.0
1150.678702	676.0
1151.234085	671.0
1151.78941	673.75
1152.344678	672.25
1152.899888	676.0
1153.455042	673.75
1154.010138	676.25
1154.565177	674.0
1155.120159	672.25
1155.675084	674.75
1156.229951	674.75
1156.784762	674.0
1157.339515	675.0
1157.894211	672.5
1158.44885	671.75
1159.003432	672.75
1159.557956	677.25
1160.112424	676.5
1160.666834	677.75
1161.221187	676.0
1161.775483	673.75
1162.329722	674.5
1162.883904	675.0
1163.438029	674.5
1163.992096	675.75
1164.546107	671.25
1165.10006	672.0
1165.653956	675.0
1166.207795	673.5
1166.761577	677.25
1167.315302	675.75
1167.86897	674.5
1168.422581	678.25
1168.976134	673.5
1169.529631	672.25
1170.08307	674.75
1170.636453	669.75
1171.189778	674.25
1171.743046	675.0
1172.296257	673.5
1172.849412	674.0
1173.402509	672.25
1173.955549	677.0
1174.508532	673.5
1175.061458	672.5
1175.614327	672.5
1176.167138	672.75
1176.719893	674.5
1177.272591	674.75
1177.825232	677.25
1178.377816	673.0
1178.930342	677.75
1179.482812	677.5
1180.035225	671.5
1180.587581	672.5
1181.139879	677.75
1181.692121	673.25
1182.244306	675.0
1182.796434	677.25
1183.348504	676.0
1183.900518	675.25
1184.452475	677.5
1185.004375	677.0
1185.556218	676.75
1186.108004	678.0
1186.659733	674.5
1187.211405	676.75
1187.76302	676.25
1188.314578	675.25
1188.866079	677.25
1189.417523	675.0
1189.96891	675.25
1190.520241	674.75
1191.071514	675.0
1191.622731	672.75
1192.17389	675.75
1192.724993	675.75
1193.276039	694.75
1193.827027	671.5
1194.377959	671.25
1194.928834	675.5
1195.479653	676.5
1196.030414	677.25
1196.581118	673.5
1197.131766	671.0
1197.682356	674.5
1198.23289	673.75
1198.783367	675.25
1199.333786	669.0
1199.88415	676.0
1200.434456	673.75
1200.984705	673.0
1201.534898	675.25
1202.085033	672.5
1202.635112	674.5
1203.185134	674.25
1203.735099	673.75
1204.285007	675.5
1204.834859	671.75
1205.384653	672.75
1205.934391	673.5
1206.484072	674.75
1207.033696	675.0
1207.583263	675.5
1208.132774	673.75
1208.682228	674.0
1209.231624	672.5
1209.780965	675.25
1210.330248	673.5
1210.879474	670.5
1211.428644	673.0
1211.977757	678.75
1212.526813	674.75
1213.075813	675.0
1213.624755	678.5
1214.173641	674.5
1214.72247	676.75
1215.271242	676.25
1215.819958	676.5
1216.368617	676.5
1216.917219	675.75
1217.465764	676.75
1218.014253	676.25
1218.562685	674.75
1219.11106	674.25
1219.659378	675.0
1220.20764	681.25
1220.755845	677.25
1221.303993	677.75
1221.852085	675.25
1222.400119	675.0
1222.948097	675.75
1223.496019	680.0
1224.043883	678.75
1224.591691	676.0
1225.139443	679.0
1225.687137	674.5
1226.234775	677.5
1226.782357	675.75
1227.329881	679.25
1227.877349	678.5
1228.42476	677.5
1228.972115	677.0
1229.519413	679.25
1230.066654	676.25
1230.613839	679.75
1231.160967	674.25
1231.708038	676.5
1232.255053	680.25
1232.802011	677.25
1233.348912	676.75
1233.895757	679.75
1234.442545	677.0
1234.989277	679.5
1235.535951	678.25
1236.08257	678.25
1236.629131	678.0
1237.175636	679.0
1237.722085	675.75
1238.268477	675.5
1238.814812	677.75
1239.361091	679.0
1239.907313	675.5
1240.453478	677.75
1240.999587	675.25
1241.54564	679.25
1242.091636	674.0
1242.637575	677.75
1243.183457	679.5
1243.729284	675.0
1244.275053	680.25
1244.820766	676.75
1245.366423	678.25
1245.912022	676.0
1246.457566	677.25
1247.003053	675.5
1247.548483	679.0
1248.093857	673.0
1248.639174	676.75
1249.184435	678.0
1249.729639	678.75
1250.274787	679.5
1250.819878	675.0
1251.364912	679.75
1251.909891	680.0
1252.454812	676.5
1252.999677	678.5
1253.544486	677.75
1254.089238	682.0
1254.633934	680.5
1255.178573	677.5
1255.723156	681.5
1256.267682	679.0
1256.812152	681.5
1257.356565	678.75
1257.900922	686.25
1258.445223	679.5
1258.989467	683.5
1259.533654	685.75
1260.077785	699.5
1260.62186	685.25
1261.165878	686.25
1261.70984	690.0
1262.253745	693.5
1262.797594	701.25
1263.341386	700.0
1263.885123	698.5
1264.428802	695.25
1264.972425	691.75
1265.515992	690.5
1266.059503	683.0
1266.602957	684.75
1267.146354	684.75
1267.689696	686.0
1268.23298	683.0
1268.776209	683.0
1269.319381	682.0
1269.862497	683.25
1270.405556	680.5
1270.948559	681.25
1271.491506	680.5
1272.034396	686.0
1272.57723	682.0
1273.120007	681.5
1273.662728	682.5
1274.205393	684.25
1274.748002	682.5
1275.290554	683.25
1275.83305	681.25
1276.375489	683.75
1276.917872	682.75
1277.460199	685.5
1278.00247	685.0
1278.544684	687.75
1279.086842	693.75
1279.628943	694.75
1280.170989	703.5
1280.712978	722.5
1281.25491	745.75
1281.796787	808.25
1282.338607	927.0
1282.880371	1059.25
1283.422078	1121.0
1283.963729	1018.25
1284.505324	865.0
1285.046863	788.75
1285.588345	738.0
1286.129772	711.25
1286.671142	704.75
1287.212455	695.5
1287.753713	692.5
1288.294914	689.25
1288.836059	688.75
1289.377147	687.5
1289.91818	686.75
1290.459156	683.0
1291.000076	682.0
1291.54094	685.0
1292.081747	681.0
1292.622499	681.75
1293.163194	683.0
1293.703833	680.75
1294.244415	684.25
1294.784942	681.0
1295.325412	683.25
1295.865826	681.5
1296.406184	681.0
1296.946486	680.75
1297.486731	681.25
1298.026921	678.25
1298.567054	677.25
1299.107131	679.25
1299.647152	678.0
1300.187116	679.0
1300.727025	679.5
1301.266877	683.0
1301.806673	682.25
1302.346413	677.25
1302.886097	683.25
1303.425725	681.5
1303.965297	678.25
1304.504812	677.75
1305.044272	677.75
1305.583675	679.5
1306.123022	679.75
1306.662313	676.5
1307.201548	681.0
1307.740727	680.5
1308.279849	676.75
1308.818916	676.75
1309.357926	679.75
1309.896881	679.25
1310.435779	673.75
1310.974621	680.5
1311.513407	677.25
1312.052137	682.0
1312.590811	676.5
1313.129429	677.75
1313.667991	681.0
1314.206497	674.5
1314.744946	676.5
1315.28334	676.25
1315.821678	673.0
1316.359959	678.75
1316.898184	678.0
1317.436354	676.0
1317.974467	673.25
1318.512525	677.5
1319.050526	677.5
1319.588471	675.0
1320.12636	676.5
1320.664194	673.0
1321.201971	677.0
1321.739692	676.25
1322.277357	677.75
1322.814967	675.5
1323.35252	671.75
1323.890017	682.25
1324.427458	674.0
1324.964843	677.75
1325.502173	681.25
1326.039446	678.25
1326.576663	678.5
1327.113824	676.25
1327.65093	672.5
1328.187979	675.5
1328.724972	676.25
1329.26191	676.0
1329.798791	676.5
1330.335617	674.0
1330.872386	675.0
1331.4091	675.0
1331.945758	678.0
1332.48236	675.75
1333.018905	676.0
1333.555395	674.0
1334.091829	679.5
1334.628207	677.0
1335.164529	677.75
1335.700796	673.0
1336.237006	672.5
1336.77316	680.5
1337.309259	675.75
1337.845301	676.25
1338.381288	679.25
1338.917219	675.0
1339.453094	678.25
1339.988913	677.5
1340.524676	678.0
1341.060383	674.75
1341.596034	676.0
1342.13163	677.0
1342.66717	674.5
1343.202653	674.5
1343.738081	678.25
1344.273453	676.75
1344.80877	677.75
1345.34403	677.25
1345.879235	677.75
1346.414383	676.75
1346.949476	674.5
1347.484513	678.75
1348.019494	677.5
1348.55442	677.0
1349.089289	675.25
1349.624103	676.75
1350.158861	674.5
1350.693563	678.5
1351.228209	672.5
1351.7628	678.75
1352.297334	674.25
1352.831813	677.0
1353.366236	676.5
1353.900604	676.75
1354.434915	676.25
1354.969171	679.0
1355.503371	678.5
1356.037515	674.0
1356.571604	674.75
1357.105636	674.5
1357.639613	676.0
1358.173535	678.5
1358.7074	675.75
1359.24121	674.25
1359.774964	675.25
1360.308662	677.5
1360.842304	673.25
1361.375891	678.25
1361.909422	674.25
1362.442897	679.0
1362.976317	677.25
1363.50968	680.5
1364.042989	678.0
1364.576241	679.5
1365.109438	677.0
1365.642579	679.25
1366.175664	678.5
1366.708693	675.25
1367.241667	677.25
1367.774585	682.5
1368.307448	679.25
1368.840255	686.75
1369.373006	691.25
1369.905701	694.25
1370.438341	689.0
1370.970925	684.5
1371.503454	681.75
1372.035926	682.25
1372.568344	679.5
1373.100705	682.75
1373.633011	680.25
1374.165261	684.0
1374.697456	683.5
1375.229595	680.5
1375.761678	682.0
1376.293705	685.0
1376.825677	683.5
1377.357594	683.0
1377.889455	683.75
1378.42126	686.0
1378.953009	684.0
1379.484703	684.5
1380.016342	684.25
1380.547924	687.25
1381.079452	689.5
1381.610923	693.25
1382.142339	693.75
1382.673699	692.25
1383.205004	699.25
1383.736253	708.0
1384.267447	710.75
1384.798585	726.25
1385.329668	747.25
1385.860695	805.25
1386.391666	941.75
1386.922582	1232.5
1387.453442	1578.5
1387.984247	1477.0
1388.514996	1090.75
1389.04569	865.75
1389.576328	766.75
1390.10691	739.0
1390.637437	719.5
1391.167909	702.75
1391.698325	697.5
1392.228685	693.0
1392.75899	689.0
1393.28924	691.25
1393.819434	690.0
1394.349572	683.75
1394.879655	681.0
1395.409683	686.75
1395.939655	683.25
1396.469571	684.25
1396.999432	682.25
1397.529237	683.75
1398.058987	684.5
1398.588682	684.0
1399.118321	684.75
1399.647905	682.5
1400.177433	680.75
1400.706906	686.75
1401.236323	681.25
1401.765685	682.75
1402.294991	681.75
1402.824242	680.5
1403.353437	684.5
1403.882577	683.25
1404.411662	683.5
1404.940691	685.25
1405.469665	687.75
1405.998583	690.25
1406.527446	693.5
1407.056253	695.0
1407.585005	701.0
1408.113702	708.75
1408.642343	717.0
1409.170929	717.75
1409.69946	711.75
1410.227935	706.25
1410.756354	693.75
1411.284719	686.75
1411.813028	684.75
1412.341281	678.25
1412.869479	682.75
1413.397622	679.25
1413.92571	679.25
1414.453742	681.0
1414.981718	677.0
1415.50964	693.25
1416.037506	678.75
1416.565316	678.5
1417.093072	678.75
1417.620772	676.5
1418.148416	677.25
1418.676005	677.0
1419.203539	674.5
1419.731018	679.0
1420.258441	674.75
1420.785809	677.0
1421.313122	676.75
1421.840379	672.75
1422.367582	675.5
1422.894728	676.25
1423.42182	673.25
1423.948856	675.25
1424.475837	675.25
1425.002762	672.0
1425.529633	675.25
1426.056448	672.75
1426.583207	675.25
1427.109912	672.25
1427.636561	678.25
1428.163155	675.5
1428.689694	675.5
1429.216177	675.0
1429.742605	674.25
1430.268978	676.25
1430.795296	673.25
1431.321558	673.75
1431.847765	672.0
1432.373917	675.75
1432.900014	675.0
1433.426056	677.75
1433.952042	673.0
1434.477973	675.0
1435.003849	674.0
1435.529669	674.0
1436.055435	676.0
1436.581145	673.25
1437.1068	678.5
1437.632399	672.25
1438.157944	676.0
1438.683433	676.0
1439.208868	673.0
1439.734247	675.0
1440.25957	675.75
1440.784839	675.0
1441.310053	674.5
1441.835211	675.75
1442.360314	674.25
1442.885362	674.75
1443.410355	675.0
1443.935292	672.75
1444.460175	673.0
1444.985002	673.5
1445.509774	677.75
1446.034491	675.25
1446.559153	676.0
1447.08376	675.25
1447.608312	671.75
1448.132808	673.0
1448.65725	677.75
1449.181636	673.25
1449.705967	672.0
1450.230243	674.0
1450.754464	672.25
1451.27863	673.0
1451.802741	674.0
1452.326797	675.5
1452.850797	677.0
1453.374743	673.75
1453.898633	676.25
1454.422468	671.25
1454.946249	672.5
1455.469974	675.5
1455.993644	672.5
1456.517259	672.5
1457.040819	673.75
1457.564324	672.0
1458.087773	671.5
1458.611168	671.75
1459.134508	674.25
1459.657793	674.0
1460.181022	676.0
1460.704197	674.25
1461.227316	676.0
1461.750381	675.25
1462.27339	679.25
1462.796345	717.0
1463.319244	724.5
1463.842089	679.0
1464.364878	676.25
1464.887613	676.0
1465.410292	673.5
1465.932916	673.25
1466.455486	669.5
1466.978	673.75
1467.50046	673.75
1468.022864	672.25
1468.545214	672.0
1469.067508	674.5
1469.589748	671.25
1470.111932	671.5
1470.634062	673.5
1471.156136	671.5
1471.678156	673.0
1472.20012	675.5
1472.72203	674.0
1473.243885	674.5
1473.765685	673.25
1474.28743	670.25
1474.80912	673.5
1475.330755	668.25
1475.852335	670.5
1476.37386	669.75
1476.89533	672.0
1477.416745	671.5
1477.938106	671.75
1478.459411	668.0
1478.980662	671.5
1479.501857	670.5
1480.022998	670.5
1480.544084	669.25
1481.065115	671.75
1481.586091	670.75
1482.107012	668.5
1482.627878	670.5
1483.14869	672.75
1483.669446	671.5
1484.190148	673.75
1484.710794	670.5
1485.231386	671.0
1485.751923	671.75
1486.272406	671.0
1486.792833	672.0
1487.313205	670.5
1487.833523	671.0
1488.353786	669.5
1488.873994	669.25
1489.394147	671.25
1489.914245	668.5
1490.434288	667.75
1490.954277	673.0
1491.474211	670.5
1491.99409	669.0
1492.513914	667.75
1493.033683	672.75
1493.553398	670.0
1494.073057	673.25
1494.592662	670.25
1495.112212	670.25
1495.631708	668.75
1496.151148	671.5
1496.670534	671.0
1497.189865	669.25
1497.709141	669.0
1498.228362	671.5
1498.747529	670.5
1499.266641	668.75
1499.785698	677.0
1500.3047	673.5
1500.823648	675.0
1501.34254	672.25
1501.861379	668.75
1502.380162	672.25
1502.89889	669.75
1503.417564	673.5
1503.936183	674.0
1504.454748	670.75
1504.973257	670.25
1505.491712	672.75
1506.010112	669.75
1506.528458	668.25
1507.046748	669.75
1507.564984	671.5
1508.083166	669.75
1508.601292	668.75
1509.119364	671.75
1509.637381	670.75
1510.155344	670.0
1510.673252	679.25
1511.191105	667.5
1511.708903	667.0
1512.226647	673.0
1512.744336	668.75
1513.261971	671.75
1513.77955	670.5
1514.297076	669.0
1514.814546	669.0
1515.331962	666.25
1515.849323	667.75
1516.366629	670.75
1516.883881	668.0
1517.401078	669.25
1517.918221	668.0
1518.435309	670.0
1518.952342	671.0
1519.469321	671.25
1519.986245	674.0
1520.503114	667.5
1521.019929	672.25
1521.536689	668.25
1522.053395	671.5
1522.570046	672.5
1523.086642	671.0
1523.603184	670.75
1524.119671	669.75
1524.636103	670.5
1525.152481	672.0
1525.668805	692.5
1526.701288	680.75
1527.217447	672.0
1527.733552	671.0
1528.249603	668.5
1528.765599	668.0
1529.28154	670.0
1529.797427	668.75
1530.313259	672.75
1530.829037	669.0
1531.34476	668.75
1531.860429	666.75
1532.376043	673.75
1532.891602	673.75
1533.407107	670.25
1533.922558	670.0
1534.437954	670.5
1534.953295	669.25
1535.468582	670.0
1535.983815	669.0
1536.498993	670.0
1537.014116	671.0
1537.529185	670.0
1538.044199	669.25
1538.559159	670.75
1539.074064	671.5
1539.588915	669.75
1540.103712	672.25
1540.618454	672.25
1541.133141	671.25
1541.647774	670.5
1542.162353	671.25
1542.676877	672.25
1543.191346	670.0
1543.705761	667.0
1544.220122	668.0
1544.734428	670.75
1545.24868	669.0
1545.762877	669.75
1546.27702	673.0
1546.791109	668.25
1547.305143	672.75
1547.819122	670.5
1548.333047	672.25
1548.846918	672.25
1549.360734	672.75
1549.874496	670.25
1550.388204	671.25
1550.901857	671.5
1551.415455	673.5
1551.929	674.0
1552.442489	669.75
1552.955925	671.5
1553.469306	671.5
1553.982632	671.75
1554.495905	671.75
1555.009123	671.75
1555.522286	671.0
1556.035395	671.5
1556.54845	671.75
1557.06145	674.0
1557.574396	671.75
1558.087288	669.5
1558.600125	672.25
1559.112908	673.5
1559.625637	671.75
1560.138311	669.5
1560.650931	672.0
1561.163497	676.0
1561.676008	672.5
1562.188465	674.75
1562.700867	672.5
1563.213216	670.75
1563.725509	674.75
1564.237749	677.75
1564.749934	671.5
1565.262065	674.25
1565.774142	672.5
1566.286164	678.0
1566.798132	672.75
1567.310046	676.5
1567.821906	678.25
1568.333711	673.5
1568.845462	673.75
1569.357158	673.0
1569.868801	675.5
1570.380389	673.75
1570.891922	672.5
1571.403402	672.75
1571.914827	672.25
1572.426198	669.75
1572.937515	670.25
1573.448777	667.5
1573.959985	669.75
1574.471139	672.0
1574.982239	670.25
1575.493285	671.0
1576.004276	673.5
1576.515213	673.25
1577.026096	671.25
1577.536924	671.25
1578.047698	666.75
1578.558419	676.0
1579.069084	672.5
1579.579696	670.75
1580.090254	675.5
1580.600757	668.5
1581.111206	670.0
1581.621601	673.75
1582.131941	669.5
1582.642228	673.0
1583.15246	669.0
1583.662638	669.75
1584.172762	668.75
1584.682832	670.0
1585.192847	672.25
1585.702809	674.5
1586.212716	673.25
1586.722569	669.75
1587.232368	673.75
1587.742113	668.5
1588.251803	669.75
1588.76144	666.5
1589.271022	673.5
1589.78055	670.5
1590.290024	667.75
1590.799444	668.0
1591.30881	672.5
1591.818121	672.0
1592.327379	670.25
