1042.414189	684.25
1042.980685	685.5
1043.547124	685.5
1044.113505	685.0
1044.679828	686.25
1045.246093	683.25
1045.8123	681.25
1046.378449	685.0
1046.94454	684.25
1047.510573	682.0
1048.076548	682.75
1048.642465	682.0
1049.208325	685.75
1049.774126	678.25
1050.339869	682.0
1050.905555	681.0
1051.471183	678.5
1052.036752	682.0
1052.602264	683.0
1053.167718	679.0
1053.733114	680.0
1054.298452	680.25
1054.863733	680.75
1055.428955	682.0
1055.994119	680.0
1056.559226	682.75
1057.124275	678.25
1057.689266	676.75
1058.254199	680.0
1058.819074	678.5
1059.383891	676.0
1059.94865	673.75
1060.513352	677.25
1061.077996	677.25
1061.642582	679.25
1062.20711	680.0
1062.77158	678.0
1063.335992	679.75
1063.900347	678.25
1064.464643	680.0
1065.028882	679.0
1065.593063	682.25
1066.157187	679.5
1066.721252	681.25
1067.28526	676.75
1067.84921	677.75
1068.413102	677.25
1068.976936	677.75
1069.540713	679.5
1070.104431	690.25
1070.668092	679.5
1071.231696	679.25
1071.795241	677.5
1072.358729	676.5
1072.922159	677.25
1073.485531	679.25
1074.048845	679.0
1074.612102	678.5
1075.175301	681.0
1075.738442	675.25
1076.301525	677.0
1076.864551	679.5
1077.427519	677.5
1077.990429	677.5
1078.553281	675.75
1079.116076	679.75
1079.678813	679.25
1080.241492	680.5
1080.804114	679.25
1081.366678	677.25
1081.929184	674.75
1082.491633	678.5
1083.054024	677.5
1083.616357	679.75
1084.178632	680.75
1084.74085	678.75
1085.30301	680.25
1085.865113	677.5
1086.427158	679.5
1086.989145	679.75
1087.551074	682.0
1088.112946	679.0
1088.67476	678.75
1089.236517	678.0
1089.798216	677.0
1090.359857	678.25
1090.92144	678.0
1091.482966	675.25
1092.044435	677.25
1092.605845	679.5
1093.167199	679.75
1093.728494	679.25
1094.289732	677.75
1094.850912	676.25
1095.412035	684.75
1095.9731	678.5
1096.534107	677.75
1097.095057	683.75
1097.65595	677.5
1098.216784	678.25
1098.777561	677.0
1099.338281	676.75
1099.898943	677.75
1100.459547	679.0
1101.020094	676.75
1101.580584	672.25
1102.141015	677.75
1102.701389	676.0
1103.261706	680.0
1103.821965	681.75
1104.382167	679.5
1104.942311	676.75
1105.502397	681.25
1106.062426	680.0
1106.622398	679.75
1107.182312	680.0
1107.742168	675.0
1108.301967	679.75
1108.861708	685.0
1109.421392	681.5
1109.981019	681.5
1110.540587	681.25
1111.100099	684.0
1111.659553	682.25
1112.218949	682.5
1112.778288	685.25
1113.33757	680.5
1113.896794	680.25
1114.45596	678.5
1115.015069	678.25
1115.574121	678.25
1116.133115	683.5
1116.692052	682.0
1117.250931	682.75
1117.809753	681.25
1118.368517	680.5
1118.927224	676.5
1119.485873	680.5
1120.044465	676.75
1120.603	679.0
1121.161477	679.75
1121.719897	676.25
1122.278259	676.0
1122.836564	676.5
1123.394812	679.75
1123.953002	679.0
1124.511135	677.25
1125.06921	676.5
1125.627228	677.25
1126.185189	678.5
1126.743092	676.75
1127.300938	677.75
1127.858726	678.25
1128.416457	678.0
1128.974131	677.5
1129.531748	679.0
1130.089307	677.0
1130.646808	677.75
1131.204252	679.25
1131.761639	676.75
1132.318969	675.0
1132.876241	679.0
1133.433456	677.75
1133.990614	677.25
1134.547714	676.25
1135.104757	675.75
1135.661743	680.75
1136.218671	678.75
1136.775542	677.0
1137.332356	674.25
1137.889112	675.75
1138.445811	677.75
1139.002453	679.0
1139.559037	677.0
1140.115565	679.75
1140.672035	676.25
1141.228447	677.5
1141.784803	677.0
1142.341101	679.0
1142.897342	676.25
1143.453525	677.25
1144.009651	673.0
1144.565721	679.5
1145.121732	678.75
1145.677687	677.25
1146.233584	678.25
1146.789424	674.25
1147.345207	679.75
1147.900933	676.75
1148.456601	678.5
1149.012212	679.0
1149.567766	678.25
1150.123263	678.5
1150.678702	677.25
1151.234085	677.5
1151.78941	675.5
1152.344678	678.5
1152.899888	680.5
1153.455042	676.0
1154.010138	676.5
1154.565177	678.75
1155.120159	680.0
1155.675084	676.5
1156.229951	675.25
1156.784762	676.25
1157.339515	674.5
1157.894211	675.25
1158.44885	676.0
1159.003432	679.0
1159.557956	676.25
1160.112424	677.75
1160.666834	680.0
1161.221187	679.5
1161.775483	679.0
1162.329722	681.0
1162.883904	678.25
1163.438029	677.0
1163.992096	678.25
1164.546107	674.0
1165.10006	675.75
1165.653956	675.5
1166.207795	677.25
1166.761577	679.75
1167.315302	675.75
1167.86897	676.5
1168.422581	677.25
1168.976134	674.75
1169.529631	676.0
1170.08307	677.5
1170.636453	679.25
1171.189778	675.75
1171.743046	679.5
1172.296257	680.25
1172.849412	677.0
1173.402509	676.25
1173.955549	677.5
1174.508532	675.5
1175.061458	675.75
1175.614327	680.0
1176.167138	677.5
1176.719893	677.75
1177.272591	676.25
1177.825232	679.25
1178.377816	677.25
1178.930342	677.5
1179.482812	681.5
1180.035225	680.25
1180.587581	680.0
1181.139879	677.5
1181.692121	682.5
1182.244306	675.5
1182.796434	680.75
1183.348504	681.75
1183.900518	679.0
1184.452475	685.75
1185.004375	681.75
1185.556218	680.0
1186.108004	683.5
1186.659733	679.5
1187.211405	678.25
1187.76302	679.25
1188.314578	681.75
1188.866079	675.75
1189.417523	677.0
1189.96891	674.5
1190.520241	680.5
1191.071514	675.0
1191.622731	679.5
1192.17389	677.75
1192.724993	677.75
1193.276039	701.25
1193.827027	681.5
1194.377959	677.75
1194.928834	676.75
1195.479653	679.75
1196.030414	676.75
1196.581118	677.5
1197.131766	677.5
1197.682356	676.75
1198.23289	679.75
1198.783367	676.25
1199.333786	679.25
1199.88415	679.0
1200.434456	678.5
1200.984705	677.25
1201.534898	676.0
1202.085033	680.0
1202.635112	679.75
1203.185134	681.75
1203.735099	677.5
1204.285007	677.5
1204.834859	677.25
1205.384653	675.75
1205.934391	679.5
1206.484072	681.0
1207.033696	678.5
1207.583263	677.5
1208.132774	679.0
1208.682228	681.25
1209.231624	678.25
1209.780965	677.5
1210.330248	677.5
1210.879474	681.75
1211.428644	681.25
1211.977757	681.0
1212.526813	680.25
1213.075813	679.5
1213.624755	680.75
1214.173641	681.25
1214.72247	681.0
1215.271242	676.75
1215.819958	679.0
1216.368617	686.5
1216.917219	680.5
1217.465764	680.0
1218.014253	682.0
1218.562685	682.5
1219.11106	682.0
1219.659378	684.5
1220.20764	683.75
1220.755845	682.0
1221.303993	679.75
1221.852085	680.75
1222.400119	683.25
1222.948097	683.75
1223.496019	685.0
1224.043883	687.0
1224.591691	681.5
1225.139443	682.75
1225.687137	681.0
1226.234775	683.0
1226.782357	686.0
1227.329881	686.0
1227.877349	684.5
1228.42476	685.0
1228.972115	689.5
1229.519413	688.0
1230.066654	687.25
1230.613839	686.0
1231.160967	689.25
1231.708038	684.25
1232.255053	686.25
1232.802011	685.5
1233.348912	686.25
1233.895757	680.5
1234.442545	691.5
1234.989277	686.25
1235.535951	684.25
1236.08257	691.0
1236.629131	686.75
1237.175636	687.25
1237.722085	688.75
1238.268477	688.0
1238.814812	686.75
1239.361091	687.0
1239.907313	691.0
1240.453478	687.0
1240.999587	688.0
1241.54564	689.5
1242.091636	685.75
1242.637575	693.25
1243.183457	693.0
1243.729284	694.25
1244.275053	690.75
1244.820766	695.25
1245.366423	692.0
1245.912022	692.0
1246.457566	696.5
1247.003053	691.0
1247.548483	694.0
1248.093857	691.5
1248.639174	703.5
1249.184435	691.75
1249.729639	695.0
1250.274787	697.0
1250.819878	693.0
1251.364912	697.75
1251.909891	697.25
1252.454812	698.25
1252.999677	696.0
1253.544486	694.5
1254.089238	700.5
1254.633934	696.25
1255.178573	703.75
1255.723156	699.75
1256.267682	705.5
1256.812152	703.25
1257.356565	712.25
1257.900922	715.0
1258.445223	716.25
1258.989467	722.5
1259.533654	720.5
1260.077785	744.75
1260.62186	733.25
1261.165878	742.25
1261.70984	761.25
1262.253745	773.0
1262.797594	784.5
1263.341386	791.25
1263.885123	785.75
1264.428802	772.75
1264.972425	757.75
1265.515992	737.5
1266.059503	733.5
1266.602957	724.0
1267.146354	729.0
1267.689696	725.0
1268.23298	721.25
1268.776209	720.5
1269.319381	717.0
1269.862497	716.25
1270.405556	722.5
1270.948559	723.25
1271.491506	716.75
1272.034396	719.0
1272.57723	720.25
1273.120007	721.75
1273.662728	717.25
1274.205393	723.0
1274.748002	725.0
1275.290554	722.75
1275.83305	732.0
1276.375489	734.75
1276.917872	734.0
1277.460199	739.5
1278.00247	744.0
1278.544684	751.75
1279.086842	773.0
1279.628943	784.75
1280.170989	819.5
1280.712978	883.0
1281.25491	996.5
1281.796787	1274.0
1282.338607	1778.25
1282.880371	2349.5
1283.422078	2418.0
1283.963729	1997.75
1284.505324	1461.75
1285.046863	1088.75
1285.588345	930.5
1286.129772	836.75
1286.671142	798.5
1287.212455	779.0
1287.753713	755.5
1288.294914	751.25
1288.836059	737.25
1289.377147	741.0
1289.91818	734.5
1290.459156	737.0
1291.000076	732.5
1291.54094	721.75
1292.081747	725.0
1292.622499	721.25
1293.163194	722.75
1293.703833	719.25
1294.244415	722.25
1294.784942	718.0
1295.325412	716.25
1295.865826	715.5
1296.406184	714.25
1296.946486	712.0
1297.486731	714.25
1298.026921	716.0
1298.567054	712.5
1299.107131	712.75
1299.647152	713.5
1300.187116	706.75
1300.727025	712.0
1301.266877	709.0
1301.806673	703.75
1302.346413	706.25
1302.886097	707.5
1303.425725	708.25
1303.965297	703.25
1304.504812	704.25
1305.044272	708.75
1305.583675	703.5
1306.123022	699.75
1306.662313	704.5
1307.201548	700.5
1307.740727	703.5
1308.279849	699.75
1308.818916	704.75
1309.357926	706.0
1309.896881	703.0
1310.435779	700.5
1310.974621	705.0
1311.513407	702.25
1312.052137	698.0
1312.590811	694.75
1313.129429	698.75
1313.667991	699.5
1314.206497	699.0
1314.744946	696.75
1315.28334	696.0
1315.821678	701.25
1316.359959	699.25
1316.898184	698.5
1317.436354	698.25
1317.974467	698.0
1318.512525	698.25
1319.050526	696.25
1319.588471	701.75
1320.12636	696.75
1320.664194	693.25
1321.201971	693.5
1321.739692	696.0
1322.277357	694.75
1322.814967	695.75
1323.35252	695.25
1323.890017	701.0
1324.427458	691.75
1324.964843	695.25
1325.502173	697.75
1326.039446	702.0
1326.576663	697.5
1327.113824	700.5
1327.65093	695.25
1328.187979	697.75
1328.724972	697.0
1329.26191	699.25
1329.798791	701.5
1330.335617	697.5
1330.872386	698.75
1331.4091	696.25
1331.945758	697.5
1332.48236	698.5
1333.018905	694.75
1333.555395	698.5
1334.091829	695.0
1334.628207	696.5
1335.164529	698.5
1335.700796	694.5
1336.237006	701.0
1336.77316	695.75
1337.309259	700.5
1337.845301	699.25
1338.381288	695.75
1338.917219	696.0
1339.453094	694.5
1339.988913	694.25
1340.524676	697.25
1341.060383	696.5
1341.596034	697.75
1342.13163	701.5
1342.66717	698.75
1343.202653	699.25
1343.738081	694.25
1344.273453	698.25
1344.80877	701.75
1345.34403	696.5
1345.879235	701.0
1346.414383	695.5
1346.949476	696.5
1347.484513	697.5
1348.019494	695.25
1348.55442	696.75
1349.089289	696.5
1349.624103	697.25
1350.158861	702.5
1350.693563	696.25
1351.228209	699.0
1351.7628	698.0
1352.297334	697.5
1352.831813	696.5
1353.366236	700.25
1353.900604	701.0
1354.434915	705.75
1354.969171	698.25
1355.503371	703.0
1356.037515	698.5
1356.571604	702.25
1357.105636	698.25
1357.639613	702.25
1358.173535	705.0
1358.7074	699.25
1359.24121	701.25
1359.774964	702.75
1360.308662	708.5
1360.842304	704.0
1361.375891	702.25
1361.909422	706.25
1362.442897	707.75
1362.976317	711.75
1363.50968	707.25
1364.042989	711.25
1364.576241	717.5
1365.109438	713.75
1365.642579	712.75
1366.175664	711.5
1366.708693	712.0
1367.241667	711.25
1367.774585	714.75
1368.307448	716.25
1368.840255	731.0
1369.373006	760.25
1369.905701	789.75
1370.438341	751.75
1370.970925	726.75
1371.503454	721.75
1372.035926	718.0
1372.568344	722.0
1373.100705	719.5
1373.633011	718.25
1374.165261	722.0
1374.697456	725.25
1375.229595	724.0
1375.761678	730.75
1376.293705	725.75
1376.825677	730.75
1377.357594	732.75
1377.889455	730.5
1378.42126	738.25
1378.953009	737.0
1379.484703	742.5
1380.016342	746.0
1380.547924	747.75
1381.079452	757.5
1381.610923	762.25
1382.142339	775.0
1382.673699	779.75
1383.205004	798.75
1383.736253	817.5
1384.267447	862.25
1384.798585	911.5
1385.329668	1021.25
1385.860695	1257.75
1386.391666	1842.25
1386.922582	3069.0
1387.453442	4376.75
1387.984247	3942.0
1388.514996	2314.5
1389.04569	1419.0
1389.576328	1079.5
1390.10691	935.5
1390.637437	853.75
1391.167909	818.0
1391.698325	792.0
1392.228685	777.25
1392.75899	759.75
1393.28924	752.25
1393.819434	751.25
1394.349572	744.5
1394.879655	744.25
1395.409683	733.5
1395.939655	738.0
1396.469571	728.75
1396.999432	730.75
1397.529237	732.5
1398.058987	732.25
1398.588682	728.75
1399.118321	732.5
1399.647905	730.0
1400.177433	727.25
1400.706906	728.5
1401.236323	728.75
1401.765685	729.75
1402.294991	727.25
1402.824242	724.25
1403.353437	728.25
1403.882577	735.0
1404.411662	733.5
1404.940691	739.0
1405.469665	743.25
1405.998583	747.0
1406.527446	761.25
1407.056253	780.25
1407.585005	795.5
1408.113702	835.25
1408.642343	854.25
1409.170929	875.5
1409.69946	851.25
1410.227935	829.25
1410.756354	785.25
1411.284719	753.5
1411.813028	737.75
1412.341281	725.75
1412.869479	719.5
1413.397622	718.75
1413.92571	711.75
1414.453742	711.5
1414.981718	711.5
1415.50964	712.0
1416.037506	703.75
1416.565316	704.75
1417.093072	700.25
1417.620772	699.75
1418.148416	704.5
1418.676005	693.75
1419.203539	695.5
1419.731018	702.25
1420.258441	698.5
1420.785809	698.0
1421.313122	700.5
1421.840379	701.25
1422.367582	698.25
1422.894728	702.75
1423.42182	700.0
1423.948856	699.75
1424.475837	698.0
1425.002762	696.25
1425.529633	697.25
1426.056448	692.25
1426.583207	695.75
1427.109912	691.0
1427.636561	697.5
1428.163155	695.5
1428.689694	692.25
1429.216177	688.0
1429.742605	691.5
1430.268978	687.0
1430.795296	689.5
1431.321558	690.75
1431.847765	688.75
1432.373917	688.5
1432.900014	687.5
1433.426056	691.75
1433.952042	689.25
1434.477973	689.0
1435.003849	688.5
1435.529669	690.75
1436.055435	691.25
1436.581145	690.0
1437.1068	687.75
1437.632399	684.25
1438.157944	686.25
1438.683433	688.75
1439.208868	687.75
1439.734247	684.5
1440.25957	687.0
1440.784839	687.5
1441.310053	688.75
1441.835211	683.5
1442.360314	686.0
1442.885362	685.0
1443.410355	682.0
1443.935292	686.25
1444.460175	685.75
1444.985002	686.5
1445.509774	681.5
1446.034491	685.5
1446.559153	684.0
1447.08376	684.5
1447.608312	686.25
1448.132808	683.0
1448.65725	683.5
1449.181636	676.25
1449.705967	682.75
1450.230243	685.5
1450.754464	683.25
1451.27863	682.0
1451.802741	683.75
1452.326797	683.25
1452.850797	688.0
1453.374743	680.5
1453.898633	679.5
1454.422468	682.25
1454.946249	681.0
1455.469974	680.0
1455.993644	679.5
1456.517259	682.5
1457.040819	680.5
1457.564324	682.5
1458.087773	682.75
1458.611168	681.5
1459.134508	683.25
1459.657793	683.75
1460.181022	681.5
1460.704197	680.0
1461.227316	678.25
1461.750381	680.0
1462.27339	682.25
1462.796345	728.25
1463.319244	735.5
1463.842089	685.0
1464.364878	675.75
1464.887613	678.25
1465.410292	678.0
1465.932916	678.25
1466.455486	679.5
1466.978	683.0
1467.50046	681.5
1468.022864	677.75
1468.545214	678.25
1469.067508	678.75
1469.589748	676.5
1470.111932	676.25
1470.634062	678.25
1471.156136	680.25
1471.678156	678.25
1472.20012	678.75
1472.72203	676.75
1473.243885	678.5
1473.765685	676.25
1474.28743	681.25
1474.80912	676.0
1475.330755	677.75
1475.852335	674.75
1476.37386	679.25
1476.89533	679.25
1477.416745	677.0
1477.938106	682.5
1478.459411	674.25
1478.980662	676.5
1479.501857	679.0
1480.022998	675.5
1480.544084	676.5
1481.065115	679.75
1481.586091	673.75
1482.107012	675.0
1482.627878	676.25
1483.14869	678.25
1483.669446	673.0
1484.190148	679.0
1484.710794	676.75
1485.231386	677.0
1485.751923	677.5
1486.272406	677.0
1486.792833	676.25
1487.313205	676.5
1487.833523	677.25
1488.353786	672.75
1488.873994	675.75
1489.394147	677.75
1489.914245	674.75
1490.434288	675.0
1490.954277	675.5
1491.474211	675.0
1491.99409	674.5
1492.513914	676.5
1493.033683	676.0
1493.553398	675.75
1494.073057	674.0
1494.592662	672.0
1495.112212	674.0
1495.631708	676.0
1496.151148	675.5
1496.670534	675.0
1497.189865	678.0
1497.709141	671.25
1498.228362	676.75
1498.747529	674.75
1499.266641	672.25
1499.785698	683.75
1500.3047	673.25
1500.823648	671.5
1501.34254	675.25
1501.861379	675.0
1502.380162	677.5
1502.89889	677.25
1503.417564	673.5
1503.936183	677.25
1504.454748	672.75
1504.973257	677.5
1505.491712	672.5
1506.010112	675.0
1506.528458	674.0
1507.046748	676.0
1507.564984	675.75
1508.083166	676.5
1508.601292	673.0
1509.119364	673.75
1509.637381	674.25
1510.155344	675.0
1510.673252	679.5
1511.191105	674.5
1511.708903	678.5
1512.226647	675.0
1512.744336	672.25
1513.261971	674.75
1513.77955	677.25
1514.297076	677.25
1514.814546	675.75
1515.331962	677.75
1515.849323	677.0
1516.366629	675.5
1516.883881	675.75
1517.401078	674.25
1517.918221	674.75
1518.435309	672.75
1518.952342	674.75
1519.469321	677.75
1519.986245	676.75
1520.503114	674.0
1521.019929	675.75
1521.536689	671.75
1522.053395	673.5
1522.570046	673.0
1523.086642	676.5
1523.603184	674.5
1524.119671	676.25
1524.636103	676.5
1525.152481	677.5
1525.668805	696.25
1526.701288	686.0
1527.217447	676.25
1527.733552	674.75
1528.249603	671.75
1528.765599	674.0
1529.28154	676.0
1529.797427	673.75
1530.313259	675.5
1530.829037	673.5
1531.34476	674.5
1531.860429	673.75
1532.376043	674.0
1532.891602	673.75
1533.407107	675.25
1533.922558	676.0
1534.437954	672.75
1534.953295	675.5
1535.468582	676.5
1535.983815	675.5
1536.498993	675.75
1537.014116	674.0
1537.529185	673.0
1538.044199	677.75
1538.559159	672.5
1539.074064	677.0
1539.588915	673.75
1540.103712	677.5
1540.618454	675.5
1541.133141	674.0
1541.647774	677.25
1542.162353	671.5
1542.676877	674.5
1543.191346	675.75
1543.705761	674.25
1544.220122	672.5
1544.734428	677.5
1545.24868	673.5
1545.762877	674.75
1546.27702	668.75
1546.791109	674.0
1547.305143	672.5
1547.819122	676.25
1548.333047	675.75
1548.846918	679.75
1549.360734	676.0
1549.874496	674.25
1550.388204	676.25
1550.901857	677.0
1551.415455	677.25
1551.929	679.25
1552.442489	675.5
1552.955925	677.5
1553.469306	677.0
1553.982632	676.75
1554.495905	678.75
1555.009123	675.5
1555.522286	675.25
1556.035395	676.25
1556.54845	676.5
1557.06145	675.0
1557.574396	678.25
1558.087288	676.0
1558.600125	680.5
1559.112908	676.75
1559.625637	679.25
1560.138311	673.25
1560.650931	675.5
1561.163497	678.25
1561.676008	673.5
1562.188465	677.75
1562.700867	676.0
1563.213216	677.75
1563.725509	679.0
1564.237749	678.5
1564.749934	683.5
1565.262065	682.25
1565.774142	683.25
1566.286164	682.5
1566.798132	685.25
1567.310046	679.75
1567.821906	681.75
1568.333711	682.0
1568.845462	680.5
1569.357158	679.25
1569.868801	679.5
1570.380389	678.25
1570.891922	676.75
1571.403402	680.25
1571.914827	676.5
1572.426198	676.75
1572.937515	676.5
1573.448777	678.25
1573.959985	677.25
1574.471139	675.25
1574.982239	678.0
1575.493285	674.5
1576.004276	675.75
1576.515213	675.0
1577.026096	677.5
1577.536924	673.25
1578.047698	673.75
1578.558419	673.5
1579.069084	679.0
1579.579696	679.5
1580.090254	674.5
1580.600757	673.0
1581.111206	676.25
1581.621601	675.75
1582.131941	676.25
1582.642228	675.75
1583.15246	674.25
1583.662638	678.75
1584.172762	677.5
1584.682832	676.5
1585.192847	673.75
1585.702809	675.5
1586.212716	676.75
1586.722569	676.5
1587.232368	678.25
1587.742113	678.0
1588.251803	674.5
1588.76144	673.5
1589.271022	674.75
1589.78055	672.75
1590.290024	673.25
1590.799444	676.75
1591.30881	675.25
1591.818121	676.25
1592.327379	675.0
