1042.414189	695.25
1042.980685	701.75
1043.547124	698.5
1044.113505	702.0
1044.679828	696.0
1045.246093	695.0
1045.8123	696.75
1046.378449	694.5
1046.94454	695.0
1047.510573	698.0
1048.076548	694.0
1048.642465	690.0
1049.208325	694.0
1049.774126	692.0
1050.339869	693.5
1050.905555	689.25
1051.471183	688.5
1052.036752	693.5
1052.602264	691.25
1053.167718	689.0
1053.733114	692.5
1054.298452	690.5
1054.863733	687.0
1055.428955	684.75
1055.994119	687.75
1056.559226	689.0
1057.124275	690.75
1057.689266	687.0
1058.254199	686.0
1058.819074	684.5
1059.383891	691.25
1059.94865	686.0
1060.513352	688.0
1061.077996	686.0
1061.642582	682.5
1062.20711	690.25
1062.77158	694.25
1063.335992	686.75
1063.900347	686.75
1064.464643	688.25
1065.028882	687.0
1065.593063	690.0
1066.157187	687.75
1066.721252	687.25
1067.28526	686.0
1067.84921	687.0
1068.413102	684.5
1068.976936	684.0
1069.540713	688.5
1070.104431	696.0
1070.668092	686.5
1071.231696	686.25
1071.795241	688.5
1072.358729	690.25
1072.922159	690.25
1073.485531	689.5
1074.048845	690.5
1074.612102	689.5
1075.175301	686.25
1075.738442	687.25
1076.301525	687.5
1076.864551	687.5
1077.427519	684.75
1077.990429	686.25
1078.553281	684.75
1079.116076	685.75
1079.678813	684.75
1080.241492	688.75
1080.804114	685.25
1081.366678	686.5
1081.929184	683.75
1082.491633	686.0
1083.054024	685.75
1083.616357	689.5
1084.178632	689.25
1084.74085	688.5
1085.30301	690.25
1085.865113	687.0
1086.427158	689.75
1086.989145	688.25
1087.551074	687.75
1088.112946	687.75
1088.67476	691.0
1089.236517	688.0
1089.798216	686.0
1090.359857	686.5
1090.92144	692.75
1091.482966	687.25
1092.044435	690.25
1092.605845	688.25
1093.167199	688.25
1093.728494	690.0
1094.289732	685.5
1094.850912	687.5
1095.412035	689.5
1095.9731	686.75
1096.534107	686.75
1097.095057	693.25
1097.65595	685.75
1098.216784	689.5
1098.777561	690.5
1099.338281	686.25
1099.898943	686.0
1100.459547	686.5
1101.020094	693.0
1101.580584	682.25
1102.141015	687.0
1102.701389	683.75
1103.261706	686.25
1103.821965	686.75
1104.382167	688.75
1104.942311	687.5
1105.502397	691.75
1106.062426	691.25
1106.622398	688.5
1107.182312	689.0
1107.742168	691.25
1108.301967	692.5
1108.861708	691.0
1109.421392	690.75
1109.981019	692.0
1110.540587	692.0
1111.100099	692.25
1111.659553	690.0
1112.218949	692.75
1112.778288	697.0
1113.33757	689.25
1113.896794	694.5
1114.45596	691.25
1115.015069	694.75
1115.574121	694.0
1116.133115	696.25
1116.692052	690.0
1117.250931	691.25
1117.809753	689.0
1118.368517	688.5
1118.927224	686.75
1119.485873	691.0
1120.044465	688.75
1120.603	687.0
1121.161477	687.75
1121.719897	689.0
1122.278259	686.0
1122.836564	691.0
1123.394812	688.0
1123.953002	688.75
1124.511135	687.5
1125.06921	684.0
1125.627228	684.0
1126.185189	687.5
1126.743092	683.0
1127.300938	687.0
1127.858726	688.5
1128.416457	688.75
1128.974131	687.5
1129.531748	687.0
1130.089307	686.75
1130.646808	684.75
1131.204252	692.75
1131.761639	685.0
1132.318969	687.5
1132.876241	688.0
1133.433456	685.25
1133.990614	684.0
1134.547714	687.0
1135.104757	689.25
1135.661743	683.0
1136.218671	685.0
1136.775542	687.25
1137.332356	687.0
1137.889112	686.5
1138.445811	688.25
1139.002453	688.0
1139.559037	682.5
1140.115565	685.25
1140.672035	687.25
1141.228447	682.75
1141.784803	685.5
1142.341101	686.5
1142.897342	688.0
1143.453525	684.5
1144.009651	685.5
1144.565721	690.0
1145.121732	689.5
1145.677687	684.25
1146.233584	689.5
1146.789424	682.75
1147.345207	686.5
1147.900933	688.5
1148.456601	686.75
1149.012212	686.5
1149.567766	683.75
1150.123263	683.75
1150.678702	685.75
1151.234085	689.5
1151.78941	684.75
1152.344678	685.25
1152.899888	687.5
1153.455042	687.75
1154.010138	685.75
1154.565177	689.5
1155.120159	685.0
1155.675084	688.0
1156.229951	686.0
1156.784762	686.25
1157.339515	690.75
1157.894211	680.75
1158.44885	685.0
1159.003432	683.5
1159.557956	688.25
1160.112424	687.25
1160.666834	689.0
1161.221187	685.0
1161.775483	686.25
1162.329722	685.5
1162.883904	689.25
1163.438029	683.75
1163.992096	687.25
1164.546107	684.25
1165.10006	686.5
1165.653956	683.5
1166.207795	683.25
1166.761577	684.25
1167.315302	686.0
1167.86897	682.5
1168.422581	683.75
1168.976134	685.75
1169.529631	685.75
1170.08307	687.5
1170.636453	686.0
1171.189778	683.75
1171.743046	689.0
1172.296257	686.25
1172.849412	687.5
1173.402509	688.0
1173.955549	686.75
1174.508532	683.75
1175.061458	687.75
1175.614327	686.75
1176.167138	688.0
1176.719893	688.0
1177.272591	686.75
1177.825232	686.5
1178.377816	688.0
1178.930342	690.25
1179.482812	692.25
1180.035225	690.5
1180.587581	691.0
1181.139879	689.0
1181.692121	690.0
1182.244306	686.0
1182.796434	691.25
1183.348504	693.25
1183.900518	689.0
1184.452475	692.25
1185.004375	690.0
1185.556218	690.0
1186.108004	690.0
1186.659733	690.0
1187.211405	693.75
1187.76302	686.75
1188.314578	691.75
1188.866079	690.75
1189.417523	685.5
1189.96891	686.0
1190.520241	686.5
1191.071514	686.25
1191.622731	685.75
1192.17389	688.25
1192.724993	689.5
1193.276039	709.25
1193.827027	692.0
1194.377959	685.5
1194.928834	691.5
1195.479653	685.25
1196.030414	687.25
1196.581118	689.5
1197.131766	684.75
1197.682356	683.25
1198.23289	686.25
1198.783367	685.0
1199.333786	683.75
1199.88415	687.0
1200.434456	686.0
1200.984705	685.0
1201.534898	685.75
1202.085033	687.75
1202.635112	684.75
1203.185134	687.0
1203.735099	686.75
1204.285007	686.5
1204.834859	685.25
1205.384653	686.25
1205.934391	688.0
1206.484072	688.75
1207.033696	685.75
1207.583263	690.0
1208.132774	684.25
1208.682228	690.5
1209.231624	688.0
1209.780965	688.25
1210.330248	687.0
1210.879474	686.25
1211.428644	688.75
1211.977757	690.5
1212.526813	687.75
1213.075813	686.25
1213.624755	690.75
1214.173641	688.25
1214.72247	686.25
1215.271242	688.0
1215.819958	689.0
1216.368617	687.0
1216.917219	688.5
1217.465764	686.5
1218.014253	689.75
1218.562685	688.0
1219.11106	687.75
1219.659378	688.0
1220.20764	691.25
1220.755845	689.25
1221.303993	686.5
1221.852085	690.5
1222.400119	689.5
1222.948097	690.0
1223.496019	690.0
1224.043883	693.75
1224.591691	688.5
1225.139443	691.0
1225.687137	692.5
1226.234775	689.0
1226.782357	697.5
1227.329881	687.0
1227.877349	690.5
1228.42476	692.25
1228.972115	692.75
1229.519413	690.5
1230.066654	693.75
1230.613839	692.25
1231.160967	694.0
1231.708038	693.25
1232.255053	691.25
1232.802011	693.5
1233.348912	694.25
1233.895757	691.0
1234.442545	690.5
1234.989277	689.5
1235.535951	688.25
1236.08257	691.75
1236.629131	692.25
1237.175636	688.75
1237.722085	688.5
1238.268477	691.0
1238.814812	690.5
1239.361091	690.0
1239.907313	688.5
1240.453478	694.5
1240.999587	688.75
1241.54564	695.0
1242.091636	689.0
1242.637575	690.25
1243.183457	693.0
1243.729284	693.5
1244.275053	693.5
1244.820766	691.75
1245.366423	691.5
1245.912022	690.75
1246.457566	694.25
1247.003053	691.75
1247.548483	695.75
1248.093857	694.0
1248.639174	692.75
1249.184435	695.0
1249.729639	694.75
1250.274787	692.25
1250.819878	696.0
1251.364912	692.5
1251.909891	691.75
1252.454812	692.25
1252.999677	700.0
1253.544486	694.0
1254.089238	692.75
1254.633934	696.25
1255.178573	695.75
1255.723156	693.5
1256.267682	695.75
1256.812152	697.75
1257.356565	700.75
1257.900922	698.25
1258.445223	702.0
1258.989467	696.75
1259.533654	701.25
1260.077785	715.75
1260.62186	705.0
1261.165878	712.5
1261.70984	716.75
1262.253745	722.75
1262.797594	729.5
1263.341386	732.0
1263.885123	733.0
1264.428802	728.25
1264.972425	718.0
1265.515992	711.25
1266.059503	705.5
1266.602957	706.75
1267.146354	703.25
1267.689696	703.0
1268.23298	705.25
1268.776209	699.25
1269.319381	700.75
1269.862497	696.75
1270.405556	698.75
1270.948559	704.25
1271.491506	700.0
1272.034396	699.75
1272.57723	700.75
1273.120007	700.5
1273.662728	699.75
1274.205393	700.75
1274.748002	699.75
1275.290554	701.75
1275.83305	701.75
1276.375489	701.5
1276.917872	704.5
1277.460199	706.25
1278.00247	706.0
1278.544684	709.75
1279.086842	713.25
1279.628943	722.5
1280.170989	732.0
1280.712978	752.25
1281.25491	786.0
1281.796787	880.25
1282.338607	1043.0
1282.880371	1265.0
1283.422078	1396.75
1283.963729	1317.25
1284.505324	1076.25
1285.046863	899.25
1285.588345	802.25
1286.129772	756.25
1286.671142	735.0
1287.212455	725.25
1287.753713	714.5
1288.294914	711.0
1288.836059	710.25
1289.377147	705.0
1289.91818	703.5
1290.459156	700.0
1291.000076	699.25
1291.54094	701.0
1292.081747	703.0
1292.622499	702.75
1293.163194	698.25
1293.703833	695.0
1294.244415	702.25
1294.784942	698.75
1295.325412	699.75
1295.865826	698.0
1296.406184	700.25
1296.946486	697.5
1297.486731	702.75
1298.026921	702.5
1298.567054	695.5
1299.107131	698.0
1299.647152	693.75
1300.187116	696.5
1300.727025	695.5
1301.266877	695.5
1301.806673	698.5
1302.346413	696.75
1302.886097	697.5
1303.425725	695.75
1303.965297	696.25
1304.504812	694.5
1305.044272	693.75
1305.583675	694.75
1306.123022	697.75
1306.662313	693.0
1307.201548	695.0
1307.740727	692.25
1308.279849	691.25
1308.818916	694.25
1309.357926	696.25
1309.896881	689.75
1310.435779	691.5
1310.974621	695.25
1311.513407	691.25
1312.052137	696.0
1312.590811	696.5
1313.129429	688.5
1313.667991	692.75
1314.206497	691.0
1314.744946	692.0
1315.28334	695.5
1315.821678	694.0
1316.359959	692.75
1316.898184	690.25
1317.436354	693.5
1317.974467	691.0
1318.512525	690.5
1319.050526	693.75
1319.588471	691.5
1320.12636	694.0
1320.664194	692.0
1321.201971	688.0
1321.739692	691.5
1322.277357	694.0
1322.814967	689.25
1323.35252	688.5
1323.890017	696.0
1324.427458	694.25
1324.964843	687.5
1325.502173	690.25
1326.039446	697.0
1326.576663	689.0
1327.113824	692.25
1327.65093	692.25
1328.187979	692.25
1328.724972	687.75
1329.26191	689.5
1329.798791	691.25
1330.335617	687.5
1330.872386	688.5
1331.4091	688.75
1331.945758	683.5
1332.48236	689.25
1333.018905	687.0
1333.555395	693.5
1334.091829	690.75
1334.628207	693.5
1335.164529	690.0
1335.700796	689.25
1336.237006	692.25
1336.77316	687.75
1337.309259	694.0
1337.845301	687.75
1338.381288	689.5
1338.917219	689.5
1339.453094	687.0
1339.988913	693.75
1340.524676	688.5
1341.060383	690.25
1341.596034	690.5
1342.13163	686.5
1342.66717	691.75
1343.202653	690.5
1343.738081	692.5
1344.273453	693.0
1344.80877	691.0
1345.34403	689.75
1345.879235	691.5
1346.414383	688.0
1346.949476	693.0
1347.484513	690.0
1348.019494	690.5
1348.55442	687.25
1349.089289	690.25
1349.624103	691.0
1350.158861	693.0
1350.693563	690.0
1351.228209	691.5
1351.7628	690.25
1352.297334	689.25
1352.831813	690.25
1353.366236	692.5
1353.900604	693.25
1354.434915	692.5
1354.969171	696.0
1355.503371	691.0
1356.037515	689.0
1356.571604	688.5
1357.105636	687.75
1357.639613	690.25
1358.173535	695.25
1358.7074	689.25
1359.24121	689.0
1359.774964	693.5
1360.308662	696.75
1360.842304	693.0
1361.375891	697.0
1361.909422	690.75
1362.442897	692.75
1362.976317	691.75
1363.50968	694.25
1364.042989	692.0
1364.576241	697.5
1365.109438	697.0
1365.642579	693.5
1366.175664	697.25
1366.708693	697.25
1367.241667	694.0
1367.774585	693.0
1368.307448	695.5
1368.840255	703.25
1369.373006	713.75
1369.905701	732.75
1370.438341	711.0
1370.970925	704.25
1371.503454	699.5
1372.035926	700.0
1372.568344	693.5
1373.100705	701.5
1373.633011	694.75
1374.165261	697.25
1374.697456	700.25
1375.229595	704.75
1375.761678	699.5
1376.293705	701.25
1376.825677	700.75
1377.357594	704.75
1377.889455	704.25
1378.42126	703.25
1378.953009	702.0
1379.484703	703.0
1380.016342	704.75
1380.547924	710.25
1381.079452	711.75
1381.610923	709.25
1382.142339	718.25
1382.673699	716.5
1383.205004	729.5
1383.736253	730.25
1384.267447	750.0
1384.798585	768.25
1385.329668	806.5
1385.860695	887.75
1386.391666	1069.0
1386.922582	1493.0
1387.453442	2091.75
1387.984247	2086.5
1388.514996	1452.75
1389.04569	1009.25
1389.576328	855.25
1390.10691	782.5
1390.637437	753.5
1391.167909	738.5
1391.698325	730.25
1392.228685	721.25
1392.75899	720.5
1393.28924	718.5
1393.819434	711.0
1394.349572	712.5
1394.879655	704.25
1395.409683	708.5
1395.939655	700.5
1396.469571	701.5
1396.999432	705.5
1397.529237	703.25
1398.058987	701.5
1398.588682	701.25
1399.118321	702.25
1399.647905	702.75
1400.177433	699.25
1400.706906	700.0
1401.236323	701.75
1401.765685	694.0
1402.294991	698.5
1402.824242	704.0
1403.353437	699.25
1403.882577	701.0
1404.411662	705.75
1404.940691	707.5
1405.469665	707.0
1405.998583	709.75
1406.527446	713.75
1407.056253	719.5
1407.585005	730.75
1408.113702	744.0
1408.642343	752.25
1409.170929	760.0
1409.69946	755.25
1410.227935	741.75
1410.756354	727.25
1411.284719	717.25
1411.813028	712.25
1412.341281	698.25
1412.869479	698.25
1413.397622	698.0
1413.92571	696.5
1414.453742	695.25
1414.981718	693.0
1415.50964	711.0
1416.037506	695.5
1416.565316	696.0
1417.093072	692.0
1417.620772	697.25
1418.148416	690.25
1418.676005	696.0
1419.203539	689.25
1419.731018	691.75
1420.258441	692.5
1420.785809	691.25
1421.313122	694.75
1421.840379	691.75
1422.367582	687.0
1422.894728	692.5
1423.42182	691.5
1423.948856	691.5
1424.475837	688.0
1425.002762	690.5
1425.529633	688.75
1426.056448	693.25
1426.583207	692.75
1427.109912	687.0
1427.636561	693.25
1428.163155	687.0
1428.689694	685.0
1429.216177	687.75
1429.742605	690.75
1430.268978	690.5
1430.795296	688.0
1431.321558	687.0
1431.847765	687.0
1432.373917	687.75
1432.900014	687.0
1433.426056	690.75
1433.952042	685.5
1434.477973	686.0
1435.003849	688.25
1435.529669	685.75
1436.055435	688.0
1436.581145	691.25
1437.1068	688.25
1437.632399	688.5
1438.157944	687.25
1438.683433	688.0
1439.208868	688.5
1439.734247	689.0
1440.25957	688.0
1440.784839	684.75
1441.310053	690.5
1441.835211	684.75
1442.360314	690.75
1442.885362	685.75
1443.410355	685.25
1443.935292	690.0
1444.460175	687.25
1444.985002	686.75
1445.509774	690.5
1446.034491	691.0
1446.559153	688.25
1447.08376	687.25
1447.608312	687.25
1448.132808	684.75
1448.65725	690.0
1449.181636	688.5
1449.705967	683.0
1450.230243	687.25
1450.754464	684.75
1451.27863	688.75
1451.802741	682.5
1452.326797	685.75
1452.850797	683.75
1453.374743	684.5
1453.898633	686.25
1454.422468	688.25
1454.946249	684.25
1455.469974	688.5
1455.993644	686.0
1456.517259	686.25
1457.040819	690.75
1457.564324	688.5
1458.087773	686.75
1458.611168	688.5
1459.134508	685.75
1459.657793	688.0
1460.181022	690.0
1460.704197	683.0
1461.227316	687.0
1461.750381	687.5
1462.27339	690.75
1462.796345	731.0
1463.319244	736.25
1463.842089	694.25
1464.364878	685.5
1464.887613	690.0
1465.410292	683.75
1465.932916	685.5
1466.455486	684.5
1466.978	688.75
1467.50046	682.75
1468.022864	682.25
1468.545214	682.25
1469.067508	684.75
1469.589748	685.75
1470.111932	689.5
1470.634062	686.5
1471.156136	686.0
1471.678156	686.5
1472.20012	681.5
1472.72203	686.75
1473.243885	685.0
1473.765685	688.75
1474.28743	686.0
1474.80912	686.0
1475.330755	686.0
1475.852335	683.75
1476.37386	686.0
1476.89533	686.75
1477.416745	682.5
1477.938106	684.25
1478.459411	684.75
1478.980662	684.0
1479.501857	684.5
1480.022998	684.75
1480.544084	685.0
1481.065115	684.0
1481.586091	680.75
1482.107012	681.5
1482.627878	685.25
1483.14869	684.25
1483.669446	682.75
1484.190148	684.5
1484.710794	683.0
1485.231386	683.75
1485.751923	684.25
1486.272406	682.75
1486.792833	688.5
1487.313205	682.0
1487.833523	683.25
1488.353786	683.25
1488.873994	685.25
1489.394147	681.0
1489.914245	681.5
1490.434288	681.5
1490.954277	681.75
1491.474211	685.75
1491.99409	682.5
1492.513914	680.5
1493.033683	678.5
1493.553398	682.0
1494.073057	681.25
1494.592662	684.25
1495.112212	680.5
1495.631708	682.5
1496.151148	686.5
1496.670534	677.75
1497.189865	684.0
1497.709141	681.75
1498.228362	681.75
1498.747529	681.0
1499.266641	681.5
1499.785698	692.5
1500.3047	679.25
1500.823648	681.0
1501.34254	680.0
1501.861379	681.0
1502.380162	682.5
1502.89889	681.75
1503.417564	681.0
1503.936183	683.0
1504.454748	689.0
1504.973257	678.75
1505.491712	681.75
1506.010112	681.0
1506.528458	678.0
1507.046748	681.5
1507.564984	681.5
1508.083166	679.75
1508.601292	682.25
1509.119364	678.75
1509.637381	680.75
1510.155344	680.5
1510.673252	685.5
1511.191105	679.0
1511.708903	683.5
1512.226647	680.5
1512.744336	681.75
1513.261971	684.0
1513.77955	682.5
1514.297076	683.25
1514.814546	682.25
1515.331962	682.25
1515.849323	684.0
1516.366629	685.25
1516.883881	677.25
1517.401078	683.25
1517.918221	678.75
1518.435309	680.5
1518.952342	680.5
1519.469321	686.25
1519.986245	679.75
1520.503114	679.25
1521.019929	683.5
1521.536689	679.5
1522.053395	682.5
1522.570046	683.5
1523.086642	682.75
1523.603184	681.25
1524.119671	682.75
1524.636103	681.75
1525.152481	682.25
1525.668805	703.0
1526.701288	694.0
1527.217447	680.75
1527.733552	681.0
1528.249603	681.25
1528.765599	681.5
1529.28154	681.75
1529.797427	681.5
1530.313259	679.5
1530.829037	682.5
1531.34476	685.75
1531.860429	680.0
1532.376043	679.0
1532.891602	678.75
1533.407107	679.75
1533.922558	682.0
1534.437954	679.75
1534.953295	679.0
1535.468582	682.0
1535.983815	682.25
1536.498993	681.75
1537.014116	686.75
1537.529185	682.5
1538.044199	683.25
1538.559159	679.75
1539.074064	680.5
1539.588915	684.0
1540.103712	683.0
1540.618454	679.25
1541.133141	683.25
1541.647774	681.5
1542.162353	684.5
1542.676877	683.5
1543.191346	686.0
1543.705761	676.0
1544.220122	683.75
1544.734428	683.25
1545.24868	686.75
1545.762877	685.0
1546.27702	682.25
1546.791109	680.75
1547.305143	682.5
1547.819122	679.75
1548.333047	683.75
1548.846918	681.75
1549.360734	681.0
1549.874496	682.5
1550.388204	681.25
1550.901857	679.25
1551.415455	679.25
1551.929	683.25
1552.442489	682.0
1552.955925	679.75
1553.469306	684.75
1553.982632	685.5
1554.495905	683.25
1555.009123	684.0
1555.522286	680.0
1556.035395	684.0
1556.54845	686.25
1557.06145	684.25
1557.574396	686.75
1558.087288	685.5
1558.600125	682.75
1559.112908	685.75
1559.625637	685.75
1560.138311	681.5
1560.650931	682.25
1561.163497	686.75
1561.676008	683.0
1562.188465	686.0
1562.700867	687.5
1563.213216	683.25
1563.725509	685.25
1564.237749	681.0
1564.749934	686.5
1565.262065	690.25
1565.774142	686.75
1566.286164	688.75
1566.798132	691.75
1567.310046	686.0
1567.821906	690.0
1568.333711	687.25
1568.845462	688.0
1569.357158	685.0
1569.868801	684.5
1570.380389	689.25
1570.891922	682.25
1571.403402	680.5
1571.914827	687.0
1572.426198	681.0
1572.937515	682.25
1573.448777	682.25
1573.959985	679.75
1574.471139	679.75
1574.982239	680.0
1575.493285	683.5
1576.004276	680.25
1576.515213	683.75
1577.026096	684.0
1577.536924	682.5
1578.047698	681.75
1578.558419	685.0
1579.069084	684.0
1579.579696	681.75
1580.090254	680.75
1580.600757	682.0
1581.111206	683.0
1581.621601	679.75
1582.131941	685.25
1582.642228	681.25
1583.15246	683.25
1583.662638	680.25
1584.172762	680.25
1584.682832	686.25
1585.192847	684.25
1585.702809	680.5
1586.212716	686.0
1586.722569	680.5
1587.232368	682.25
1587.742113	684.0
1588.251803	680.0
1588.76144	681.0
1589.271022	686.75
1589.78055	683.0
1590.290024	681.5
1590.799444	680.75
1591.30881	679.5
1591.818121	682.5
1592.327379	683.25
