1042.414189	683.25
1042.980685	683.25
1043.547124	685.0
1044.113505	682.5
1044.679828	683.0
1045.246093	678.75
1045.8123	676.75
1046.378449	680.75
1046.94454	677.0
1047.510573	675.0
1048.076548	678.25
1048.642465	675.5
1049.208325	674.25
1049.774126	676.0
1050.339869	674.25
1050.905555	673.75
1051.471183	677.0
1052.036752	670.25
1052.602264	669.25
1053.167718	673.0
1053.733114	668.75
1054.298452	671.0
1054.863733	670.25
1055.428955	669.75
1055.994119	671.75
1056.559226	669.25
1057.124275	670.5
1057.689266	670.75
1058.254199	673.75
1058.819074	671.0
1059.383891	666.5
1059.94865	671.5
1060.513352	668.5
1061.077996	669.0
1061.642582	668.75
1062.20711	672.25
1062.77158	667.75
1063.335992	667.75
1063.900347	667.5
1064.464643	669.25
1065.028882	669.75
1065.593063	670.25
1066.157187	670.25
1066.721252	671.25
1067.28526	667.0
1067.84921	670.75
1068.413102	669.0
1068.976936	671.5
1069.540713	670.0
1070.104431	679.25
1070.668092	669.0
1071.231696	670.25
1071.795241	671.5
1072.358729	670.25
1072.922159	667.75
1073.485531	669.0
1074.048845	671.5
1074.612102	673.5
1075.175301	670.25
1075.738442	669.75
1076.301525	670.5
1076.864551	673.5
1077.427519	672.0
1077.990429	669.0
1078.553281	677.25
1079.116076	672.75
1079.678813	674.75
1080.241492	674.25
1080.804114	678.75
1081.366678	679.25
1081.929184	679.75
1082.491633	682.25
1083.054024	680.25
1083.616357	684.5
1084.178632	681.0
1084.74085	685.25
1085.30301	685.75
1085.865113	687.75
1086.427158	689.75
1086.989145	690.25
1087.551074	691.5
1088.112946	694.75
1088.67476	695.0
1089.236517	697.75
1089.798216	702.0
1090.359857	698.75
1090.92144	699.25
1091.482966	697.25
1092.044435	704.5
1092.605845	706.25
1093.167199	704.0
1093.728494	705.25
1094.289732	705.5
1094.850912	704.25
1095.412035	707.75
1095.9731	702.5
1096.534107	701.25
1097.095057	706.25
1097.65595	694.0
1098.216784	694.0
1098.777561	690.0
1099.338281	688.5
1099.898943	685.0
1100.459547	687.25
1101.020094	689.0
1101.580584	680.25
1102.141015	677.5
1102.701389	679.5
1103.261706	678.0
1103.821965	676.0
1104.382167	678.75
1104.942311	673.25
1105.502397	677.5
1106.062426	674.0
1106.622398	673.0
1107.182312	669.0
1107.742168	671.0
1108.301967	670.75
1108.861708	668.25
1109.421392	672.0
1109.981019	670.75
1110.540587	669.5
1111.100099	672.0
1111.659553	670.75
1112.218949	671.0
1112.778288	672.5
1113.33757	668.25
1113.896794	668.75
1114.45596	669.0
1115.015069	666.0
1115.574121	666.5
1116.133115	667.25
1116.692052	668.0
1117.250931	672.0
1117.809753	667.25
1118.368517	667.0
1118.927224	665.5
1119.485873	669.5
1120.044465	666.0
1120.603	665.25
1121.161477	668.25
1121.719897	668.25
1122.278259	669.25
1122.836564	665.75
1123.394812	664.25
1123.953002	666.25
1124.511135	667.25
1125.06921	668.0
1125.627228	665.75
1126.185189	669.25
1126.743092	669.75
1127.300938	667.75
1127.858726	669.25
1128.416457	675.25
1128.974131	673.5
1129.531748	673.0
1130.089307	673.25
1130.646808	671.25
1131.204252	669.25
1131.761639	667.25
1132.318969	667.0
1132.876241	667.25
1133.433456	664.25
1133.990614	664.25
1134.547714	669.0
1135.104757	668.0
1135.661743	667.25
1136.218671	666.25
1136.775542	665.0
1137.332356	665.5
1137.889112	666.25
1138.445811	666.25
1139.002453	667.0
1139.559037	665.25
1140.115565	667.5
1140.672035	663.5
1141.228447	665.75
1141.784803	662.75
1142.341101	667.5
1142.897342	664.5
1143.453525	666.5
1144.009651	666.75
1144.565721	665.25
1145.121732	667.75
1145.677687	666.5
1146.233584	668.5
1146.789424	667.0
1147.345207	665.5
1147.900933	665.25
1148.456601	666.75
1149.012212	667.25
1149.567766	666.75
1150.123263	668.5
1150.678702	663.0
1151.234085	664.25
1151.78941	666.25
1152.344678	666.0
1152.899888	663.0
1153.455042	662.5
1154.010138	669.0
1154.565177	666.25
1155.120159	663.75
1155.675084	663.0
1156.229951	664.25
1156.784762	664.25
1157.339515	667.75
1157.894211	666.0
1158.44885	666.75
1159.003432	668.25
1159.557956	665.25
1160.112424	664.25
1160.666834	668.25
1161.221187	665.75
1161.775483	669.25
1162.329722	665.25
1162.883904	665.75
1163.438029	664.5
1163.992096	665.75
1164.546107	664.5
1165.10006	665.25
1165.653956	663.0
1166.207795	664.25
1166.761577	667.0
1167.315302	664.75
1167.86897	663.75
1168.422581	665.5
1168.976134	664.5
1169.529631	667.75
1170.08307	663.75
1170.636453	666.25
1171.189778	666.5
1171.743046	666.0
1172.296257	663.0
1172.849412	665.75
1173.402509	665.75
1173.955549	662.75
1174.508532	665.75
1175.061458	666.0
1175.614327	663.75
1176.167138	668.5
1176.719893	665.0
1177.272591	663.25
1177.825232	664.5
1178.377816	665.75
1178.930342	664.0
1179.482812	666.5
1180.035225	664.0
1180.587581	665.25
1181.139879	662.75
1181.692121	666.75
1182.244306	665.0
1182.796434	668.0
1183.348504	664.25
1183.900518	664.25
1184.452475	664.5
1185.004375	663.5
1185.556218	664.0
1186.108004	666.25
1186.659733	662.75
1187.211405	666.75
1187.76302	665.25
1188.314578	666.25
1188.866079	664.5
1189.417523	665.0
1189.96891	664.0
1190.520241	664.75
1191.071514	665.25
1191.622731	663.25
1192.17389	665.75
1192.724993	664.75
1193.276039	685.0
1193.827027	666.75
1194.377959	666.0
1194.928834	664.5
1195.479653	665.0
1196.030414	663.75
1196.581118	664.75
1197.131766	666.25
1197.682356	663.25
1198.23289	666.25
1198.783367	663.0
1199.333786	662.25
1199.88415	665.75
1200.434456	661.5
1200.984705	666.0
1201.534898	663.75
1202.085033	665.25
1202.635112	663.25
1203.185134	667.25
1203.735099	665.5
1204.285007	664.5
1204.834859	667.0
1205.384653	664.5
1205.934391	663.75
1206.484072	666.0
1207.033696	665.75
1207.583263	664.0
1208.132774	665.0
1208.682228	664.25
1209.231624	666.25
1209.780965	663.75
1210.330248	666.25
1210.879474	668.5
1211.428644	667.75
1211.977757	666.75
1212.526813	666.75
1213.075813	666.0
1213.624755	666.75
1214.173641	667.25
1214.72247	669.5
1215.271242	666.25
1215.819958	666.75
1216.368617	663.25
1216.917219	664.75
1217.465764	666.75
1218.014253	666.5
1218.562685	664.25
1219.11106	664.5
1219.659378	668.25
1220.20764	665.25
1220.755845	668.0
1221.303993	666.25
1221.852085	665.25
1222.400119	667.75
1222.948097	662.75
1223.496019	666.0
1224.043883	667.75
1224.591691	664.0
1225.139443	666.0
1225.687137	668.25
1226.234775	666.0
1226.782357	667.0
1227.329881	663.25
1227.877349	663.75
1228.42476	665.0
1228.972115	664.5
1229.519413	668.25
1230.066654	668.5
1230.613839	665.0
1231.160967	663.25
1231.708038	667.75
1232.255053	666.5
1232.802011	668.75
1233.348912	669.75
1233.895757	668.0
1234.442545	665.25
1234.989277	666.25
1235.535951	667.25
1236.08257	669.5
1236.629131	662.5
1237.175636	666.25
1237.722085	666.5
1238.268477	667.0
1238.814812	665.25
1239.361091	664.0
1239.907313	664.25
1240.453478	666.5
1240.999587	664.25
1241.54564	665.5
1242.091636	664.75
1242.637575	668.5
1243.183457	666.25
1243.729284	670.0
1244.275053	665.75
1244.820766	669.5
1245.366423	665.75
1245.912022	666.5
1246.457566	666.0
1247.003053	666.0
1247.548483	665.0
1248.093857	666.5
1248.639174	664.25
1249.184435	667.0
1249.729639	666.25
1250.274787	665.5
1250.819878	667.75
1251.364912	666.25
1251.909891	668.25
1252.454812	667.25
1252.999677	665.75
1253.544486	666.25
1254.089238	666.0
1254.633934	666.0
1255.178573	666.0
1255.723156	669.0
1256.267682	668.0
1256.812152	663.0
1257.356565	668.5
1257.900922	663.0
1258.445223	669.75
1258.989467	668.0
1259.533654	668.75
1260.077785	682.0
1260.62186	665.5
1261.165878	667.75
1261.70984	666.75
1262.253745	669.0
1262.797594	670.5
1263.341386	674.25
1263.885123	676.25
1264.428802	679.0
1264.972425	683.0
1265.515992	681.25
1266.059503	675.75
1266.602957	672.25
1267.146354	669.25
1267.689696	666.75
1268.23298	671.25
1268.776209	668.0
1269.319381	667.75
1269.862497	669.0
1270.405556	665.75
1270.948559	668.5
1271.491506	668.5
1272.034396	667.0
1272.57723	670.25
1273.120007	669.0
1273.662728	670.0
1274.205393	668.25
1274.748002	668.25
1275.290554	665.75
1275.83305	666.0
1276.375489	668.5
1276.917872	672.0
1277.460199	670.25
1278.00247	667.5
1278.544684	667.25
1279.086842	667.25
1279.628943	676.0
1280.170989	672.5
1280.712978	673.25
1281.25491	674.0
1281.796787	675.5
1282.338607	683.75
1282.880371	694.75
1283.422078	716.25
1283.963729	765.5
1284.505324	866.75
1285.046863	944.75
1285.588345	857.0
1286.129772	746.75
1286.671142	698.75
1287.212455	684.75
1287.753713	678.75
1288.294914	672.5
1288.836059	669.5
1289.377147	671.75
1289.91818	671.0
1290.459156	671.0
1291.000076	669.0
1291.54094	670.0
1292.081747	666.5
1292.622499	666.75
1293.163194	670.0
1293.703833	668.0
1294.244415	666.5
1294.784942	668.25
1295.325412	668.5
1295.865826	667.0
1296.406184	665.75
1296.946486	665.25
1297.486731	666.75
1298.026921	665.5
1298.567054	664.75
1299.107131	669.25
1299.647152	666.5
1300.187116	668.5
1300.727025	667.0
1301.266877	666.75
1301.806673	667.25
1302.346413	665.5
1302.886097	668.5
1303.425725	663.25
1303.965297	665.25
1304.504812	665.75
1305.044272	666.5
1305.583675	666.75
1306.123022	666.0
1306.662313	668.25
1307.201548	664.5
1307.740727	666.5
1308.279849	665.0
1308.818916	667.5
1309.357926	665.0
1309.896881	666.0
1310.435779	665.25
1310.974621	666.25
1311.513407	666.0
1312.052137	669.25
1312.590811	665.25
1313.129429	664.5
1313.667991	666.0
1314.206497	667.5
1314.744946	664.75
1315.28334	666.0
1315.821678	669.75
1316.359959	662.5
1316.898184	667.25
1317.436354	668.0
1317.974467	666.0
1318.512525	666.75
1319.050526	669.5
1319.588471	663.75
1320.12636	666.25
1320.664194	661.75
1321.201971	666.25
1321.739692	667.0
1322.277357	670.25
1322.814967	666.25
1323.35252	667.25
1323.890017	673.0
1324.427458	667.0
1324.964843	666.5
1325.502173	665.25
1326.039446	666.75
1326.576663	665.0
1327.113824	665.25
1327.65093	667.25
1328.187979	663.75
1328.724972	665.75
1329.26191	667.25
1329.798791	665.0
1330.335617	665.75
1330.872386	666.5
1331.4091	666.0
1331.945758	663.5
1332.48236	665.5
1333.018905	667.75
1333.555395	667.0
1334.091829	663.5
1334.628207	667.75
1335.164529	665.5
1335.700796	664.75
1336.237006	664.75
1336.77316	665.75
1337.309259	667.75
1337.845301	667.5
1338.381288	665.75
1338.917219	667.0
1339.453094	667.25
1339.988913	667.75
1340.524676	668.0
1341.060383	666.5
1341.596034	663.75
1342.13163	668.25
1342.66717	668.75
1343.202653	666.75
1343.738081	666.75
1344.273453	667.25
1344.80877	665.5
1345.34403	666.75
1345.879235	666.5
1346.414383	667.75
1346.949476	667.25
1347.484513	663.0
1348.019494	662.75
1348.55442	666.5
1349.089289	665.75
1349.624103	664.0
1350.158861	668.75
1350.693563	664.25
1351.228209	668.0
1351.7628	667.75
1352.297334	666.75
1352.831813	665.5
1353.366236	668.25
1353.900604	665.25
1354.434915	665.5
1354.969171	667.0
1355.503371	666.0
1356.037515	665.5
1356.571604	666.25
1357.105636	668.75
1357.639613	665.5
1358.173535	664.75
1358.7074	665.75
1359.24121	669.0
1359.774964	668.25
1360.308662	665.0
1360.842304	667.0
1361.375891	667.25
1361.909422	665.75
1362.442897	666.25
1362.976317	668.0
1363.50968	668.75
1364.042989	667.75
1364.576241	666.0
1365.109438	665.75
1365.642579	665.25
1366.175664	667.75
1366.708693	668.0
1367.241667	667.75
1367.774585	665.25
1368.307448	668.0
1368.840255	665.75
1369.373006	668.75
1369.905701	673.5
1370.438341	675.75
1370.970925	673.25
1371.503454	667.25
1372.035926	668.75
1372.568344	669.5
1373.100705	671.25
1373.633011	667.75
1374.165261	664.5
1374.697456	667.75
1375.229595	667.0
1375.761678	668.25
1376.293705	663.5
1376.825677	669.25
1377.357594	666.75
1377.889455	668.0
1378.42126	667.5
1378.953009	669.5
1379.484703	666.5
1380.016342	670.75
1380.547924	668.5
1381.079452	670.5
1381.610923	671.0
1382.142339	672.25
1382.673699	669.25
1383.205004	670.75
1383.736253	672.75
1384.267447	675.0
1384.798585	677.75
1385.329668	679.0
1385.860695	685.0
1386.391666	694.25
1386.922582	718.75
1387.453442	779.75
1387.984247	966.5
1388.514996	1209.25
1389.04569	1028.0
1389.576328	779.75
1390.10691	705.5
1390.637437	690.75
1391.167909	684.5
1391.698325	676.5
1392.228685	675.0
1392.75899	674.75
1393.28924	671.25
1393.819434	671.0
1394.349572	668.25
1394.879655	670.0
1395.409683	669.75
1395.939655	667.75
1396.469571	668.25
1396.999432	668.0
1397.529237	668.25
1398.058987	668.25
1398.588682	669.0
1399.118321	671.0
1399.647905	666.25
1400.177433	666.5
1400.706906	668.5
1401.236323	667.75
1401.765685	668.5
1402.294991	668.5
1402.824242	667.0
1403.353437	669.25
1403.882577	669.0
1404.411662	667.0
1404.940691	670.5
1405.469665	670.75
1405.998583	666.75
1406.527446	669.25
1407.056253	668.0
1407.585005	669.5
1408.113702	673.0
1408.642343	676.25
1409.170929	684.25
1409.69946	693.75
1410.227935	697.0
1410.756354	688.25
1411.284719	679.0
1411.813028	672.0
1412.341281	671.0
1412.869479	667.5
1413.397622	667.25
1413.92571	667.75
1414.453742	664.75
1414.981718	664.5
1415.50964	680.0
1416.037506	665.25
1416.565316	665.75
1417.093072	667.0
1417.620772	665.5
1418.148416	665.75
1418.676005	665.5
1419.203539	666.75
1419.731018	663.25
1420.258441	667.25
1420.785809	665.5
1421.313122	665.0
1421.840379	667.0
1422.367582	666.5
1422.894728	666.0
1423.42182	664.5
1423.948856	665.0
1424.475837	668.75
1425.002762	666.5
1425.529633	664.75
1426.056448	665.25
1426.583207	669.75
1427.109912	665.5
1427.636561	664.75
1428.163155	663.5
1428.689694	666.5
1429.216177	664.75
1429.742605	667.75
1430.268978	665.25
1430.795296	665.5
1431.321558	664.25
1431.847765	665.5
1432.373917	665.5
1432.900014	662.5
1433.426056	663.0
1433.952042	665.0
1434.477973	663.5
1435.003849	666.0
1435.529669	665.25
1436.055435	665.25
1436.581145	664.0
1437.1068	665.25
1437.632399	664.0
1438.157944	664.0
1438.683433	664.25
1439.208868	663.5
1439.734247	662.75
1440.25957	663.25
1440.784839	663.5
1441.310053	667.0
1441.835211	666.0
1442.360314	666.5
1442.885362	663.25
1443.410355	665.0
1443.935292	661.0
1444.460175	667.5
1444.985002	666.75
1445.509774	664.0
1446.034491	663.25
1446.559153	664.5
1447.08376	667.75
1447.608312	666.0
1448.132808	664.25
1448.65725	664.75
1449.181636	664.5
1449.705967	666.0
1450.230243	665.25
1450.754464	663.0
1451.27863	663.5
1451.802741	661.75
1452.326797	664.75
1452.850797	664.5
1453.374743	664.0
1453.898633	665.25
1454.422468	664.25
1454.946249	665.75
1455.469974	663.25
1455.993644	662.0
1456.517259	661.75
1457.040819	665.0
1457.564324	664.25
1458.087773	661.25
1458.611168	661.5
1459.134508	663.0
1459.657793	661.5
1460.181022	664.0
1460.704197	666.5
1461.227316	664.75
1461.750381	664.0
1462.27339	670.0
1462.796345	687.75
1463.319244	688.0
1463.842089	663.75
1464.364878	666.5
1464.887613	664.25
1465.410292	662.75
1465.932916	669.0
1466.455486	664.75
1466.978	664.25
1467.50046	663.25
1468.022864	664.25
1468.545214	664.25
1469.067508	665.5
1469.589748	663.75
1470.111932	663.75
1470.634062	662.5
1471.156136	663.25
1471.678156	664.5
1472.20012	663.0
1472.72203	664.25
1473.243885	661.25
1473.765685	663.25
1474.28743	663.75
1474.80912	664.75
1475.330755	662.75
1475.852335	665.0
1476.37386	662.5
1476.89533	660.5
1477.416745	662.25
1477.938106	664.25
1478.459411	663.75
1478.980662	660.0
1479.501857	665.0
1480.022998	661.5
1480.544084	662.5
1481.065115	663.5
1481.586091	662.25
1482.107012	663.0
1482.627878	664.75
1483.14869	664.75
1483.669446	663.5
1484.190148	663.25
1484.710794	662.75
1485.231386	663.25
1485.751923	664.0
1486.272406	662.25
1486.792833	663.5
1487.313205	663.25
1487.833523	661.75
1488.353786	663.5
1488.873994	663.25
1489.394147	666.0
1489.914245	661.5
1490.434288	663.75
1490.954277	660.25
1491.474211	663.0
1491.99409	660.5
1492.513914	663.5
1493.033683	663.25
1493.553398	662.0
1494.073057	664.75
1494.592662	663.5
1495.112212	665.0
1495.631708	660.25
1496.151148	662.25
1496.670534	665.5
1497.189865	660.75
1497.709141	664.25
1498.228362	663.25
1498.747529	663.5
1499.266641	662.75
1499.785698	672.0
1500.3047	661.5
1500.823648	662.75
1501.34254	661.0
1501.861379	661.25
1502.380162	663.5
1502.89889	662.0
1503.417564	661.5
1503.936183	666.25
1504.454748	661.5
1504.973257	663.0
1506.528458	664.25
1507.046748	660.25
1507.564984	661.75
1508.083166	663.25
1508.601292	663.25
1509.119364	664.5
1509.637381	665.25
1510.155344	660.5
1510.673252	669.75
1511.191105	666.75
1511.708903	662.25
1512.226647	666.0
1512.744336	660.25
1513.261971	662.75
1513.77955	662.0
1514.297076	666.75
1514.814546	661.75
1515.331962	662.25
1515.849323	662.25
1516.366629	663.75
1516.883881	661.5
1517.401078	664.5
1517.918221	661.5
1518.435309	663.0
1518.952342	663.0
1519.469321	662.25
1519.986245	662.5
1520.503114	661.75
1521.019929	661.25
1521.536689	663.75
1522.053395	660.0
1522.570046	662.0
1523.086642	663.25
1523.603184	663.5
1524.119671	664.75
1524.636103	664.0
1525.152481	666.0
1525.668805	675.5
1526.185073	688.75
1526.701288	669.25
1527.217447	661.75
1527.733552	663.25
1528.249603	659.0
1528.765599	662.75
1529.28154	663.5
1529.797427	666.0
1530.313259	663.0
1530.829037	661.25
1531.34476	663.75
1531.860429	661.25
1532.376043	661.75
1532.891602	662.25
1533.407107	664.0
1533.922558	662.75
1534.437954	663.25
1534.953295	666.5
1535.468582	662.75
1535.983815	660.25
1536.498993	661.75
1537.014116	662.0
1537.529185	662.25
1538.044199	661.5
1538.559159	660.75
1539.074064	664.0
1539.588915	663.75
1540.103712	665.0
1540.618454	661.0
1541.133141	662.25
1541.647774	662.75
1542.162353	662.5
1542.676877	665.25
1543.191346	662.75
1543.705761	665.0
1544.220122	665.0
1544.734428	663.0
1545.24868	664.0
1545.762877	661.75
1546.27702	661.75
1546.791109	664.25
1547.305143	663.25
1547.819122	665.75
1548.333047	663.75
1548.846918	662.5
1549.360734	663.0
1549.874496	665.5
1550.388204	663.75
1550.901857	662.25
1551.415455	662.0
1551.929	661.0
1552.442489	663.0
1552.955925	662.0
1553.469306	662.25
1553.982632	664.75
1554.495905	667.5
1555.009123	663.0
1555.522286	665.25
1556.035395	665.0
1556.54845	661.0
1557.06145	662.25
1557.574396	664.25
1558.087288	662.0
1558.600125	664.5
1559.112908	663.5
1559.625637	663.5
1560.138311	661.0
1560.650931	663.25
1561.163497	663.0
1561.676008	663.0
1562.188465	664.25
1562.700867	663.0
1563.213216	667.5
1563.725509	665.75
1564.237749	663.5
1564.749934	666.75
1565.262065	664.0
1565.774142	664.75
1566.286164	665.5
1566.798132	668.5
1567.310046	667.75
1567.821906	666.0
1568.333711	663.5
1568.845462	665.25
1569.357158	666.25
1569.868801	660.5
1570.380389	662.75
1570.891922	665.0
1571.403402	664.25
1571.914827	661.0
1572.426198	663.75
1572.937515	664.0
1573.448777	664.75
1573.959985	664.25
1574.471139	662.25
1574.982239	663.0
1575.493285	659.75
1576.004276	660.75
1576.515213	662.25
1577.026096	665.0
1577.536924	661.25
1578.047698	661.5
1578.558419	663.25
1579.069084	663.75
1579.579696	662.75
1580.090254	661.75
1580.600757	665.25
1581.111206	663.25
1581.621601	662.75
1582.131941	664.5
1582.642228	661.5
1583.15246	661.5
1583.662638	661.25
1584.172762	660.75
1584.682832	662.25
1585.192847	659.0
1585.702809	664.75
1586.212716	665.0
1586.722569	664.75
1587.232368	663.0
1587.742113	662.5
1588.251803	662.5
1588.76144	661.25
1589.271022	661.5
1589.78055	660.75
1590.290024	661.0
1590.799444	662.0
1591.30881	662.0
1591.818121	663.25
1592.327379	662.0
