1042.414189	689.75
1042.980685	686.5
1043.547124	681.75
1044.113505	685.0
1044.679828	685.75
1045.246093	684.5
1045.8123	683.5
1046.378449	680.5
1046.94454	679.75
1047.510573	680.5
1048.076548	678.0
1048.642465	679.75
1049.208325	674.75
1049.774126	679.0
1050.339869	677.0
1050.905555	678.75
1051.471183	678.75
1052.036752	674.5
1052.602264	675.0
1053.167718	676.25
1053.733114	675.5
1054.298452	675.0
1054.863733	676.75
1055.428955	672.75
1055.994119	674.75
1056.559226	674.0
1057.124275	676.0
1057.689266	674.75
1058.254199	674.0
1058.819074	678.25
1059.383891	673.75
1059.94865	674.25
1060.513352	674.75
1061.077996	674.75
1061.642582	675.0
1062.20711	675.75
1062.77158	672.75
1063.335992	675.0
1063.900347	673.25
1064.464643	674.0
1065.028882	670.0
1065.593063	671.75
1066.157187	672.75
1066.721252	673.0
1067.28526	677.0
1067.84921	671.0
1068.413102	677.0
1068.976936	672.5
1069.540713	673.0
1070.104431	680.0
1070.668092	672.25
1071.231696	672.5
1071.795241	673.0
1072.358729	674.5
1072.922159	670.25
1073.485531	677.0
1074.048845	671.25
1074.612102	675.75
1075.175301	672.0
1075.738442	670.5
1076.301525	673.25
1076.864551	671.75
1077.427519	674.75
1077.990429	675.5
1078.553281	674.5
1079.116076	674.5
1079.678813	671.75
1080.241492	674.5
1080.804114	676.25
1081.366678	676.25
1081.929184	673.75
1082.491633	677.0
1083.054024	674.75
1083.616357	675.75
1084.178632	675.5
1084.74085	674.0
1085.30301	674.5
1085.865113	676.25
1086.427158	674.25
1086.989145	674.25
1087.551074	677.25
1088.112946	675.0
1088.67476	674.5
1089.236517	676.25
1089.798216	677.5
1090.359857	678.5
1090.92144	675.75
1091.482966	675.25
1092.044435	679.5
1092.605845	677.5
1093.167199	678.0
1093.728494	678.5
1094.289732	675.25
1094.850912	675.5
1095.412035	683.75
1095.9731	677.5
1096.534107	675.75
1097.095057	683.0
1097.65595	676.5
1098.216784	676.25
1098.777561	677.5
1099.338281	673.25
1099.898943	673.25
1100.459547	677.25
1101.020094	675.0
1101.580584	676.5
1102.141015	674.75
1102.701389	673.75
1103.261706	674.75
1103.821965	674.5
1104.382167	674.75
1104.942311	674.5
1105.502397	673.0
1106.062426	675.5
1106.622398	675.5
1107.182312	674.75
1107.742168	673.5
1108.301967	673.5
1108.861708	677.0
1109.421392	673.5
1109.981019	673.25
1110.540587	669.25
1111.100099	675.75
1111.659553	670.5
1112.218949	671.5
1112.778288	670.25
1113.33757	674.25
1113.896794	672.75
1114.45596	671.5
1115.015069	670.25
1115.574121	671.75
1116.133115	674.0
1116.692052	671.75
1117.250931	672.5
1117.809753	669.75
1118.368517	671.25
1118.927224	673.0
1119.485873	672.0
1120.044465	673.0
1120.603	672.75
1121.161477	672.25
1121.719897	670.25
1122.278259	669.75
1122.836564	673.5
1123.394812	672.75
1123.953002	672.0
1124.511135	675.0
1125.06921	673.0
1125.627228	667.5
1126.185189	672.5
1126.743092	671.0
1127.300938	672.25
1127.858726	675.5
1128.416457	674.0
1128.974131	670.75
1129.531748	670.5
1130.089307	673.0
1130.646808	672.25
1131.204252	675.25
1131.761639	671.25
1132.318969	673.75
1132.876241	675.0
1133.433456	672.0
1133.990614	671.0
1134.547714	672.25
1135.104757	671.75
1135.661743	668.75
1136.218671	672.5
1136.775542	672.5
1137.332356	671.75
1137.889112	672.0
1138.445811	672.75
1139.002453	670.75
1139.559037	669.5
1140.115565	673.0
1140.672035	672.0
1141.228447	669.5
1141.784803	673.5
1142.341101	670.0
1142.897342	671.0
1143.453525	673.25
1144.009651	672.5
1144.565721	672.5
1145.121732	676.5
1145.677687	667.75
1146.233584	671.75
1146.789424	674.5
1147.345207	675.25
1147.900933	671.0
1148.456601	674.75
1149.012212	670.25
1149.567766	673.75
1150.123263	673.0
1150.678702	673.5
1151.234085	673.0
1151.78941	670.75
1152.344678	674.25
1152.899888	669.0
1153.455042	673.0
1154.010138	674.25
1154.565177	672.5
1155.120159	673.75
1155.675084	671.75
1156.229951	669.5
1156.784762	676.0
1157.339515	670.25
1157.894211	674.5
1158.44885	671.5
1159.003432	673.25
1159.557956	672.5
1160.112424	670.25
1160.666834	669.0
1161.221187	674.5
1161.775483	671.0
1162.329722	676.25
1162.883904	672.75
1163.438029	671.5
1163.992096	669.0
1164.546107	673.5
1165.10006	670.0
1165.653956	671.5
1166.207795	668.75
1166.761577	674.25
1167.315302	671.0
1167.86897	673.5
1168.422581	668.5
1168.976134	669.75
1169.529631	672.5
1170.08307	670.0
1170.636453	669.75
1171.189778	672.0
1171.743046	672.25
1172.296257	671.75
1172.849412	670.25
1173.402509	670.25
1173.955549	671.0
1174.508532	672.0
1175.061458	673.25
1175.614327	669.75
1176.167138	672.0
1176.719893	673.25
1177.272591	670.5
1177.825232	670.5
1178.377816	673.5
1178.930342	671.25
1179.482812	673.25
1180.035225	675.75
1180.587581	672.0
1181.139879	670.0
1181.692121	671.5
1182.244306	673.25
1182.796434	674.25
1183.348504	671.5
1183.900518	670.75
1184.452475	669.25
1185.004375	673.25
1185.556218	671.25
1186.108004	671.5
1186.659733	669.0
1187.211405	667.75
1187.76302	671.25
1188.314578	674.75
1188.866079	671.5
1189.417523	670.0
1189.96891	673.25
1190.520241	669.0
1191.071514	676.0
1191.622731	669.25
1192.17389	674.0
1192.724993	670.5
1193.276039	688.75
1193.827027	672.5
1194.377959	677.0
1194.928834	670.5
1195.479653	674.5
1196.030414	674.0
1196.581118	674.0
1197.131766	673.75
1197.682356	673.25
1198.23289	675.0
1198.783367	671.75
1199.333786	674.0
1199.88415	672.0
1200.434456	669.75
1200.984705	672.75
1201.534898	670.75
1202.085033	672.0
1202.635112	673.0
1203.185134	674.25
1203.735099	672.5
1204.285007	671.75
1204.834859	670.25
1205.384653	673.75
1205.934391	669.5
1206.484072	669.0
1207.033696	673.5
1207.583263	672.75
1208.132774	674.75
1208.682228	673.5
1209.231624	671.75
1209.780965	670.0
1210.330248	676.5
1210.879474	674.0
1211.428644	671.5
1211.977757	675.25
1212.526813	671.5
1213.075813	675.0
1213.624755	675.25
1214.173641	671.75
1214.72247	673.0
1215.271242	672.5
1215.819958	673.25
1216.368617	671.0
1216.917219	673.75
1217.465764	675.0
1218.014253	674.25
1218.562685	674.0
1219.11106	671.25
1219.659378	673.0
1220.20764	675.0
1220.755845	673.5
1221.303993	675.0
1221.852085	674.25
1222.400119	668.5
1222.948097	672.75
1223.496019	675.0
1224.043883	673.75
1224.591691	672.5
1225.139443	671.25
1225.687137	676.5
1226.234775	672.5
1226.782357	671.75
1227.329881	674.0
1227.877349	673.5
1228.42476	671.25
1228.972115	674.5
1229.519413	673.25
1230.066654	672.75
1230.613839	672.0
1231.160967	676.25
1231.708038	672.0
1232.255053	672.25
1232.802011	673.75
1233.348912	678.75
1233.895757	670.0
1234.442545	671.0
1234.989277	674.0
1235.535951	672.25
1236.08257	675.25
1236.629131	670.0
1237.175636	674.75
1237.722085	673.75
1238.268477	673.0
1238.814812	675.75
1239.361091	676.0
1239.907313	676.0
1240.453478	674.75
1240.999587	677.25
1241.54564	673.0
1242.091636	675.0
1242.637575	673.0
1243.183457	678.0
1243.729284	670.75
1244.275053	674.25
1244.820766	673.25
1245.366423	674.75
1245.912022	673.5
1246.457566	677.0
1247.003053	672.25
1247.548483	675.75
1248.093857	676.75
1248.639174	674.5
1249.184435	676.0
1249.729639	676.0
1250.274787	674.75
1250.819878	677.5
1251.364912	674.5
1251.909891	674.25
1252.454812	678.5
1252.999677	675.0
1253.544486	673.75
1254.089238	676.25
1254.633934	675.75
1255.178573	674.25
1255.723156	676.0
1256.267682	675.0
1256.812152	673.75
1257.356565	676.5
1257.900922	678.5
1258.445223	683.25
1258.989467	683.75
1259.533654	677.75
1260.077785	697.5
1260.62186	681.5
1261.165878	681.0
1261.70984	683.5
1262.253745	687.0
1262.797594	689.25
1263.341386	692.5
1263.885123	697.25
1264.428802	698.0
1264.972425	698.0
1265.515992	689.25
1266.059503	683.25
1266.602957	682.25
1267.146354	679.5
1267.689696	681.0
1268.23298	682.0
1268.776209	678.75
1269.319381	677.0
1269.862497	681.5
1270.405556	675.25
1270.948559	679.25
1271.491506	678.0
1272.034396	678.25
1272.57723	677.25
1273.120007	678.25
1273.662728	679.25
1274.205393	678.5
1274.748002	678.25
1275.290554	679.5
1275.83305	681.25
1276.375489	680.0
1276.917872	681.75
1277.460199	680.25
1278.00247	681.0
1278.544684	683.75
1279.086842	684.0
1279.628943	685.0
1280.170989	691.5
1280.712978	690.0
1281.25491	703.25
1281.796787	720.75
1282.338607	767.5
1282.880371	848.75
1283.422078	965.25
1283.963729	1058.75
1284.505324	1035.25
1285.046863	914.25
1285.588345	789.25
1286.129772	732.75
1286.671142	704.5
1287.212455	698.25
1287.753713	690.0
1288.294914	686.25
1288.836059	687.25
1289.377147	684.0
1289.91818	683.75
1290.459156	681.25
1291.000076	681.0
1291.54094	681.75
1292.081747	676.5
1292.622499	681.5
1293.163194	679.0
1293.703833	677.25
1294.244415	680.25
1294.784942	677.75
1295.325412	679.5
1295.865826	678.5
1296.406184	678.0
1296.946486	677.5
1297.486731	677.5
1298.026921	679.25
1298.567054	679.0
1299.107131	678.0
1299.647152	676.5
1300.187116	679.25
1300.727025	672.75
1301.266877	675.75
1301.806673	676.75
1302.346413	676.5
1302.886097	676.75
1303.425725	679.75
1303.965297	674.5
1304.504812	673.5
1305.044272	675.75
1305.583675	674.25
1306.123022	678.0
1306.662313	677.75
1307.201548	676.5
1307.740727	675.25
1308.279849	676.75
1308.818916	676.0
1309.357926	677.0
1309.896881	672.25
1310.435779	673.0
1310.974621	673.25
1311.513407	673.25
1312.052137	674.5
1312.590811	673.5
1313.129429	677.5
1313.667991	675.0
1314.206497	675.0
1314.744946	676.75
1315.28334	679.0
1315.821678	678.5
1316.359959	672.25
1316.898184	675.25
1317.436354	676.5
1317.974467	670.75
1318.512525	675.0
1319.050526	675.75
1319.588471	677.5
1320.12636	676.75
1320.664194	676.25
1321.201971	672.5
1321.739692	675.25
1322.277357	672.0
1322.814967	675.75
1323.35252	677.25
1323.890017	683.25
1324.427458	677.0
1324.964843	676.5
1325.502173	676.25
1326.039446	674.5
1326.576663	676.0
1327.113824	670.0
1327.65093	672.5
1328.187979	673.0
1328.724972	673.75
1329.26191	675.75
1329.798791	673.25
1330.335617	676.75
1330.872386	672.75
1331.4091	674.5
1331.945758	672.5
1332.48236	676.25
1333.018905	673.5
1333.555395	676.0
1334.091829	674.5
1334.628207	675.0
1335.164529	673.0
1335.700796	675.5
1336.237006	671.5
1336.77316	673.75
1337.309259	677.5
1337.845301	673.0
1338.381288	671.75
1338.917219	674.75
1339.453094	674.5
1339.988913	673.5
1340.524676	672.5
1341.060383	671.25
1341.596034	672.75
1342.13163	671.25
1342.66717	673.5
1343.202653	675.25
1343.738081	674.75
1344.273453	678.25
1344.80877	673.0
1345.34403	678.75
1345.879235	673.75
1346.414383	672.25
1346.949476	672.25
1347.484513	675.75
1348.019494	671.0
1348.55442	675.75
1349.089289	676.75
1349.624103	675.25
1350.158861	674.0
1350.693563	674.25
1351.228209	676.25
1351.7628	673.5
1352.297334	675.5
1352.831813	673.75
1353.366236	677.25
1353.900604	677.75
1354.434915	674.5
1354.969171	673.25
1355.503371	676.5
1356.037515	677.0
1356.571604	678.25
1357.105636	676.5
1357.639613	674.0
1358.173535	676.5
1358.7074	676.25
1359.24121	677.75
1359.774964	676.0
1360.308662	677.25
1360.842304	679.0
1361.375891	674.5
1361.909422	675.75
1362.442897	678.25
1362.976317	674.75
1363.50968	673.25
1364.042989	679.75
1364.576241	677.0
1365.109438	677.25
1365.642579	678.75
1366.175664	679.0
1366.708693	677.5
1367.241667	676.5
1367.774585	676.0
1368.307448	677.5
1368.840255	680.0
1369.373006	683.75
1369.905701	690.75
1370.438341	690.75
1370.970925	678.5
1371.503454	681.25
1372.035926	682.0
1372.568344	678.75
1373.100705	678.75
1373.633011	679.5
1374.165261	680.25
1374.697456	677.25
1375.229595	679.25
1375.761678	679.25
1376.293705	681.0
1376.825677	681.5
1377.357594	681.0
1377.889455	682.0
1378.42126	681.5
1378.953009	683.5
1379.484703	681.0
1380.016342	681.25
1380.547924	685.75
1381.079452	683.75
1381.610923	685.75
1382.142339	686.5
1382.673699	687.75
1383.205004	690.25
1383.736253	695.0
1384.267447	698.25
1384.798585	709.75
1385.329668	719.25
1385.860695	744.5
1386.391666	794.0
1386.922582	940.25
1387.453442	1248.0
1387.984247	1538.25
1388.514996	1329.25
1389.04569	965.0
1389.576328	787.0
1390.10691	736.25
1390.637437	716.75
1391.167909	706.0
1391.698325	694.5
1392.228685	689.75
1392.75899	684.0
1393.28924	681.0
1393.819434	689.0
1394.349572	687.0
1394.879655	681.5
1395.409683	687.5
1395.939655	681.25
1396.469571	684.0
1396.999432	682.25
1397.529237	678.75
1398.058987	682.25
1398.588682	680.75
1399.118321	681.25
1399.647905	677.25
1400.177433	678.75
1400.706906	684.75
1401.236323	678.75
1401.765685	674.25
1402.294991	680.5
1402.824242	679.5
1403.353437	680.75
1403.882577	680.5
1404.411662	680.0
1404.940691	678.5
1405.469665	680.75
1405.998583	679.0
1406.527446	683.0
1407.056253	688.75
1407.585005	688.75
1408.113702	699.25
1408.642343	707.5
1409.170929	718.25
1409.69946	727.25
1410.227935	712.25
1410.756354	696.25
1411.284719	691.25
1411.813028	684.5
1412.341281	681.5
1412.869479	678.25
1413.397622	679.0
1413.92571	673.5
1414.453742	679.5
1414.981718	675.75
1415.50964	687.0
1416.037506	677.25
1416.565316	676.5
1417.093072	677.0
1417.620772	676.5
1418.148416	673.5
1418.676005	672.0
1419.203539	671.0
1419.731018	674.75
1420.258441	676.25
1420.785809	673.5
1421.313122	677.0
1421.840379	672.5
1422.367582	671.5
1422.894728	673.75
1423.42182	674.75
1423.948856	675.75
1424.475837	672.75
1425.002762	679.0
1425.529633	673.5
1426.056448	672.5
1426.583207	676.75
1427.109912	678.25
1427.636561	674.0
1428.163155	674.5
1428.689694	675.25
1429.216177	673.75
1429.742605	672.5
1430.268978	674.75
1430.795296	672.5
1431.321558	673.5
1431.847765	669.25
1432.373917	670.0
1432.900014	672.25
1433.426056	674.0
1433.952042	675.0
1434.477973	670.25
1435.003849	674.25
1435.529669	673.0
1436.055435	674.5
1436.581145	670.75
1437.1068	670.75
1437.632399	673.25
1438.157944	672.0
1438.683433	674.75
1439.208868	670.75
1439.734247	669.5
1440.25957	671.25
1440.784839	671.5
1441.310053	672.5
1441.835211	671.5
1442.360314	673.5
1442.885362	671.75
1443.410355	672.75
1443.935292	671.25
1444.460175	671.75
1444.985002	670.75
1445.509774	670.0
1446.034491	672.25
1446.559153	671.75
1447.08376	669.5
1447.608312	672.0
1448.132808	674.0
1448.65725	672.25
1449.181636	672.25
1449.705967	670.5
1450.230243	670.75
1450.754464	670.5
1451.27863	670.5
1451.802741	670.5
1452.326797	669.75
1452.850797	673.25
1453.374743	670.5
1453.898633	671.75
1454.422468	667.5
1454.946249	669.25
1455.469974	671.75
1455.993644	672.5
1456.517259	672.5
1457.040819	674.0
1457.564324	669.25
1458.087773	670.0
1458.611168	670.75
1459.134508	670.5
1459.657793	671.75
1460.181022	671.75
1460.704197	671.75
1461.227316	669.5
1461.750381	671.25
1462.27339	675.25
1462.796345	709.75
1463.319244	712.75
1463.842089	671.0
1464.364878	671.0
1464.887613	669.0
1465.410292	668.5
1465.932916	669.25
1466.455486	672.0
1466.978	671.25
1467.50046	667.25
1468.022864	675.0
1468.545214	667.25
1469.067508	671.0
1469.589748	672.0
1470.111932	673.75
1470.634062	670.25
1471.156136	668.25
1471.678156	670.0
1472.20012	670.0
1472.72203	671.25
1473.243885	671.5
1473.765685	670.5
1474.28743	670.0
1474.80912	668.0
1475.330755	670.25
1475.852335	667.25
1476.37386	670.0
1476.89533	670.75
1477.416745	667.5
1477.938106	669.5
1478.459411	668.5
1478.980662	672.75
1479.501857	667.75
1480.022998	669.25
1480.544084	669.5
1481.065115	670.75
1481.586091	669.0
1482.107012	669.75
1482.627878	666.0
1483.14869	668.0
1483.669446	667.0
1484.190148	667.0
1484.710794	669.75
1485.231386	669.5
1485.751923	669.75
1486.272406	671.0
1486.792833	671.0
1487.313205	670.75
1487.833523	672.0
1488.353786	670.0
1488.873994	670.75
1489.394147	669.25
1489.914245	670.0
1490.434288	667.5
1490.954277	669.25
1491.474211	670.0
1491.99409	670.25
1492.513914	669.75
1493.033683	667.75
1493.553398	670.0
1494.073057	670.75
1494.592662	665.75
1495.112212	669.75
1495.631708	668.5
1496.151148	671.5
1496.670534	669.0
1497.189865	667.25
1497.709141	669.25
1498.228362	670.5
1498.747529	667.25
1499.266641	668.25
1499.785698	677.0
1500.3047	668.0
1500.823648	668.25
1501.34254	667.0
1501.861379	671.5
1502.380162	674.5
1502.89889	670.75
1503.417564	668.75
1503.936183	666.25
1504.454748	666.75
1504.973257	668.5
1505.491712	672.25
1506.010112	667.25
1506.528458	669.75
1507.046748	668.75
1507.564984	670.5
1508.083166	669.25
1508.601292	669.0
1509.119364	669.5
1509.637381	669.75
1510.155344	669.0
1510.673252	675.25
1511.191105	667.75
1511.708903	669.75
1512.226647	668.5
1512.744336	669.25
1513.261971	670.5
1513.77955	668.0
1514.297076	668.0
1514.814546	668.75
1515.331962	670.25
1515.849323	667.75
1516.366629	666.0
1516.883881	669.5
1517.401078	664.5
1517.918221	672.75
1518.435309	669.25
1518.952342	668.0
1519.469321	669.0
1519.986245	669.0
1520.503114	669.75
1521.019929	669.5
1521.536689	666.75
1522.053395	669.5
1522.570046	671.0
1523.086642	671.75
1523.603184	667.25
1524.119671	672.25
1524.636103	668.0
1525.152481	671.5
1525.668805	688.75
1526.701288	678.0
1527.217447	666.75
1527.733552	666.0
1528.249603	669.0
1528.765599	666.5
1529.28154	669.0
1529.797427	668.0
1530.313259	668.5
1530.829037	667.5
1531.34476	669.25
1531.860429	668.5
1532.376043	672.75
1532.891602	671.0
1533.407107	670.75
1533.922558	671.25
1534.437954	669.75
1534.953295	674.0
1535.468582	669.0
1535.983815	672.25
1536.498993	672.5
1537.014116	667.75
1537.529185	666.25
1538.044199	668.75
1538.559159	665.75
1539.074064	668.25
1539.588915	670.5
1540.103712	668.5
1540.618454	670.75
1541.133141	668.0
1541.647774	669.75
1542.162353	671.25
1542.676877	666.75
1543.191346	668.25
1543.705761	671.25
1544.220122	671.0
1544.734428	670.25
1545.24868	668.25
1545.762877	669.25
1546.27702	672.5
1546.791109	670.25
1547.305143	671.25
1547.819122	672.25
1548.333047	668.75
1548.846918	669.75
1549.360734	670.25
1549.874496	672.25
1550.388204	672.0
1550.901857	669.0
1551.415455	669.5
1551.929	673.25
1552.442489	669.5
1552.955925	669.0
1553.469306	668.5
1553.982632	671.75
1554.495905	671.5
1555.009123	671.75
1555.522286	672.0
1556.035395	667.75
1556.54845	672.0
1557.06145	670.0
1557.574396	671.75
1558.087288	742.5
1558.600125	1008.25
1560.650931	686.25
1561.163497	673.0
1561.676008	669.75
1562.188465	670.25
1562.700867	670.75
1563.213216	671.25
1563.725509	671.5
1564.237749	676.75
1564.749934	677.5
1565.262065	674.25
1565.774142	670.75
1566.286164	674.5
1566.798132	675.5
1567.310046	673.25
1567.821906	676.0
1568.333711	671.5
1568.845462	671.5
1569.357158	678.0
1569.868801	672.5
1570.380389	668.25
1570.891922	671.75
1571.403402	669.25
1571.914827	671.75
1572.426198	671.5
1572.937515	671.75
1573.448777	669.75
1573.959985	671.75
1574.471139	668.5
1574.982239	667.25
1575.493285	668.25
1576.004276	671.5
1576.515213	671.0
1577.026096	666.5
1577.536924	670.25
1578.047698	669.5
1578.558419	669.25
1579.069084	667.25
1579.579696	669.75
1580.090254	669.0
1580.600757	670.75
1581.111206	668.75
1581.621601	670.25
1582.131941	669.0
1582.642228	669.0
1583.15246	669.25
1583.662638	672.75
1584.172762	671.75
1584.682832	669.75
1585.192847	668.0
1585.702809	665.25
1586.212716	669.5
1586.722569	671.25
1587.232368	672.0
1587.742113	666.25
1588.251803	664.75
1588.76144	663.5
1589.271022	670.5
1589.78055	670.75
1590.290024	666.5
1590.799444	670.5
1591.30881	667.5
1591.818121	671.0
1592.327379	666.25
