1042.414189	683.75
1042.980685	681.5
1043.547124	682.25
1044.113505	683.25
1044.679828	686.0
1045.246093	681.5
1045.8123	681.0
1046.378449	680.75
1046.94454	678.75
1047.510573	680.5
1048.076548	682.75
1048.642465	680.25
1049.208325	677.25
1049.774126	678.0
1050.339869	674.25
1050.905555	673.75
1051.471183	673.25
1052.036752	677.5
1052.602264	675.75
1053.167718	677.0
1053.733114	673.5
1054.298452	673.0
1054.863733	677.0
1055.428955	673.0
1055.994119	672.0
1056.559226	672.25
1057.124275	675.5
1057.689266	670.25
1058.254199	673.5
1058.819074	672.5
1059.383891	671.0
1059.94865	672.5
1060.513352	671.75
1061.077996	671.0
1061.642582	673.75
1062.20711	669.0
1062.77158	673.0
1063.335992	671.75
1063.900347	674.25
1064.464643	672.75
1065.028882	671.25
1065.593063	671.75
1066.157187	676.0
1066.721252	670.5
1067.28526	673.0
1067.84921	669.25
1068.413102	676.0
1068.976936	673.25
1069.540713	670.25
1070.104431	680.25
1070.668092	671.25
1071.231696	667.25
1071.795241	672.75
1072.358729	672.0
1072.922159	668.0
1073.485531	669.5
1074.048845	669.0
1074.612102	672.25
1075.175301	669.25
1075.738442	670.25
1076.301525	672.5
1076.864551	668.0
1077.427519	672.75
1077.990429	667.75
1078.553281	670.75
1079.116076	672.0
1079.678813	668.75
1080.241492	668.25
1080.804114	668.75
1081.366678	669.25
1081.929184	669.0
1082.491633	673.25
1083.054024	672.0
1083.616357	672.75
1084.178632	668.5
1084.74085	670.0
1085.30301	670.0
1085.865113	668.25
1086.427158	671.25
1086.989145	668.75
1087.551074	670.5
1088.112946	670.75
1088.67476	668.5
1089.236517	672.0
1089.798216	668.5
1090.359857	667.75
1090.92144	672.0
1091.482966	671.0
1092.044435	667.5
1092.605845	671.25
1093.167199	670.0
1093.728494	669.75
1094.289732	668.0
1094.850912	676.25
1095.412035	676.0
1095.9731	669.25
1096.534107	668.75
1097.095057	677.25
1097.65595	669.0
1098.216784	671.0
1098.777561	674.25
1099.338281	671.5
1099.898943	670.0
1100.459547	669.5
1101.020094	668.25
1101.580584	668.75
1102.141015	672.25
1102.701389	669.5
1103.261706	668.75
1103.821965	671.75
1104.382167	670.75
1104.942311	672.0
1105.502397	675.0
1106.062426	671.25
1106.622398	672.0
1107.182312	667.5
1107.742168	669.25
1108.301967	667.5
1108.861708	668.5
1109.421392	672.5
1109.981019	669.0
1110.540587	670.5
1111.100099	670.0
1111.659553	671.0
1112.218949	674.0
1112.778288	671.5
1113.33757	669.0
1113.896794	670.5
1114.45596	669.75
1115.015069	667.75
1115.574121	670.25
1116.133115	670.75
1116.692052	672.25
1117.250931	672.5
1117.809753	670.25
1118.368517	670.25
1118.927224	672.25
1119.485873	668.75
1120.044465	672.0
1120.603	672.5
1121.161477	669.75
1121.719897	671.0
1122.278259	669.0
1122.836564	670.75
1123.394812	673.0
1123.953002	670.75
1124.511135	671.5
1125.06921	670.75
1125.627228	669.0
1126.185189	670.0
1126.743092	668.5
1127.300938	671.75
1127.858726	672.25
1128.416457	668.0
1128.974131	669.5
1129.531748	669.25
1130.089307	669.5
1130.646808	668.25
1131.204252	667.25
1131.761639	666.0
1132.318969	668.25
1132.876241	670.25
1133.433456	671.75
1133.990614	670.0
1134.547714	670.0
1135.104757	669.0
1135.661743	668.25
1136.218671	669.75
1136.775542	669.0
1137.332356	668.5
1137.889112	673.0
1138.445811	668.75
1139.002453	667.5
1139.559037	671.0
1140.115565	669.0
1140.672035	667.75
1141.228447	667.5
1141.784803	670.5
1142.341101	671.0
1142.897342	671.0
1143.453525	671.25
1144.009651	670.25
1144.565721	674.75
1145.121732	670.5
1145.677687	672.25
1146.233584	669.75
1146.789424	669.5
1147.345207	668.25
1147.900933	671.25
1148.456601	670.0
1149.012212	672.0
1149.567766	667.0
1150.123263	668.5
1150.678702	670.75
1151.234085	668.0
1151.78941	669.25
1152.344678	668.5
1152.899888	671.25
1153.455042	668.5
1154.010138	668.75
1154.565177	670.75
1155.120159	672.75
1155.675084	671.5
1156.229951	672.0
1156.784762	669.5
1157.339515	670.5
1157.894211	670.25
1158.44885	671.5
1159.003432	669.25
1159.557956	672.0
1160.112424	670.5
1160.666834	670.25
1161.221187	670.0
1161.775483	670.0
1162.329722	674.0
1162.883904	670.0
1163.438029	670.5
1163.992096	670.75
1164.546107	670.5
1165.10006	671.5
1165.653956	670.75
1166.207795	668.25
1166.761577	670.5
1167.315302	671.25
1167.86897	671.25
1168.422581	672.75
1168.976134	673.0
1169.529631	669.75
1170.08307	670.0
1170.636453	668.5
1171.189778	672.75
1171.743046	668.25
1172.296257	669.0
1172.849412	670.0
1173.402509	667.75
1173.955549	670.75
1174.508532	668.25
1175.061458	668.25
1175.614327	673.5
1176.167138	670.5
1176.719893	671.75
1177.272591	672.5
1177.825232	669.0
1178.377816	667.25
1178.930342	673.0
1179.482812	668.0
1180.035225	669.5
1180.587581	668.25
1181.139879	671.25
1181.692121	669.75
1182.244306	669.5
1182.796434	669.25
1183.348504	667.25
1183.900518	669.25
1184.452475	668.75
1185.004375	669.75
1185.556218	667.75
1186.108004	667.0
1186.659733	670.25
1187.211405	669.75
1187.76302	671.0
1188.314578	665.75
1188.866079	671.75
1189.417523	670.25
1189.96891	672.0
1190.520241	670.5
1191.071514	666.5
1191.622731	668.75
1192.17389	671.25
1192.724993	671.5
1193.276039	691.75
1193.827027	668.75
1194.377959	672.75
1194.928834	671.75
1195.479653	671.25
1196.030414	671.25
1196.581118	668.5
1197.131766	670.0
1197.682356	672.0
1198.23289	670.5
1198.783367	667.5
1199.333786	669.0
1199.88415	671.0
1200.434456	669.0
1200.984705	672.75
1201.534898	668.25
1202.085033	668.0
1202.635112	667.25
1203.185134	671.75
1203.735099	668.75
1204.285007	670.0
1204.834859	668.0
1205.384653	667.75
1205.934391	667.25
1206.484072	672.5
1207.033696	672.5
1207.583263	669.75
1208.132774	669.75
1208.682228	669.0
1209.231624	673.25
1209.780965	670.75
1210.330248	669.25
1210.879474	670.5
1211.428644	672.0
1211.977757	669.0
1212.526813	674.25
1213.075813	671.75
1213.624755	672.75
1214.173641	671.75
1214.72247	671.75
1215.271242	669.75
1215.819958	669.75
1216.368617	669.5
1216.917219	670.5
1217.465764	668.75
1218.014253	668.75
1218.562685	671.25
1219.11106	671.25
1219.659378	669.25
1220.20764	670.5
1220.755845	668.75
1221.303993	672.5
1221.852085	667.5
1222.400119	671.0
1222.948097	675.25
1223.496019	670.0
1224.043883	671.5
1224.591691	669.5
1225.139443	670.75
1225.687137	673.5
1226.234775	669.5
1226.782357	672.25
1227.329881	671.25
1227.877349	669.0
1228.42476	669.5
1228.972115	671.5
1229.519413	670.5
1230.066654	673.5
1230.613839	671.25
1231.160967	670.25
1231.708038	673.75
1232.255053	668.5
1232.802011	671.5
1233.348912	670.25
1233.895757	670.25
1234.442545	670.0
1234.989277	672.5
1235.535951	673.5
1236.08257	672.25
1236.629131	668.5
1237.175636	671.0
1237.722085	671.75
1238.268477	670.25
1238.814812	672.25
1239.361091	673.0
1239.907313	670.0
1240.453478	672.0
1240.999587	671.0
1241.54564	672.0
1242.091636	670.25
1242.637575	670.0
1243.183457	671.75
1243.729284	673.0
1244.275053	670.5
1244.820766	674.0
1245.366423	670.5
1245.912022	670.75
1246.457566	670.5
1247.003053	676.5
1247.548483	667.75
1248.093857	671.0
1248.639174	673.25
1249.184435	672.0
1249.729639	674.25
1250.274787	670.0
1250.819878	673.0
1251.364912	673.0
1251.909891	673.5
1252.454812	674.25
1252.999677	669.75
1253.544486	671.75
1254.089238	672.0
1254.633934	669.5
1255.178573	668.0
1255.723156	675.0
1256.267682	674.5
1256.812152	674.25
1257.356565	673.25
1257.900922	673.5
1258.445223	677.25
1258.989467	678.75
1259.533654	679.5
1260.077785	689.75
1260.62186	676.75
1261.165878	676.25
1261.70984	678.25
1262.253745	685.0
1262.797594	686.0
1263.341386	692.25
1263.885123	692.0
1264.428802	689.75
1264.972425	688.25
1265.515992	685.25
1266.059503	677.5
1266.602957	677.25
1267.146354	675.0
1267.689696	675.0
1268.23298	679.0
1268.776209	676.75
1269.319381	673.0
1269.862497	678.25
1270.405556	677.25
1270.948559	678.0
1271.491506	674.75
1272.034396	673.5
1272.57723	676.25
1273.120007	674.75
1273.662728	675.0
1274.205393	671.75
1274.748002	677.5
1275.290554	678.5
1275.83305	676.5
1276.375489	675.0
1276.917872	679.75
1277.460199	679.0
1278.00247	678.5
1278.544684	682.5
1279.086842	678.75
1279.628943	680.75
1280.170989	689.25
1280.712978	691.0
1281.25491	705.0
1281.796787	730.0
1282.338607	777.0
1282.880371	864.25
1283.422078	955.75
1283.963729	1013.75
1284.505324	965.25
1285.046863	851.0
1285.588345	761.0
1286.129772	715.25
1286.671142	697.25
1287.212455	691.25
1287.753713	682.25
1288.294914	678.0
1288.836059	679.5
1289.377147	679.5
1289.91818	680.5
1290.459156	680.0
1291.000076	677.75
1291.54094	677.0
1292.081747	678.0
1292.622499	675.25
1293.163194	675.25
1293.703833	674.5
1294.244415	672.75
1294.784942	677.75
1295.325412	675.0
1295.865826	673.0
1296.406184	674.75
1296.946486	672.0
1297.486731	670.75
1298.026921	670.5
1298.567054	673.25
1299.107131	676.0
1299.647152	673.0
1300.187116	673.25
1300.727025	675.25
1301.266877	672.5
1301.806673	673.25
1302.346413	674.0
1302.886097	672.5
1303.425725	669.75
1303.965297	675.25
1304.504812	671.0
1305.044272	673.0
1305.583675	670.25
1306.123022	670.5
1306.662313	673.25
1307.201548	669.5
1307.740727	668.25
1308.279849	669.5
1308.818916	678.5
1309.357926	671.0
1309.896881	667.25
1310.435779	672.25
1310.974621	672.25
1311.513407	672.25
1312.052137	671.25
1312.590811	668.5
1313.129429	669.25
1313.667991	672.75
1314.206497	671.0
1314.744946	674.5
1315.28334	671.5
1315.821678	669.5
1316.359959	672.25
1316.898184	669.75
1317.436354	668.75
1317.974467	669.25
1318.512525	672.0
1319.050526	670.5
1319.588471	673.25
1320.12636	670.0
1320.664194	672.0
1321.201971	672.0
1321.739692	672.75
1322.277357	671.25
1322.814967	671.75
1323.35252	672.75
1323.890017	678.0
1324.427458	671.0
1324.964843	668.75
1325.502173	672.75
1326.039446	671.0
1326.576663	672.0
1327.113824	671.0
1327.65093	672.0
1328.187979	671.75
1328.724972	667.25
1329.26191	670.25
1329.798791	671.0
1330.335617	674.0
1330.872386	672.0
1331.4091	671.5
1331.945758	669.75
1332.48236	670.25
1333.018905	674.25
1333.555395	667.25
1334.091829	672.75
1334.628207	669.25
1335.164529	671.25
1335.700796	670.5
1336.237006	671.25
1336.77316	670.75
1337.309259	669.75
1337.845301	668.0
1338.381288	672.25
1338.917219	671.0
1339.453094	669.75
1339.988913	672.25
1340.524676	668.75
1341.060383	670.75
1341.596034	673.5
1342.13163	668.0
1342.66717	670.25
1343.202653	671.5
1343.738081	670.25
1344.273453	671.25
1344.80877	671.5
1345.34403	672.75
1345.879235	668.5
1346.414383	670.75
1346.949476	670.0
1347.484513	671.25
1348.019494	672.0
1348.55442	670.25
1349.089289	669.0
1349.624103	673.5
1350.158861	675.5
1350.693563	670.25
1351.228209	672.75
1351.7628	669.25
1352.297334	672.0
1352.831813	668.75
1353.366236	671.75
1353.900604	669.0
1354.434915	676.0
1354.969171	674.25
1355.503371	673.0
1356.037515	671.0
1356.571604	672.75
1357.105636	672.0
1357.639613	670.0
1358.173535	674.25
1358.7074	673.25
1359.24121	672.25
1359.774964	672.25
1360.308662	672.75
1360.842304	673.25
1361.375891	672.5
1361.909422	672.75
1362.442897	670.25
1362.976317	668.75
1363.50968	674.0
1364.042989	671.25
1364.576241	673.0
1365.109438	673.0
1365.642579	678.0
1366.175664	672.0
1366.708693	675.25
1367.241667	673.75
1367.774585	676.0
1368.307448	673.0
1368.840255	679.0
1369.373006	679.0
1369.905701	693.25
1370.438341	686.25
1370.970925	679.75
1371.503454	675.75
1372.035926	676.75
1372.568344	673.5
1373.100705	675.0
1373.633011	674.5
1374.165261	673.25
1374.697456	674.0
1375.229595	677.25
1375.761678	677.5
1376.293705	677.0
1376.825677	677.25
1377.357594	674.75
1377.889455	677.75
1378.42126	678.5
1378.953009	675.0
1379.484703	678.0
1380.016342	677.0
1380.547924	675.0
1381.079452	677.25
1381.610923	681.0
1382.142339	683.0
1382.673699	683.25
1383.205004	685.0
1383.736253	684.5
1384.267447	695.75
1384.798585	703.25
1385.329668	715.5
1385.860695	737.5
1386.391666	796.0
1386.922582	939.0
1387.453442	1206.0
1387.984247	1417.75
1388.514996	1178.75
1389.04569	890.25
1389.576328	764.0
1390.10691	723.5
1390.637437	705.75
1391.167909	693.75
1391.698325	684.75
1392.228685	681.75
1392.75899	686.0
1393.28924	680.5
1393.819434	685.75
1394.349572	677.75
1394.879655	678.25
1395.409683	678.5
1395.939655	678.0
1396.469571	672.0
1396.999432	678.0
1397.529237	677.0
1398.058987	676.0
1398.588682	676.5
1399.118321	673.25
1399.647905	673.25
1400.177433	676.25
1400.706906	672.75
1401.236323	674.5
1401.765685	672.25
1402.294991	675.25
1402.824242	673.0
1403.353437	680.25
1403.882577	677.0
1404.411662	674.75
1404.940691	678.0
1405.469665	679.5
1405.998583	678.5
1406.527446	681.0
1407.056253	682.75
1407.585005	691.25
1408.113702	696.0
1408.642343	700.25
1409.170929	707.25
1409.69946	707.0
1410.227935	704.5
1410.756354	694.5
1411.284719	684.5
1411.813028	676.5
1412.341281	677.0
1412.869479	677.25
1413.397622	674.25
1413.92571	674.5
1414.453742	672.5
1414.981718	671.25
1415.50964	684.25
1416.037506	674.5
1416.565316	671.75
1417.093072	668.0
1417.620772	674.5
1418.148416	670.0
1418.676005	673.25
1419.203539	669.5
1419.731018	666.0
1420.258441	671.5
1420.785809	671.75
1421.313122	671.0
1421.840379	670.5
1422.367582	670.75
1422.894728	672.75
1423.42182	667.75
1423.948856	666.5
1424.475837	667.5
1425.002762	669.75
1425.529633	671.25
1426.056448	671.0
1426.583207	669.25
1427.109912	674.0
1427.636561	667.25
1428.163155	668.25
1428.689694	667.75
1429.216177	670.25
1429.742605	666.5
1430.268978	671.25
1430.795296	670.0
1431.321558	667.5
1431.847765	670.75
1432.373917	670.75
1432.900014	670.75
1433.426056	671.25
1433.952042	670.5
1434.477973	672.0
1435.003849	671.0
1435.529669	668.25
1436.055435	667.75
1436.581145	666.75
1437.1068	667.0
1437.632399	669.75
1438.157944	669.25
1438.683433	668.25
1439.208868	666.5
1439.734247	669.5
1440.25957	668.75
1440.784839	666.5
1441.310053	668.5
1441.835211	668.0
1442.360314	666.75
1442.885362	668.0
1443.410355	668.5
1443.935292	667.25
1444.460175	667.25
1444.985002	668.0
1445.509774	665.5
1446.034491	667.25
1446.559153	668.5
1447.08376	670.0
1447.608312	667.0
1448.132808	666.5
1448.65725	665.5
1449.181636	666.0
1449.705967	665.5
1450.230243	668.25
1450.754464	669.0
1451.27863	667.25
1451.802741	668.75
1452.326797	670.25
1452.850797	666.75
1453.374743	666.75
1453.898633	669.5
1454.422468	666.25
1454.946249	667.0
1455.469974	669.5
1455.993644	667.75
1456.517259	668.0
1457.040819	665.75
1457.564324	666.5
1458.087773	668.5
1458.611168	664.0
1459.134508	666.5
1459.657793	667.5
1460.181022	663.5
1460.704197	665.75
1461.227316	667.75
1461.750381	669.25
1462.27339	673.0
1462.796345	701.25
1463.319244	708.5
1463.842089	672.0
1464.364878	667.25
1464.887613	667.25
1465.410292	669.25
1465.932916	664.0
1466.455486	664.5
1466.978	666.0
1467.50046	664.0
1468.022864	669.5
1468.545214	667.75
1469.067508	667.0
1469.589748	666.25
1470.111932	667.75
1470.634062	666.25
1471.156136	668.25
1471.678156	666.75
1472.20012	668.25
1472.72203	664.0
1473.243885	666.5
1473.765685	666.25
1474.28743	666.5
1474.80912	668.75
1475.330755	664.75
1475.852335	667.5
1476.37386	668.25
1476.89533	665.25
1477.416745	666.5
1477.938106	666.5
1478.459411	664.5
1478.980662	666.0
1479.501857	667.5
1480.022998	667.75
1480.544084	667.25
1481.065115	666.5
1481.586091	668.75
1482.107012	665.75
1482.627878	667.0
1483.14869	667.75
1483.669446	663.75
1484.190148	666.0
1484.710794	663.0
1485.231386	667.25
1485.751923	666.75
1486.272406	664.0
1486.792833	664.5
1487.313205	666.75
1487.833523	669.0
1488.353786	664.0
1488.873994	664.5
1489.394147	665.75
1489.914245	663.75
1490.434288	666.25
1490.954277	665.75
1491.474211	660.75
1491.99409	664.0
1492.513914	664.25
1493.033683	667.25
1493.553398	667.0
1494.073057	668.0
1494.592662	667.25
1495.112212	665.75
1495.631708	669.5
1496.151148	667.25
1496.670534	664.0
1497.189865	665.75
1497.709141	664.25
1498.228362	666.75
1498.747529	666.0
1499.266641	665.25
1499.785698	674.75
1500.3047	669.5
1500.823648	665.5
1501.34254	664.75
1501.861379	667.75
1502.380162	663.25
1502.89889	668.5
1503.417564	668.0
1503.936183	667.0
1504.454748	666.5
1504.973257	663.75
1505.491712	665.0
1506.010112	665.75
1506.528458	666.0
1507.046748	665.0
1507.564984	667.0
1508.083166	665.75
1508.601292	666.5
1509.119364	664.75
1509.637381	665.5
1510.155344	664.75
1510.673252	673.25
1511.191105	664.0
1511.708903	664.0
1512.226647	664.75
1512.744336	666.0
1513.261971	664.75
1513.77955	666.25
1514.297076	665.25
1514.814546	664.5
1515.331962	660.5
1515.849323	665.25
1516.366629	667.25
1516.883881	666.25
1517.401078	665.25
1517.918221	664.5
1518.435309	663.75
1518.952342	666.25
1519.469321	663.75
1519.986245	663.75
1520.503114	666.75
1521.019929	664.25
1521.536689	664.25
1522.053395	663.25
1522.570046	663.5
1523.086642	665.5
1523.603184	666.25
1524.119671	664.5
1524.636103	664.5
1525.152481	668.75
1525.668805	684.5
1526.701288	675.75
1527.217447	666.75
1527.733552	664.0
1528.249603	664.25
1528.765599	666.25
1529.28154	667.0
1529.797427	666.75
1530.313259	664.5
1530.829037	665.0
1531.34476	666.75
1531.860429	664.0
1532.376043	665.25
1532.891602	666.0
1533.407107	664.5
1533.922558	667.0
1534.437954	666.0
1534.953295	664.75
1535.468582	665.5
1535.983815	662.75
1536.498993	665.75
1537.014116	666.75
1537.529185	664.75
1538.044199	663.75
1538.559159	665.75
1539.074064	662.25
1539.588915	667.0
1540.103712	668.75
1540.618454	665.5
1541.133141	666.0
1541.647774	665.25
1542.162353	666.75
1542.676877	666.25
1543.191346	665.75
1543.705761	668.75
1544.220122	666.75
1544.734428	667.25
1545.24868	666.25
1545.762877	669.75
1546.27702	666.25
1546.791109	666.0
1547.305143	664.5
1547.819122	666.0
1548.333047	666.5
1548.846918	668.5
1549.360734	664.75
1549.874496	667.5
1550.388204	667.25
1550.901857	667.75
1551.415455	665.75
1551.929	666.25
1552.442489	664.5
1552.955925	666.75
1553.469306	668.75
1553.982632	665.0
1554.495905	664.0
1555.009123	663.5
1555.522286	669.0
1556.035395	670.5
1556.54845	667.0
1557.06145	666.0
1557.574396	668.0
1558.087288	665.75
1558.600125	666.25
1559.112908	668.0
1559.625637	664.0
1560.138311	666.25
1560.650931	667.75
1561.163497	664.5
1561.676008	668.75
1562.188465	666.25
1562.700867	668.5
1563.213216	667.25
1563.725509	667.75
1564.237749	667.5
1564.749934	670.5
1565.262065	670.0
1565.774142	668.0
1566.286164	672.25
1566.798132	668.0
1567.310046	671.5
1567.821906	668.75
1568.333711	668.75
1568.845462	672.0
1569.357158	671.25
1569.868801	669.0
1570.380389	667.0
1570.891922	668.25
1571.403402	665.75
1571.914827	668.5
1572.426198	668.75
1572.937515	665.75
1573.448777	666.25
1573.959985	667.25
1574.471139	666.25
1574.982239	663.25
1575.493285	666.25
1576.004276	667.0
1576.515213	667.75
1577.026096	663.25
1577.536924	665.25
1578.047698	666.0
1578.558419	665.0
1579.069084	666.25
1579.579696	666.0
1580.090254	663.75
1580.600757	668.25
1581.111206	666.75
1581.621601	666.5
1582.131941	664.5
1582.642228	669.0
1583.15246	666.0
1583.662638	666.25
1584.172762	665.5
1584.682832	661.5
1585.192847	662.75
1585.702809	664.25
1586.212716	666.25
1586.722569	666.75
1587.232368	667.5
1587.742113	663.25
1588.251803	667.25
1588.76144	666.0
1589.271022	663.25
1589.78055	665.0
1590.290024	664.5
1590.799444	664.75
1591.30881	663.5
1591.818121	666.5
1592.327379	664.0
