1042.414189	685.5
1042.980685	683.25
1043.547124	687.25
1044.113505	685.25
1044.679828	681.5
1045.246093	680.75
1045.8123	679.0
1046.378449	675.0
1046.94454	674.0
1047.510573	677.5
1048.076548	676.25
1048.642465	677.0
1049.208325	675.5
1049.774126	670.5
1050.339869	673.5
1050.905555	671.75
1051.471183	670.25
1052.036752	668.75
1052.602264	669.25
1053.167718	667.75
1053.733114	666.25
1054.298452	665.25
1054.863733	669.25
1055.428955	665.75
1055.994119	667.25
1056.559226	664.0
1057.124275	665.75
1057.689266	664.5
1058.254199	667.5
1058.819074	664.5
1059.383891	666.25
1059.94865	664.0
1060.513352	662.75
1061.077996	663.0
1061.642582	669.75
1062.20711	663.25
1062.77158	662.5
1063.335992	662.75
1063.900347	666.0
1064.464643	667.5
1065.028882	667.0
1065.593063	663.75
1066.157187	664.75
1066.721252	664.25
1067.28526	664.25
1067.84921	664.25
1068.413102	664.0
1068.976936	665.0
1069.540713	664.25
1070.104431	669.0
1070.668092	663.5
1071.231696	664.75
1071.795241	661.75
1072.358729	666.0
1072.922159	663.0
1073.485531	665.5
1074.048845	664.75
1074.612102	661.0
1075.175301	659.75
1075.738442	666.75
1076.301525	664.25
1076.864551	661.0
1077.427519	660.75
1077.990429	662.75
1078.553281	660.75
1079.116076	661.25
1079.678813	664.25
1080.241492	663.0
1080.804114	661.25
1081.366678	662.5
1081.929184	665.5
1082.491633	663.75
1083.054024	662.0
1083.616357	661.25
1084.178632	662.5
1084.74085	661.0
1085.30301	665.75
1085.865113	661.25
1086.427158	664.5
1086.989145	663.75
1087.551074	662.0
1088.112946	664.5
1088.67476	661.5
1089.236517	663.0
1089.798216	664.5
1090.359857	662.75
1090.92144	664.0
1091.482966	662.0
1092.044435	662.75
1092.605845	663.0
1093.167199	667.25
1093.728494	662.75
1094.289732	663.0
1094.850912	661.75
1095.412035	668.75
1095.9731	663.0
1096.534107	661.75
1097.095057	671.5
1097.65595	661.0
1098.216784	663.0
1098.777561	663.25
1099.338281	665.5
1099.898943	661.5
1100.459547	661.0
1101.020094	664.25
1101.580584	663.5
1102.141015	662.75
1102.701389	663.25
1103.261706	662.25
1103.821965	664.0
1104.382167	662.5
1104.942311	666.0
1105.502397	663.75
1106.062426	663.75
1106.622398	666.0
1107.182312	664.25
1107.742168	662.25
1108.301967	662.5
1108.861708	662.75
1109.421392	664.5
1109.981019	663.25
1110.540587	665.75
1111.100099	662.75
1111.659553	663.5
1112.218949	664.75
1112.778288	661.75
1113.33757	661.75
1113.896794	663.75
1114.45596	664.25
1115.015069	665.0
1115.574121	662.25
1116.133115	660.0
1116.692052	662.25
1117.250931	665.5
1117.809753	665.0
1118.368517	663.0
1118.927224	661.25
1119.485873	666.5
1120.044465	662.25
1120.603	664.75
1121.161477	661.75
1121.719897	661.5
1122.278259	662.5
1122.836564	665.25
1123.394812	661.0
1123.953002	663.75
1124.511135	664.75
1125.06921	663.25
1125.627228	664.25
1126.185189	661.5
1126.743092	662.5
1127.300938	662.0
1127.858726	663.0
1128.416457	661.5
1128.974131	663.25
1129.531748	663.0
1130.089307	662.0
1130.646808	661.25
1131.204252	662.25
1131.761639	659.0
1132.318969	665.0
1132.876241	664.25
1133.433456	661.75
1133.990614	661.75
1134.547714	665.0
1135.104757	663.25
1135.661743	662.0
1136.218671	664.25
1136.775542	663.5
1137.332356	664.0
1137.889112	659.75
1138.445811	666.0
1139.002453	662.75
1139.559037	661.0
1140.115565	665.0
1140.672035	661.75
1141.228447	662.75
1141.784803	661.25
1142.341101	663.25
1142.897342	662.0
1143.453525	661.5
1144.009651	660.25
1144.565721	664.5
1145.121732	663.0
1145.677687	664.75
1146.233584	662.75
1146.789424	661.0
1147.345207	661.75
1147.900933	662.75
1148.456601	665.25
1149.012212	660.25
1149.567766	663.25
1150.123263	660.5
1150.678702	663.5
1151.234085	661.75
1151.78941	662.5
1152.344678	660.25
1152.899888	661.75
1153.455042	661.25
1154.010138	662.75
1154.565177	659.0
1155.120159	662.5
1155.675084	659.5
1156.229951	659.25
1156.784762	661.0
1157.339515	661.25
1157.894211	664.5
1158.44885	663.0
1159.003432	663.0
1159.557956	662.5
1160.112424	662.75
1160.666834	663.25
1161.221187	663.0
1161.775483	661.75
1162.329722	664.0
1162.883904	662.5
1163.438029	662.25
1163.992096	663.0
1164.546107	660.5
1165.10006	661.0
1165.653956	662.5
1166.207795	661.5
1166.761577	663.0
1167.315302	664.5
1167.86897	662.5
1168.422581	662.25
1168.976134	662.25
1169.529631	662.25
1170.08307	663.0
1170.636453	661.25
1171.189778	661.25
1171.743046	660.25
1172.296257	659.0
1172.849412	661.0
1173.402509	659.75
1173.955549	664.5
1174.508532	663.5
1175.061458	662.25
1175.614327	662.75
1176.167138	662.25
1176.719893	661.75
1177.272591	664.25
1177.825232	661.75
1178.377816	662.5
1178.930342	662.75
1179.482812	661.25
1180.035225	662.0
1180.587581	658.5
1181.139879	658.25
1181.692121	661.5
1182.244306	662.25
1182.796434	662.25
1183.348504	662.0
1183.900518	663.25
1184.452475	661.0
1185.004375	663.75
1185.556218	661.75
1186.108004	661.0
1186.659733	660.75
1187.211405	660.5
1187.76302	663.75
1188.314578	661.25
1188.866079	663.75
1189.417523	660.25
1189.96891	662.5
1190.520241	661.5
1191.071514	663.5
1191.622731	661.5
1192.17389	663.0
1192.724993	662.75
1193.276039	684.5
1193.827027	661.75
1194.377959	662.25
1194.928834	664.0
1195.479653	664.0
1196.030414	662.0
1196.581118	664.25
1197.131766	663.75
1197.682356	659.75
1198.23289	660.25
1198.783367	663.0
1199.333786	662.0
1199.88415	663.5
1200.434456	663.0
1200.984705	660.5
1201.534898	661.75
1202.085033	663.0
1202.635112	662.25
1203.185134	665.5
1203.735099	660.0
1204.285007	665.0
1204.834859	659.25
1205.384653	661.5
1205.934391	659.75
1206.484072	663.0
1207.033696	661.5
1207.583263	662.0
1208.132774	659.0
1208.682228	662.5
1209.231624	662.25
1209.780965	661.5
1210.330248	664.0
1210.879474	664.5
1211.428644	662.0
1211.977757	663.5
1212.526813	661.0
1213.075813	666.0
1213.624755	661.5
1214.173641	662.5
1214.72247	662.5
1215.271242	664.25
1215.819958	663.75
1216.368617	661.75
1216.917219	659.75
1217.465764	663.25
1218.014253	662.5
1218.562685	662.0
1219.11106	663.0
1219.659378	661.75
1220.20764	662.75
1220.755845	662.75
1221.303993	664.5
1221.852085	663.5
1222.400119	660.0
1222.948097	662.0
1223.496019	660.75
1224.043883	663.0
1224.591691	661.75
1225.139443	661.75
1225.687137	659.75
1226.234775	662.5
1226.782357	660.5
1227.329881	662.0
1227.877349	661.5
1228.42476	661.75
1228.972115	664.0
1229.519413	660.75
1230.066654	664.5
1230.613839	661.0
1231.160967	662.75
1231.708038	664.75
1232.255053	661.5
1232.802011	663.0
1233.348912	663.25
1233.895757	662.75
1234.442545	661.5
1234.989277	661.75
1235.535951	662.25
1236.08257	660.5
1236.629131	662.75
1237.175636	661.5
1237.722085	662.0
1238.268477	661.5
1238.814812	661.75
1239.361091	662.0
1239.907313	663.5
1240.453478	662.25
1240.999587	663.25
1241.54564	663.25
1242.091636	660.75
1242.637575	663.0
1243.183457	662.75
1243.729284	663.25
1244.275053	663.25
1244.820766	663.75
1245.366423	665.5
1245.912022	663.75
1246.457566	664.25
1247.003053	661.25
1247.548483	661.5
1248.093857	659.75
1248.639174	663.5
1249.184435	663.25
1249.729639	658.75
1250.274787	661.25
1250.819878	661.75
1251.364912	664.75
1251.909891	664.25
1252.454812	663.5
1252.999677	662.5
1253.544486	662.25
1254.089238	663.5
1254.633934	663.5
1255.178573	662.25
1255.723156	660.5
1256.267682	663.5
1256.812152	663.75
1257.356565	660.25
1257.900922	665.0
1258.445223	663.5
1258.989467	666.75
1259.533654	664.0
1260.077785	680.75
1260.62186	664.75
1261.165878	661.5
1261.70984	665.75
1262.253745	665.75
1262.797594	667.75
1263.341386	668.75
1263.885123	670.25
1264.428802	667.5
1264.972425	668.5
1265.515992	666.5
1266.059503	667.5
1266.602957	664.5
1267.146354	664.25
1267.689696	665.0
1268.23298	664.0
1268.776209	664.75
1269.319381	661.75
1269.862497	662.75
1270.405556	666.25
1270.948559	664.0
1271.491506	664.5
1272.034396	664.5
1272.57723	662.25
1273.120007	662.5
1273.662728	661.75
1274.205393	661.75
1274.748002	663.0
1275.290554	662.0
1275.83305	664.25
1276.375489	666.75
1276.917872	662.75
1277.460199	663.5
1278.00247	659.75
1278.544684	664.75
1279.086842	663.75
1279.628943	666.25
1280.170989	663.0
1280.712978	665.75
1281.25491	670.75
1281.796787	673.25
1282.338607	688.75
1282.880371	707.25
1283.422078	740.75
1283.963729	763.75
1284.505324	762.25
1285.046863	728.75
1285.588345	695.25
1286.129772	680.5
1286.671142	670.75
1287.212455	667.0
1287.753713	666.75
1288.294914	666.0
1288.836059	661.5
1289.377147	667.0
1289.91818	664.5
1290.459156	662.5
1291.000076	663.75
1291.54094	663.5
1292.081747	664.5
1292.622499	660.0
1293.163194	664.0
1293.703833	663.5
1294.244415	662.75
1294.784942	662.0
1295.325412	661.5
1295.865826	665.25
1296.406184	659.0
1296.946486	663.25
1297.486731	664.0
1298.026921	664.0
1298.567054	664.0
1299.107131	660.75
1299.647152	664.25
1300.187116	663.0
1300.727025	662.5
1301.266877	661.75
1301.806673	662.0
1302.346413	662.75
1302.886097	663.25
1303.425725	661.0
1303.965297	662.75
1304.504812	664.0
1305.044272	663.5
1305.583675	664.25
1306.123022	661.5
1306.662313	660.75
1307.201548	661.5
1307.740727	663.0
1308.279849	665.75
1308.818916	663.5
1309.357926	662.0
1309.896881	663.0
1310.435779	660.25
1310.974621	663.25
1311.513407	664.0
1312.052137	663.25
1312.590811	662.0
1313.129429	660.5
1313.667991	660.75
1314.206497	662.25
1314.744946	662.25
1315.28334	659.5
1315.821678	663.75
1316.359959	660.5
1316.898184	662.75
1317.436354	662.5
1317.974467	661.25
1318.512525	663.25
1319.050526	664.0
1319.588471	659.25
1320.12636	661.5
1320.664194	662.25
1321.201971	660.5
1321.739692	661.5
1322.277357	664.75
1322.814967	661.0
1323.35252	658.0
1323.890017	665.5
1324.427458	663.5
1324.964843	662.75
1325.502173	662.5
1326.039446	662.5
1326.576663	661.5
1327.113824	658.5
1327.65093	663.0
1328.187979	664.5
1328.724972	662.5
1329.26191	661.0
1329.798791	661.5
1330.335617	662.75
1330.872386	661.0
1331.4091	663.5
1331.945758	663.25
1332.48236	665.5
1333.018905	662.75
1333.555395	662.25
1334.091829	659.0
1334.628207	665.0
1335.164529	661.25
1335.700796	660.75
1336.237006	661.75
1336.77316	662.75
1337.309259	661.0
1337.845301	663.25
1338.381288	661.0
1338.917219	661.0
1339.453094	661.75
1339.988913	664.75
1340.524676	663.5
1341.060383	661.75
1341.596034	660.75
1342.13163	661.5
1342.66717	662.75
1343.202653	663.25
1343.738081	660.0
1344.273453	659.25
1344.80877	661.0
1345.34403	664.0
1345.879235	664.0
1346.414383	659.5
1346.949476	663.75
1347.484513	662.0
1348.019494	662.5
1348.55442	662.25
1349.089289	661.5
1349.624103	663.0
1350.158861	659.5
1350.693563	663.0
1351.228209	660.25
1351.7628	662.75
1352.297334	662.0
1352.831813	661.5
1353.366236	663.5
1353.900604	663.0
1354.434915	661.0
1354.969171	663.25
1355.503371	661.0
1356.037515	661.5
1356.571604	661.0
1357.105636	663.0
1357.639613	661.75
1358.173535	664.5
1358.7074	664.25
1359.24121	663.25
1359.774964	661.75
1360.308662	663.5
1360.842304	661.25
1361.375891	664.75
1361.909422	663.75
1362.442897	659.5
1362.976317	661.0
1363.50968	662.0
1364.042989	663.75
1364.576241	663.25
1365.109438	663.0
1365.642579	663.25
1366.175664	664.0
1366.708693	659.25
1367.241667	661.25
1367.774585	659.5
1368.307448	666.75
1368.840255	663.75
1369.373006	665.5
1369.905701	665.25
1370.438341	665.0
1370.970925	663.5
1371.503454	662.0
1372.035926	665.25
1372.568344	662.25
1373.100705	665.25
1373.633011	663.0
1374.165261	661.5
1374.697456	662.25
1375.229595	663.75
1375.761678	662.0
1376.293705	663.5
1376.825677	663.75
1377.357594	661.25
1377.889455	663.0
1378.42126	666.0
1378.953009	667.0
1379.484703	661.5
1380.016342	663.25
1380.547924	664.75
1381.079452	665.25
1381.610923	663.0
1382.142339	666.5
1382.673699	667.75
1383.205004	666.25
1383.736253	668.75
1384.267447	666.0
1384.798585	665.75
1385.329668	675.0
1385.860695	679.5
1386.391666	694.5
1386.922582	726.25
1387.453442	803.0
1387.984247	892.0
1388.514996	839.5
1389.04569	743.25
1389.576328	692.75
1390.10691	680.25
1390.637437	674.25
1391.167909	669.5
1391.698325	667.0
1392.228685	668.25
1392.75899	664.0
1393.28924	663.25
1393.819434	667.25
1394.349572	664.0
1394.879655	663.75
1395.409683	662.75
1395.939655	662.25
1396.469571	665.5
1396.999432	664.75
1397.529237	664.25
1398.058987	665.25
1398.588682	663.25
1399.118321	664.25
1399.647905	663.75
1400.177433	664.25
1400.706906	661.75
1401.236323	663.75
1401.765685	661.5
1402.294991	663.5
1402.824242	664.0
1403.353437	667.0
1403.882577	662.75
1404.411662	663.0
1404.940691	664.0
1405.469665	665.75
1405.998583	663.5
1406.527446	665.75
1407.056253	665.5
1407.585005	665.0
1408.113702	669.0
1408.642343	670.5
1409.170929	671.75
1409.69946	677.75
1410.227935	671.25
1410.756354	670.75
1411.284719	665.0
1411.813028	667.0
1412.341281	660.0
1412.869479	663.5
1413.397622	663.75
1413.92571	663.25
1414.453742	662.0
1414.981718	662.5
1415.50964	672.0
1416.037506	663.0
1416.565316	663.25
1417.093072	664.5
1417.620772	659.75
1418.148416	660.5
1418.676005	662.5
1419.203539	661.0
1419.731018	660.0
1420.258441	663.5
1420.785809	660.5
1421.313122	659.5
1421.840379	661.25
1422.367582	661.75
1422.894728	662.75
1423.42182	661.25
1423.948856	663.5
1424.475837	660.25
1425.002762	661.5
1425.529633	662.5
1426.056448	661.75
1426.583207	659.5
1427.109912	662.0
1427.636561	664.0
1428.163155	662.0
1428.689694	664.25
1429.216177	660.25
1429.742605	659.5
1430.268978	660.75
1430.795296	663.25
1431.321558	660.25
1431.847765	661.25
1432.373917	660.25
1432.900014	663.0
1433.426056	662.0
1433.952042	661.25
1434.477973	662.0
1435.003849	663.0
1435.529669	662.0
1436.055435	661.5
1436.581145	662.25
1437.1068	660.5
1437.632399	661.0
1438.157944	659.5
1438.683433	663.25
1439.208868	660.75
1439.734247	659.75
1440.25957	658.75
1440.784839	662.25
1441.310053	661.5
1441.835211	662.5
1442.360314	661.0
1442.885362	659.75
1443.410355	665.5
1443.935292	658.5
1444.460175	660.5
1444.985002	664.5
1445.509774	663.0
1446.034491	660.25
1446.559153	662.0
1447.08376	663.0
1447.608312	660.5
1448.132808	660.75
1448.65725	661.25
1449.181636	663.25
1449.705967	658.0
1450.230243	662.5
1450.754464	660.75
1451.27863	663.75
1451.802741	658.0
1452.326797	662.25
1452.850797	662.25
1453.374743	661.0
1453.898633	658.0
1454.422468	663.0
1454.946249	663.0
1455.469974	660.0
1455.993644	661.25
1456.517259	661.0
1457.040819	659.5
1457.564324	659.75
1458.087773	658.5
1458.611168	659.5
1459.134508	661.75
1459.657793	662.75
1460.181022	660.75
1460.704197	659.5
1461.227316	664.0
1461.750381	660.25
1462.27339	664.75
1462.796345	670.0
1463.319244	672.25
1463.842089	660.5
1464.364878	662.25
1464.887613	658.75
1465.410292	660.0
1465.932916	659.5
1466.455486	662.25
1466.978	657.5
1467.50046	660.25
1468.022864	663.0
1468.545214	660.5
1469.067508	662.0
1469.589748	660.5
1470.111932	661.5
1470.634062	660.25
1471.156136	661.0
1471.678156	662.0
1472.20012	663.25
1472.72203	659.25
1473.243885	660.5
1473.765685	661.0
1474.28743	661.5
1474.80912	662.25
1475.330755	662.25
1475.852335	662.25
1476.37386	660.25
1476.89533	659.0
1477.416745	658.25
1477.938106	660.0
1478.459411	660.0
1478.980662	659.0
1479.501857	661.25
1480.022998	661.0
1480.544084	658.0
1481.065115	658.5
1481.586091	659.5
1482.107012	659.75
1482.627878	662.75
1483.14869	660.25
1483.669446	660.5
1484.190148	661.25
1484.710794	661.75
1485.231386	664.5
1485.751923	659.5
1486.272406	660.25
1486.792833	660.25
1487.313205	658.5
1487.833523	660.5
1488.353786	661.25
1488.873994	659.25
1489.394147	661.0
1489.914245	662.75
1490.434288	662.25
1490.954277	661.5
1491.474211	659.25
1491.99409	659.25
1492.513914	657.75
1493.033683	663.0
1493.553398	661.25
1494.073057	662.0
1494.592662	660.25
1495.112212	657.75
1495.631708	662.75
1496.151148	660.75
1496.670534	663.25
1497.189865	659.25
1497.709141	659.5
1498.228362	659.75
1498.747529	662.5
1499.266641	661.0
1499.785698	670.5
1500.3047	659.5
1500.823648	661.25
1501.34254	659.0
1501.861379	658.0
1502.380162	661.25
1502.89889	658.75
1503.417564	661.25
1503.936183	660.25
1504.454748	660.75
1504.973257	661.25
1505.491712	660.0
1506.010112	658.75
1506.528458	659.5
1507.046748	661.5
1507.564984	659.5
1508.083166	659.75
1508.601292	662.5
1509.119364	660.75
1509.637381	659.25
1510.155344	662.75
1510.673252	669.25
1511.191105	660.0
1511.708903	660.0
1512.226647	662.0
1512.744336	662.5
1513.261971	659.25
1513.77955	661.0
1514.297076	660.5
1514.814546	661.5
1515.331962	660.5
1515.849323	661.0
1516.366629	659.25
1516.883881	659.5
1517.401078	659.0
1517.918221	664.25
1518.435309	658.5
1518.952342	660.5
1519.469321	660.0
1519.986245	659.25
1520.503114	661.0
1521.019929	662.5
1521.536689	658.75
1522.053395	659.5
1522.570046	661.5
1523.086642	658.5
1523.603184	660.75
1524.119671	659.0
1524.636103	660.25
1525.152481	659.5
1525.668805	662.25
1526.185073	670.0
1526.701288	663.75
1527.217447	661.5
1527.733552	662.0
1528.249603	660.75
1528.765599	658.5
1529.28154	660.0
1529.797427	659.0
1530.313259	659.5
1530.829037	660.5
1531.34476	659.25
1531.860429	659.75
1532.376043	657.5
1532.891602	658.0
1533.407107	659.0
1533.922558	661.25
1534.437954	660.75
1534.953295	660.5
1535.468582	660.75
1535.983815	659.25
1536.498993	660.0
1537.014116	660.25
1537.529185	660.5
1538.044199	660.75
1538.559159	662.5
1539.074064	659.0
1539.588915	663.75
1540.103712	663.25
1540.618454	660.0
1541.133141	659.25
1541.647774	661.0
1542.162353	660.25
1542.676877	660.5
1543.191346	659.75
1543.705761	661.25
1544.220122	662.25
1544.734428	659.75
1545.24868	661.75
1545.762877	660.25
1546.27702	662.25
1546.791109	663.5
1547.305143	660.75
1547.819122	661.0
1548.333047	659.25
1548.846918	664.0
1549.360734	662.0
1549.874496	659.25
1550.388204	663.0
1550.901857	659.75
1551.415455	659.5
1551.929	660.5
1552.442489	662.25
1552.955925	659.25
1553.469306	660.5
1553.982632	662.25
1554.495905	660.0
1555.009123	659.25
1555.522286	660.25
1556.035395	660.0
1556.54845	658.75
1557.06145	661.75
1557.574396	660.5
1558.087288	661.75
1558.600125	659.75
1559.112908	658.75
1559.625637	661.0
1560.138311	659.75
1560.650931	661.0
1561.163497	662.25
1561.676008	659.25
1562.188465	662.0
1562.700867	662.0
1563.213216	660.5
1563.725509	660.25
1564.237749	662.0
1564.749934	661.25
1565.262065	660.0
1565.774142	663.0
1566.286164	659.75
1566.798132	662.25
1567.310046	662.25
1567.821906	663.0
1568.333711	661.0
1568.845462	661.5
1569.357158	661.75
1569.868801	661.25
1570.380389	662.25
1570.891922	660.5
1571.403402	664.5
1571.914827	662.25
1572.426198	659.5
1572.937515	659.5
1573.448777	661.0
1574.982239	663.0
1575.493285	661.0
1576.004276	661.0
1576.515213	659.75
1577.026096	658.75
1577.536924	659.0
1578.047698	658.5
1578.558419	658.75
1579.069084	658.0
1579.579696	658.75
1580.090254	658.25
1580.600757	662.0
1581.111206	660.75
1581.621601	660.0
1582.131941	657.0
1582.642228	660.0
1583.15246	662.25
1583.662638	660.75
1584.172762	657.5
1584.682832	659.5
1585.192847	658.0
1585.702809	661.25
1586.212716	658.75
1586.722569	658.75
1587.232368	661.5
1587.742113	658.75
1588.251803	660.5
1588.76144	657.0
1589.271022	661.75
1589.78055	658.5
1590.290024	661.0
1590.799444	659.75
1591.30881	660.75
1591.818121	662.25
1592.327379	656.75
