1042.414189	683.75
1042.980685	685.5
1043.547124	684.25
1044.113505	685.75
1044.679828	681.5
1045.246093	683.25
1045.8123	678.75
1046.378449	680.25
1046.94454	678.75
1047.510573	678.25
1048.076548	676.0
1048.642465	675.5
1049.208325	679.5
1049.774126	673.0
1050.339869	673.5
1050.905555	675.0
1051.471183	673.5
1052.036752	672.0
1052.602264	671.75
1053.167718	671.0
1053.733114	675.0
1054.298452	671.25
1054.863733	675.25
1055.428955	667.25
1055.994119	672.75
1056.559226	669.0
1057.124275	673.25
1057.689266	671.5
1058.254199	666.5
1058.819074	670.0
1059.383891	669.25
1059.94865	669.75
1060.513352	667.75
1061.077996	665.5
1061.642582	668.25
1062.20711	668.25
1062.77158	668.0
1063.335992	669.25
1063.900347	667.75
1064.464643	669.75
1065.028882	670.75
1065.593063	667.75
1066.157187	668.75
1066.721252	670.0
1067.28526	667.75
1067.84921	669.75
1068.413102	666.25
1068.976936	668.25
1069.540713	666.5
1070.104431	677.75
1070.668092	666.5
1071.231696	667.0
1071.795241	669.25
1072.358729	667.5
1072.922159	666.5
1073.485531	665.0
1074.048845	670.25
1074.612102	666.75
1075.175301	667.25
1075.738442	666.25
1076.301525	665.75
1076.864551	668.25
1077.427519	666.75
1077.990429	665.0
1078.553281	666.25
1079.116076	666.0
1079.678813	663.25
1080.241492	668.5
1080.804114	667.75
1081.366678	670.5
1081.929184	664.5
1082.491633	669.25
1083.054024	666.75
1083.616357	666.0
1084.178632	669.25
1084.74085	666.75
1085.30301	665.5
1085.865113	666.0
1086.427158	668.25
1086.989145	666.25
1087.551074	664.5
1088.112946	663.75
1088.67476	663.75
1089.236517	668.0
1089.798216	669.5
1090.359857	666.75
1090.92144	664.5
1091.482966	664.25
1092.044435	666.0
1092.605845	664.75
1093.167199	668.0
1093.728494	666.5
1094.289732	665.75
1094.850912	666.25
1095.412035	670.75
1095.9731	668.5
1096.534107	668.0
1097.095057	673.75
1097.65595	668.0
1098.216784	664.25
1098.777561	666.5
1099.338281	664.75
1099.898943	668.0
1100.459547	669.0
1101.020094	664.5
1101.580584	666.25
1102.141015	666.25
1102.701389	665.75
1103.261706	665.25
1103.821965	667.0
1104.382167	667.75
1104.942311	666.0
1105.502397	666.75
1106.062426	665.0
1106.622398	665.5
1107.182312	666.75
1107.742168	667.25
1108.301967	668.25
1108.861708	663.25
1109.421392	666.25
1109.981019	668.0
1110.540587	665.75
1111.100099	667.25
1111.659553	666.5
1112.218949	665.75
1112.778288	665.75
1113.33757	667.0
1113.896794	664.0
1114.45596	663.0
1115.015069	663.5
1115.574121	665.5
1116.133115	669.25
1116.692052	669.0
1117.250931	667.25
1117.809753	664.25
1118.368517	664.75
1118.927224	665.75
1119.485873	666.0
1120.044465	665.75
1120.603	666.75
1121.161477	665.5
1121.719897	663.75
1122.278259	667.25
1122.836564	664.25
1123.394812	665.25
1123.953002	667.25
1124.511135	666.0
1125.06921	665.5
1125.627228	665.75
1126.185189	663.5
1126.743092	667.25
1127.300938	669.25
1127.858726	664.5
1128.416457	666.75
1128.974131	666.25
1129.531748	665.75
1130.089307	667.5
1130.646808	665.75
1131.204252	666.75
1131.761639	665.5
1132.318969	668.75
1132.876241	665.25
1133.433456	664.5
1133.990614	666.0
1134.547714	664.5
1135.104757	664.75
1135.661743	668.25
1136.218671	664.0
1136.775542	664.25
1137.332356	665.0
1137.889112	664.75
1138.445811	667.75
1139.002453	664.75
1139.559037	666.75
1140.115565	666.25
1140.672035	664.75
1141.228447	666.0
1141.784803	666.75
1142.341101	666.0
1142.897342	664.5
1143.453525	666.25
1144.009651	669.0
1144.565721	665.75
1145.121732	665.5
1145.677687	665.75
1146.233584	663.25
1146.789424	667.75
1147.345207	668.5
1147.900933	665.5
1148.456601	661.0
1149.012212	664.25
1149.567766	670.0
1150.123263	666.0
1150.678702	668.25
1151.234085	667.75
1151.78941	666.75
1152.344678	664.5
1152.899888	665.5
1153.455042	664.25
1154.010138	668.0
1154.565177	666.75
1155.120159	666.0
1155.675084	664.5
1156.229951	665.25
1156.784762	663.25
1157.339515	667.25
1157.894211	666.75
1158.44885	666.5
1159.003432	667.25
1159.557956	663.0
1160.112424	663.75
1160.666834	663.75
1161.221187	667.75
1161.775483	663.75
1162.329722	667.0
1162.883904	663.75
1163.438029	666.75
1163.992096	667.0
1164.546107	666.5
1165.10006	663.0
1165.653956	668.0
1166.207795	664.0
1166.761577	662.75
1167.315302	665.25
1167.86897	665.75
1168.422581	668.0
1168.976134	667.75
1169.529631	664.75
1170.08307	662.0
1170.636453	662.75
1171.189778	668.75
1171.743046	666.0
1172.296257	665.5
1172.849412	662.0
1173.402509	663.5
1173.955549	663.25
1174.508532	668.0
1175.061458	665.25
1175.614327	663.75
1176.167138	664.75
1176.719893	664.5
1177.272591	665.5
1177.825232	664.5
1178.377816	663.5
1178.930342	666.0
1179.482812	668.25
1180.035225	665.5
1180.587581	667.0
1181.139879	663.0
1181.692121	662.5
1182.244306	667.75
1182.796434	662.5
1183.348504	664.5
1183.900518	664.5
1184.452475	666.0
1185.004375	667.25
1185.556218	665.0
1186.108004	663.25
1186.659733	663.0
1187.211405	664.25
1187.76302	667.75
1188.314578	662.75
1188.866079	664.75
1189.417523	665.0
1189.96891	664.5
1190.520241	665.5
1191.071514	669.25
1191.622731	663.5
1192.17389	665.0
1192.724993	664.0
1193.276039	685.75
1193.827027	663.5
1194.377959	666.75
1194.928834	666.5
1195.479653	666.25
1196.030414	668.25
1196.581118	664.25
1197.131766	665.5
1197.682356	661.5
1198.23289	668.0
1198.783367	664.25
1199.333786	666.5
1199.88415	662.5
1200.434456	667.75
1200.984705	665.75
1201.534898	665.0
1202.085033	664.0
1202.635112	665.25
1203.185134	664.5
1203.735099	662.25
1204.285007	664.5
1204.834859	665.5
1205.384653	663.5
1205.934391	663.25
1206.484072	664.25
1207.033696	665.0
1207.583263	664.0
1208.132774	666.25
1208.682228	664.0
1209.231624	667.25
1209.780965	666.0
1210.330248	667.25
1210.879474	667.25
1211.428644	665.25
1211.977757	664.75
1212.526813	666.0
1213.075813	668.25
1213.624755	666.25
1214.173641	665.75
1214.72247	666.5
1215.271242	666.5
1215.819958	665.75
1216.368617	662.5
1216.917219	664.5
1217.465764	666.5
1218.014253	667.5
1218.562685	664.25
1219.11106	662.25
1219.659378	666.0
1220.20764	666.5
1220.755845	664.75
1221.303993	666.5
1221.852085	667.25
1222.400119	665.25
1222.948097	667.25
1223.496019	665.75
1224.043883	666.75
1224.591691	664.25
1225.139443	665.5
1225.687137	665.0
1226.234775	667.75
1226.782357	663.0
1227.329881	666.5
1227.877349	662.25
1228.42476	663.75
1228.972115	665.25
1229.519413	667.0
1230.066654	664.75
1230.613839	663.25
1231.160967	666.0
1231.708038	666.0
1232.255053	664.5
1232.802011	663.0
1233.348912	663.25
1233.895757	663.75
1234.442545	666.5
1234.989277	666.25
1235.535951	667.25
1236.08257	666.0
1236.629131	664.0
1237.175636	664.75
1237.722085	661.5
1238.268477	665.25
1238.814812	664.75
1239.361091	666.75
1239.907313	662.25
1240.453478	663.5
1240.999587	665.0
1241.54564	665.25
1242.091636	664.5
1242.637575	665.75
1243.183457	664.25
1243.729284	664.75
1244.275053	664.5
1244.820766	664.75
1245.366423	666.25
1245.912022	661.75
1246.457566	662.75
1247.003053	668.25
1247.548483	664.25
1248.093857	663.25
1248.639174	663.25
1249.184435	665.75
1249.729639	664.5
1250.274787	667.0
1250.819878	665.0
1251.364912	663.25
1251.909891	665.25
1252.454812	668.5
1252.999677	663.25
1253.544486	666.25
1254.089238	664.25
1254.633934	661.5
1255.178573	665.0
1255.723156	663.0
1256.267682	665.0
1256.812152	663.25
1257.356565	662.75
1257.900922	663.75
1258.445223	666.5
1258.989467	664.25
1259.533654	663.5
1260.077785	679.75
1260.62186	666.25
1261.165878	666.25
1261.70984	669.5
1262.253745	672.25
1262.797594	667.0
1263.341386	668.75
1263.885123	672.0
1264.428802	669.5
1264.972425	668.0
1265.515992	667.25
1266.059503	666.75
1266.602957	664.0
1267.146354	667.75
1267.689696	667.25
1268.23298	666.0
1268.776209	667.0
1269.319381	664.5
1269.862497	662.5
1270.405556	667.5
1270.948559	666.5
1271.491506	663.75
1272.034396	663.25
1272.57723	666.5
1273.120007	665.25
1273.662728	665.0
1274.205393	663.25
1274.748002	666.0
1275.290554	663.0
1275.83305	668.5
1276.375489	667.0
1276.917872	667.75
1277.460199	667.0
1278.00247	666.75
1278.544684	664.75
1279.086842	664.5
1279.628943	666.25
1280.170989	670.75
1280.712978	671.0
1281.25491	673.0
1281.796787	681.5
1282.338607	693.25
1282.880371	714.75
1283.422078	756.5
1283.963729	785.25
1284.505324	783.75
1285.046863	749.25
1285.588345	704.5
1286.129772	686.5
1286.671142	674.0
1287.212455	670.75
1287.753713	668.0
1288.294914	667.25
1288.836059	665.75
1289.377147	665.25
1289.91818	667.25
1290.459156	661.25
1291.000076	666.0
1291.54094	666.75
1292.081747	662.75
1292.622499	666.25
1293.163194	664.5
1293.703833	666.25
1294.244415	664.25
1294.784942	664.5
1295.325412	663.75
1295.865826	666.0
1296.406184	665.75
1296.946486	665.0
1297.486731	665.75
1298.026921	664.5
1298.567054	662.75
1299.107131	663.0
1299.647152	662.25
1300.187116	664.5
1300.727025	667.75
1301.266877	664.0
1301.806673	666.25
1302.346413	664.0
1302.886097	664.75
1303.425725	664.25
1303.965297	666.0
1304.504812	666.75
1305.044272	663.75
1305.583675	663.5
1306.123022	663.0
1306.662313	663.25
1307.201548	661.75
1307.740727	663.75
1308.279849	664.5
1308.818916	665.75
1309.357926	665.5
1309.896881	665.75
1310.435779	663.0
1310.974621	664.5
1311.513407	662.25
1312.052137	666.25
1312.590811	665.25
1313.129429	661.5
1313.667991	664.5
1314.206497	665.0
1314.744946	664.75
1315.28334	661.5
1315.821678	662.25
1316.359959	662.0
1316.898184	663.25
1317.436354	663.25
1317.974467	662.25
1318.512525	664.25
1319.050526	663.75
1319.588471	664.25
1320.12636	663.75
1320.664194	662.0
1321.201971	663.0
1321.739692	665.5
1322.277357	665.75
1322.814967	663.25
1323.35252	665.0
1323.890017	670.25
1324.427458	663.75
1324.964843	662.25
1325.502173	662.5
1326.039446	665.75
1326.576663	660.75
1327.113824	662.0
1327.65093	664.5
1328.187979	664.75
1328.724972	662.25
1329.26191	664.5
1329.798791	662.0
1330.335617	664.0
1330.872386	663.5
1332.48236	662.75
1333.018905	666.25
1333.555395	663.5
1334.091829	663.5
1334.628207	664.75
1335.164529	663.25
1335.700796	664.0
1336.237006	664.5
1336.77316	663.75
1337.309259	667.0
1337.845301	665.5
1338.381288	663.25
1338.917219	662.25
1339.453094	662.5
1339.988913	664.5
1340.524676	664.5
1341.060383	661.0
1341.596034	662.75
1342.13163	661.5
1342.66717	664.25
1343.202653	662.75
1343.738081	667.5
1344.273453	661.5
1344.80877	662.75
1345.34403	661.75
1345.879235	665.5
1346.414383	663.0
1346.949476	661.0
1347.484513	663.25
1348.019494	662.75
1348.55442	663.75
1349.089289	662.5
1349.624103	664.25
1350.158861	664.25
1350.693563	663.75
1351.228209	665.25
1351.7628	663.5
1352.297334	666.25
1352.831813	663.0
1353.366236	662.25
1353.900604	662.75
1354.434915	663.5
1354.969171	661.75
1355.503371	665.0
1356.037515	664.25
1356.571604	663.75
1357.105636	661.75
1357.639613	665.75
1358.173535	663.0
1358.7074	666.5
1359.24121	663.0
1359.774964	665.0
1360.308662	664.5
1360.842304	664.75
1361.375891	668.75
1361.909422	665.75
1362.442897	667.25
1362.976317	661.25
1363.50968	663.75
1364.042989	665.75
1364.576241	663.0
1365.109438	666.0
1365.642579	664.0
1366.175664	664.75
1366.708693	665.0
1367.241667	662.5
1367.774585	664.75
1368.307448	664.75
1368.840255	665.75
1369.373006	668.0
1369.905701	670.5
1370.438341	667.75
1370.970925	665.5
1371.503454	662.75
1372.035926	661.5
1372.568344	664.75
1373.100705	662.5
1373.633011	664.75
1374.165261	663.0
1374.697456	666.0
1375.229595	663.25
1375.761678	667.5
1376.293705	662.5
1376.825677	665.25
1377.357594	666.25
1377.889455	666.75
1378.42126	667.0
1378.953009	665.0
1379.484703	666.0
1380.016342	667.75
1380.547924	664.75
1381.079452	667.25
1381.610923	665.0
1382.142339	669.25
1382.673699	669.0
1383.205004	667.75
1383.736253	667.75
1384.267447	672.5
1384.798585	671.5
1385.329668	680.75
1385.860695	681.0
1386.391666	704.25
1386.922582	742.75
1387.453442	837.75
1387.984247	939.5
1388.514996	887.25
1389.04569	763.5
1389.576328	705.0
1390.10691	681.75
1390.637437	675.75
1391.167909	669.25
1391.698325	669.5
1392.228685	668.0
1392.75899	665.75
1393.28924	667.5
1393.819434	667.25
1394.349572	667.5
1394.879655	666.0
1395.409683	666.25
1395.939655	663.5
1396.469571	665.25
1396.999432	666.5
1397.529237	666.0
1398.058987	665.75
1398.588682	667.25
1399.118321	667.5
1399.647905	664.5
1400.177433	664.0
1400.706906	666.0
1401.236323	664.5
1401.765685	664.25
1402.294991	667.25
1402.824242	664.75
1403.353437	664.5
1403.882577	665.0
1404.411662	662.25
1404.940691	663.0
1405.469665	665.5
1405.998583	666.0
1406.527446	664.25
1407.056253	667.5
1407.585005	669.0
1408.113702	669.75
1408.642343	675.5
1409.170929	674.5
1409.69946	679.25
1410.227935	675.5
1410.756354	671.5
1411.284719	669.25
1411.813028	667.0
1412.341281	666.0
1412.869479	667.25
1413.397622	665.5
1413.92571	664.25
1414.453742	663.25
1414.981718	665.5
1415.50964	678.25
1416.037506	666.25
1416.565316	664.75
1417.093072	665.25
1417.620772	667.0
1418.148416	662.25
1418.676005	663.0
1419.203539	663.5
1419.731018	662.75
1420.258441	661.75
1420.785809	661.75
1421.313122	663.25
1421.840379	663.25
1422.367582	666.0
1422.894728	663.0
1423.42182	662.75
1423.948856	662.25
1424.475837	661.25
1425.002762	663.25
1425.529633	663.75
1426.056448	662.0
1426.583207	663.0
1427.109912	663.25
1427.636561	662.25
1428.163155	663.0
1428.689694	665.5
1429.216177	662.0
1429.742605	661.25
1430.268978	663.5
1430.795296	666.0
1431.321558	662.75
1431.847765	663.75
1432.373917	662.0
1432.900014	663.75
1433.426056	665.75
1433.952042	664.75
1434.477973	662.0
1435.003849	663.5
1435.529669	663.0
1436.055435	665.25
1436.581145	661.75
1437.1068	664.0
1437.632399	662.75
1438.157944	661.25
1438.683433	663.5
1439.208868	661.5
1439.734247	665.25
1440.25957	661.0
1440.784839	663.5
1441.310053	663.25
1441.835211	662.5
1442.360314	663.75
1442.885362	662.5
1443.410355	663.75
1443.935292	663.75
1444.460175	667.5
1444.985002	662.75
1445.509774	664.0
1446.034491	662.75
1446.559153	662.0
1447.08376	661.5
1447.608312	662.0
1448.132808	663.0
1448.65725	662.0
1449.181636	660.5
1449.705967	661.75
1450.230243	663.25
1450.754464	665.5
1451.27863	659.5
1451.802741	662.0
1452.326797	663.5
1452.850797	661.5
1453.374743	662.25
1453.898633	664.5
1454.422468	664.25
1454.946249	662.75
1455.469974	664.0
1455.993644	661.75
1456.517259	662.25
1457.040819	664.5
1457.564324	661.25
1458.087773	661.25
1458.611168	664.25
1459.134508	663.75
1459.657793	662.5
1460.181022	663.25
1460.704197	664.5
1461.227316	664.5
1461.750381	662.25
1462.27339	662.0
1462.796345	671.5
1463.319244	673.5
1463.842089	665.25
1464.364878	662.0
1464.887613	663.75
1465.410292	662.75
1465.932916	664.25
1466.455486	664.0
1466.978	663.5
1467.50046	659.25
1468.022864	664.0
1468.545214	662.0
1469.067508	663.75
1469.589748	662.25
1470.111932	662.75
1470.634062	662.75
1471.156136	660.5
1471.678156	663.75
1472.20012	663.0
1472.72203	662.5
1473.243885	660.5
1473.765685	662.5
1474.28743	663.0
1474.80912	663.75
1475.330755	662.5
1475.852335	665.75
1476.37386	659.0
1476.89533	662.75
1477.416745	659.75
1477.938106	666.5
1478.459411	662.75
1478.980662	664.75
1479.501857	662.5
1480.022998	664.5
1480.544084	661.25
1481.065115	665.5
1481.586091	662.25
1482.107012	662.5
1482.627878	665.25
1483.14869	662.75
1483.669446	662.75
1484.190148	663.75
1484.710794	665.25
1485.231386	662.5
1485.751923	664.0
1486.272406	667.0
1486.792833	662.0
1487.313205	663.5
1487.833523	662.25
1488.353786	663.0
1488.873994	664.0
1489.394147	663.25
1489.914245	661.75
1490.434288	662.5
1490.954277	661.25
1491.474211	662.0
1491.99409	663.5
1492.513914	664.0
1493.033683	662.5
1493.553398	666.0
1494.073057	660.5
1494.592662	662.25
1495.112212	659.5
1495.631708	662.75
1496.151148	663.5
1496.670534	663.5
1497.189865	661.0
1497.709141	664.25
1498.228362	663.75
1498.747529	659.75
1499.266641	662.5
1499.785698	669.0
1500.3047	663.5
1500.823648	664.25
1501.34254	664.75
1501.861379	660.5
1502.380162	661.75
1502.89889	665.75
1503.417564	662.5
1503.936183	659.75
1504.454748	664.75
1504.973257	661.0
1505.491712	662.5
1506.010112	664.75
1506.528458	661.5
1507.046748	661.75
1507.564984	662.5
1508.083166	665.75
1508.601292	661.25
1509.119364	659.5
1509.637381	662.0
1510.155344	663.5
1510.673252	670.5
1511.191105	659.75
1511.708903	663.5
1512.226647	663.5
1512.744336	660.5
1513.261971	662.5
1513.77955	662.0
1514.297076	660.75
1514.814546	661.0
1515.331962	660.5
1515.849323	661.5
1516.366629	662.25
1516.883881	662.25
1517.401078	663.25
1517.918221	661.0
1518.435309	664.25
1518.952342	661.0
1519.469321	659.25
1519.986245	662.25
1521.536689	662.5
1522.053395	663.25
1522.570046	661.5
1523.086642	663.0
1523.603184	663.25
1524.119671	667.0
1524.636103	665.0
1525.152481	659.25
1525.668805	666.25
1526.185073	673.0
1526.701288	667.5
1527.217447	661.0
1527.733552	663.0
1528.249603	660.75
1528.765599	662.25
1529.28154	662.5
1529.797427	667.75
1530.313259	665.25
1530.829037	663.25
1531.34476	661.25
1531.860429	662.75
1532.376043	661.5
1532.891602	662.5
1533.407107	663.0
1533.922558	663.75
1534.437954	664.5
1534.953295	661.5
1535.468582	662.75
1535.983815	664.25
1536.498993	663.25
1537.014116	661.75
1537.529185	662.5
1538.044199	662.5
1538.559159	660.0
1539.074064	661.0
1539.588915	659.75
1540.103712	659.25
1540.618454	662.0
1541.133141	660.5
1541.647774	663.25
1542.162353	661.5
1542.676877	661.25
1543.191346	660.0
1543.705761	660.25
1544.220122	661.5
1544.734428	662.75
1545.24868	661.75
1545.762877	660.5
1546.27702	661.5
1546.791109	661.5
1547.305143	663.75
1547.819122	665.25
1548.333047	661.75
1548.846918	661.5
1549.360734	662.5
1549.874496	661.75
1550.388204	662.25
1550.901857	662.5
1551.415455	662.75
1551.929	664.5
1552.442489	661.5
1552.955925	660.5
1553.469306	660.75
1553.982632	662.5
1554.495905	661.0
1555.009123	662.0
1555.522286	662.25
1556.035395	661.0
1556.54845	661.25
1557.06145	663.0
1557.574396	662.5
1558.087288	662.25
1558.600125	662.25
1559.112908	661.25
1559.625637	660.75
1560.138311	661.5
1560.650931	661.25
1561.163497	662.25
1561.676008	661.5
1562.188465	661.75
1562.700867	663.75
1563.213216	662.25
1563.725509	666.25
1564.237749	663.0
1564.749934	663.0
1565.262065	662.0
1565.774142	661.75
1566.286164	663.0
1566.798132	664.25
1567.310046	663.0
1567.821906	661.0
1568.333711	662.5
1568.845462	661.25
1569.357158	662.0
1569.868801	662.75
1570.380389	660.75
1570.891922	660.75
1571.403402	658.0
1571.914827	660.5
1572.426198	658.5
1572.937515	663.5
1573.448777	664.25
1573.959985	664.0
1574.471139	661.75
1574.982239	661.25
1575.493285	663.0
1576.004276	662.0
1576.515213	662.0
1577.026096	664.5
1577.536924	663.5
1578.047698	662.25
1578.558419	663.25
1579.069084	661.25
1579.579696	660.75
1580.090254	663.75
1580.600757	661.25
1581.111206	663.5
1581.621601	659.25
1582.131941	663.0
1582.642228	663.25
1583.15246	659.75
1583.662638	661.75
1584.172762	662.5
1584.682832	662.5
1585.192847	659.25
1585.702809	661.5
1586.212716	662.5
1586.722569	660.75
1587.232368	663.0
1587.742113	662.25
1588.251803	661.5
1588.76144	662.75
1589.271022	662.25
1589.78055	663.0
1590.290024	657.25
1590.799444	661.25
1591.30881	660.75
1591.818121	661.0
1592.327379	660.75
