1042.414189	702.0
1042.980685	700.0
1043.547124	700.75
1044.113505	697.5
1044.679828	694.0
1045.246093	693.0
1045.8123	685.25
1046.378449	689.0
1046.94454	688.25
1047.510573	687.25
1048.076548	684.75
1048.642465	685.25
1049.208325	687.75
1049.774126	683.0
1050.339869	686.0
1050.905555	683.25
1051.471183	681.25
1052.036752	684.0
1052.602264	681.75
1053.167718	680.5
1053.733114	679.75
1054.298452	677.0
1054.863733	683.0
1055.428955	680.5
1055.994119	674.25
1056.559226	675.5
1057.124275	681.75
1057.689266	677.75
1058.254199	678.0
1058.819074	676.5
1059.383891	675.5
1059.94865	679.5
1060.513352	677.0
1061.077996	677.5
1061.642582	675.0
1062.20711	675.75
1062.77158	678.5
1063.335992	678.25
1063.900347	678.5
1064.464643	677.5
1065.028882	677.75
1065.593063	676.75
1066.157187	675.75
1066.721252	679.75
1067.28526	678.5
1067.84921	676.5
1068.413102	679.0
1068.976936	677.5
1069.540713	676.75
1070.104431	686.75
1070.668092	681.0
1071.231696	675.25
1071.795241	677.0
1072.358729	680.25
1072.922159	681.0
1073.485531	679.25
1074.048845	682.75
1074.612102	679.5
1075.175301	682.0
1075.738442	685.25
1076.301525	680.75
1076.864551	679.75
1077.427519	681.5
1077.990429	679.5
1078.553281	682.75
1079.116076	682.0
1079.678813	687.0
1080.241492	686.5
1080.804114	683.75
1081.366678	689.25
1081.929184	690.0
1082.491633	693.25
1083.054024	691.0
1083.616357	695.75
1084.178632	696.5
1084.74085	698.0
1085.30301	701.25
1085.865113	696.5
1086.427158	710.5
1086.989145	705.0
1087.551074	713.5
1088.112946	716.5
1088.67476	718.25
1089.236517	719.5
1089.798216	721.25
1090.359857	724.5
1090.92144	732.75
1091.482966	730.75
1092.044435	734.0
1092.605845	739.75
1093.167199	740.5
1093.728494	732.5
1094.289732	731.0
1094.850912	736.5
1095.412035	735.75
1095.9731	728.75
1096.534107	725.75
1097.095057	727.0
1097.65595	715.75
1098.216784	717.25
1098.777561	715.75
1099.338281	714.75
1099.898943	711.5
1100.459547	706.5
1101.020094	702.5
1101.580584	696.5
1102.141015	694.25
1102.701389	696.5
1103.261706	694.25
1103.821965	690.75
1104.382167	687.25
1104.942311	688.75
1105.502397	682.0
1106.062426	682.0
1106.622398	685.0
1107.182312	683.0
1107.742168	681.25
1108.301967	680.75
1108.861708	678.75
1109.421392	683.5
1109.981019	680.75
1110.540587	675.5
1111.100099	677.5
1111.659553	675.0
1112.218949	677.0
1112.778288	674.0
1113.33757	674.25
1113.896794	674.5
1114.45596	678.5
1115.015069	677.0
1115.574121	674.0
1116.133115	675.25
1116.692052	673.0
1117.250931	674.5
1117.809753	674.5
1118.368517	672.0
1118.927224	674.5
1119.485873	673.5
1120.044465	675.25
1120.603	671.0
1121.161477	672.75
1121.719897	672.5
1122.278259	671.25
1122.836564	674.25
1123.394812	672.25
1123.953002	671.75
1124.511135	672.75
1125.06921	675.25
1125.627228	673.75
1126.185189	672.0
1126.743092	673.5
1127.300938	672.25
1127.858726	670.75
1128.416457	674.75
1128.974131	672.25
1129.531748	672.75
1130.089307	672.0
1130.646808	671.25
1131.204252	673.5
1131.761639	672.0
1132.318969	672.0
1132.876241	673.25
1133.433456	674.0
1133.990614	672.25
1134.547714	674.0
1135.104757	670.75
1135.661743	674.5
1136.218671	670.5
1136.775542	673.5
1137.332356	673.0
1137.889112	671.0
1138.445811	673.0
1139.002453	669.25
1139.559037	671.75
1140.115565	669.25
1140.672035	668.75
1141.228447	672.25
1141.784803	669.75
1142.341101	670.5
1142.897342	671.25
1143.453525	674.0
1144.009651	672.75
1144.565721	672.75
1145.121732	672.5
1145.677687	670.5
1146.233584	672.0
1146.789424	672.75
1147.345207	672.25
1147.900933	671.25
1148.456601	671.0
1149.012212	668.75
1149.567766	670.0
1150.123263	669.75
1150.678702	671.75
1151.234085	671.75
1151.78941	667.5
1152.344678	671.75
1152.899888	669.5
1153.455042	674.5
1154.010138	667.5
1154.565177	673.5
1155.120159	676.0
1155.675084	668.25
1156.229951	670.5
1156.784762	669.75
1157.339515	671.0
1157.894211	670.25
1158.44885	669.25
1159.003432	673.5
1159.557956	669.75
1160.112424	673.75
1160.666834	671.0
1161.221187	673.25
1161.775483	671.5
1162.329722	670.25
1162.883904	674.75
1163.438029	669.75
1163.992096	670.75
1164.546107	667.5
1165.10006	671.75
1165.653956	670.5
1166.207795	671.0
1166.761577	672.0
1167.315302	669.25
1167.86897	669.5
1168.422581	672.25
1168.976134	670.5
1169.529631	672.25
1170.08307	671.0
1170.636453	669.25
1171.189778	667.0
1171.743046	673.5
1172.296257	668.75
1172.849412	673.75
1173.402509	668.0
1173.955549	669.0
1174.508532	671.75
1175.061458	668.75
1175.614327	668.75
1176.167138	672.0
1176.719893	669.75
1177.272591	672.25
1177.825232	669.75
1178.377816	671.0
1178.930342	672.75
1179.482812	670.25
1180.035225	669.25
1180.587581	666.75
1181.139879	669.5
1181.692121	669.25
1182.244306	669.5
1182.796434	669.5
1183.348504	668.0
1183.900518	667.75
1184.452475	672.0
1185.004375	671.75
1185.556218	672.25
1186.108004	669.25
1186.659733	670.75
1187.211405	672.0
1187.76302	667.25
1188.314578	672.0
1188.866079	668.75
1189.417523	669.5
1189.96891	669.5
1190.520241	665.25
1191.071514	667.75
1191.622731	671.5
1192.17389	674.5
1192.724993	670.75
1193.276039	691.0
1193.827027	670.5
1194.377959	672.5
1194.928834	670.0
1195.479653	672.0
1196.030414	673.25
1196.581118	671.75
1197.131766	671.0
1197.682356	672.25
1198.23289	672.0
1198.783367	671.25
1199.333786	675.75
1199.88415	673.0
1200.434456	670.5
1200.984705	670.75
1201.534898	671.75
1202.085033	673.25
1202.635112	672.0
1203.185134	674.5
1203.735099	672.0
1204.285007	676.25
1204.834859	671.5
1205.384653	672.75
1205.934391	671.5
1206.484072	671.25
1207.033696	674.25
1207.583263	673.5
1208.132774	676.5
1208.682228	670.5
1209.231624	670.75
1209.780965	673.75
1210.330248	672.0
1210.879474	672.75
1211.428644	674.0
1211.977757	673.0
1212.526813	670.75
1213.075813	675.5
1213.624755	670.75
1214.173641	674.75
1214.72247	671.0
1215.271242	672.0
1215.819958	672.75
1216.368617	672.0
1216.917219	673.0
1217.465764	676.0
1218.014253	669.75
1218.562685	672.25
1219.11106	671.75
1219.659378	671.25
1220.20764	675.25
1220.755845	672.75
1221.303993	673.0
1221.852085	674.5
1222.400119	673.5
1222.948097	676.5
1223.496019	674.0
1224.043883	674.5
1224.591691	676.5
1225.139443	676.75
1225.687137	675.25
1226.234775	672.5
1226.782357	674.75
1227.329881	676.0
1227.877349	673.5
1228.42476	668.25
1228.972115	674.5
1229.519413	676.0
1230.066654	673.75
1230.613839	676.75
1231.160967	675.5
1231.708038	674.25
1232.255053	673.25
1232.802011	679.5
1233.348912	677.25
1233.895757	678.0
1234.442545	679.5
1234.989277	676.25
1235.535951	678.5
1236.08257	676.75
1236.629131	676.25
1237.175636	677.5
1237.722085	678.0
1238.268477	676.25
1238.814812	675.75
1239.361091	674.5
1239.907313	681.75
1240.453478	677.5
1240.999587	678.5
1241.54564	678.25
1242.091636	676.0
1242.637575	679.25
1243.183457	678.0
1243.729284	679.75
1244.275053	682.75
1244.820766	682.25
1245.366423	678.0
1245.912022	679.25
1246.457566	678.5
1247.003053	681.5
1247.548483	677.75
1248.093857	681.0
1248.639174	676.25
1249.184435	678.5
1249.729639	677.0
1250.274787	681.0
1250.819878	678.5
1251.364912	682.75
1251.909891	681.25
1252.454812	682.75
1252.999677	682.75
1253.544486	682.5
1254.089238	683.5
1254.633934	681.75
1255.178573	684.5
1255.723156	681.5
1256.267682	685.25
1256.812152	681.75
1257.356565	686.25
1257.900922	689.25
1258.445223	696.75
1258.989467	696.75
1259.533654	688.75
1260.077785	706.5
1260.62186	696.25
1261.165878	699.75
1261.70984	701.5
1262.253745	704.25
1262.797594	718.75
1263.341386	732.75
1263.885123	751.75
1264.428802	747.5
1264.972425	742.25
1265.515992	728.5
1266.059503	712.5
1266.602957	699.25
1267.146354	695.25
1267.689696	694.0
1268.23298	694.75
1268.776209	691.75
1269.319381	695.25
1269.862497	686.25
1270.405556	689.5
1270.948559	688.75
1271.491506	693.25
1272.034396	691.5
1272.57723	686.25
1273.120007	694.0
1273.662728	692.25
1274.205393	697.75
1274.748002	691.75
1275.290554	692.0
1275.83305	691.5
1276.375489	698.0
1276.917872	694.5
1277.460199	695.0
1278.00247	699.75
1278.544684	698.25
1279.086842	701.0
1279.628943	709.75
1280.170989	716.5
1280.712978	731.75
1281.25491	752.25
1281.796787	790.0
1282.338607	896.5
1282.880371	1066.5
1283.422078	1362.75
1283.963729	1689.5
1284.505324	1836.25
1285.046863	1533.75
1285.588345	1106.25
1286.129772	879.5
1286.671142	785.25
1287.212455	748.75
1287.753713	728.5
1288.294914	718.25
1288.836059	711.0
1289.377147	700.75
1289.91818	703.25
1290.459156	700.5
1291.000076	694.5
1291.54094	700.5
1292.081747	697.75
1292.622499	692.75
1293.163194	690.75
1293.703833	686.5
1294.244415	690.75
1294.784942	691.25
1295.325412	687.25
1295.865826	693.0
1296.406184	689.25
1296.946486	690.0
1297.486731	687.5
1298.026921	686.0
1298.567054	688.0
1299.107131	688.75
1299.647152	688.5
1300.187116	689.0
1300.727025	686.5
1301.266877	685.0
1301.806673	683.0
1302.346413	684.25
1302.886097	686.0
1303.425725	688.75
1303.965297	685.5
1304.504812	680.75
1305.044272	686.5
1305.583675	685.0
1306.123022	687.25
1306.662313	684.0
1307.201548	685.5
1307.740727	682.5
1308.279849	681.0
1308.818916	682.75
1309.357926	683.25
1309.896881	682.75
1310.435779	681.5
1310.974621	684.75
1311.513407	682.5
1312.052137	680.5
1312.590811	682.25
1313.129429	681.5
1313.667991	684.0
1314.206497	681.25
1314.744946	681.0
1315.28334	680.75
1315.821678	682.75
1316.359959	681.25
1316.898184	682.5
1317.436354	682.75
1317.974467	679.5
1318.512525	680.5
1319.050526	682.25
1319.588471	679.5
1320.12636	680.25
1320.664194	680.5
1321.201971	681.0
1321.739692	679.5
1322.277357	680.0
1322.814967	678.75
1323.35252	680.0
1323.890017	683.5
1324.427458	682.25
1324.964843	680.75
1325.502173	682.5
1326.039446	684.25
1326.576663	683.25
1327.113824	681.5
1327.65093	682.75
1328.187979	683.0
1328.724972	677.5
1329.26191	681.25
1329.798791	679.5
1330.335617	679.0
1330.872386	681.25
1331.4091	680.25
1331.945758	682.75
1332.48236	680.5
1333.018905	677.75
1333.555395	682.75
1334.091829	681.0
1334.628207	683.75
1335.164529	682.0
1335.700796	680.5
1336.237006	681.25
1336.77316	680.25
1337.309259	677.0
1337.845301	683.25
1338.381288	680.25
1338.917219	681.0
1339.453094	678.75
1339.988913	678.25
1340.524676	682.25
1341.060383	683.25
1341.596034	681.5
1342.13163	675.5
1342.66717	680.0
1343.202653	684.25
1343.738081	679.75
1344.273453	684.5
1344.80877	683.75
1345.34403	675.25
1345.879235	680.0
1346.414383	682.75
1346.949476	684.75
1347.484513	678.75
1348.019494	679.5
1348.55442	680.5
1349.089289	679.5
1349.624103	679.75
1350.158861	679.75
1350.693563	680.0
1351.228209	680.5
1351.7628	681.75
1352.297334	682.5
1352.831813	682.5
1353.366236	683.5
1353.900604	679.75
1354.434915	683.5
1354.969171	684.5
1355.503371	680.5
1356.037515	685.25
1356.571604	684.0
1357.105636	687.25
1357.639613	684.5
1358.173535	681.5
1358.7074	685.75
1359.24121	683.25
1359.774964	684.0
1360.308662	685.25
1360.842304	683.0
1361.375891	685.25
1361.909422	687.75
1362.442897	685.75
1362.976317	685.25
1363.50968	686.75
1364.042989	683.0
1364.576241	685.75
1365.109438	691.25
1365.642579	687.5
1366.175664	686.75
1366.708693	691.5
1367.241667	688.75
1367.774585	689.75
1368.307448	689.25
1368.840255	692.0
1369.373006	701.75
1369.905701	729.5
1370.438341	724.25
1370.970925	705.0
1371.503454	692.0
1372.035926	689.75
1372.568344	690.75
1373.100705	689.0
1373.633011	688.0
1374.165261	690.0
1374.697456	691.5
1375.229595	694.0
1375.761678	692.5
1376.293705	692.5
1376.825677	693.0
1377.357594	697.75
1377.889455	702.75
1378.42126	699.0
1378.953009	702.25
1379.484703	698.5
1380.016342	703.25
1380.547924	701.25
1381.079452	710.75
1381.610923	707.25
1382.142339	710.0
1382.673699	717.75
1383.205004	724.5
1383.736253	734.25
1384.267447	741.0
1384.798585	751.75
1385.329668	785.5
1385.860695	844.0
1386.391666	958.75
1386.922582	1273.0
1387.453442	1961.5
1387.984247	3019.5
1388.514996	2862.25
1389.04569	1691.25
1389.576328	1063.25
1390.10691	860.75
1390.637437	791.5
1391.167909	752.25
1391.698325	741.75
1392.228685	722.5
1392.75899	719.25
1393.28924	709.5
1393.819434	710.75
1394.349572	707.75
1394.879655	708.25
1395.409683	701.75
1395.939655	695.5
1396.469571	698.5
1396.999432	697.5
1397.529237	698.75
1398.058987	697.75
1398.588682	701.75
1399.118321	692.75
1399.647905	695.0
1400.177433	694.75
1400.706906	692.25
1401.236323	695.0
1401.765685	694.5
1402.294991	692.5
1402.824242	692.75
1403.353437	694.0
1403.882577	693.25
1404.411662	697.5
1404.940691	693.5
1405.469665	699.5
1405.998583	703.0
1406.527446	705.0
1407.056253	707.75
1407.585005	722.75
1408.113702	742.5
1408.642343	764.5
1409.170929	800.75
1409.69946	815.0
1410.227935	798.5
1410.756354	755.5
1411.284719	728.5
1411.813028	706.0
1412.341281	700.0
1412.869479	692.75
1413.397622	688.0
1413.92571	688.75
1414.453742	689.25
1414.981718	684.25
1415.50964	697.25
1416.037506	686.25
1416.565316	684.75
1417.093072	682.75
1417.620772	681.5
1418.148416	679.0
1418.676005	679.5
1419.203539	683.0
1419.731018	681.0
1420.258441	679.75
1420.785809	679.5
1421.313122	679.75
1421.840379	682.0
1422.367582	680.25
1422.894728	677.75
1423.42182	685.5
1423.948856	681.5
1424.475837	684.25
1425.002762	683.5
1425.529633	684.25
1426.056448	685.5
1426.583207	684.5
1427.109912	679.25
1427.636561	679.25
1428.163155	678.75
1428.689694	680.0
1429.216177	675.25
1429.742605	678.75
1430.268978	679.0
1430.795296	678.75
1431.321558	675.25
1431.847765	677.0
1432.373917	676.25
1432.900014	676.25
1433.426056	678.25
1433.952042	678.25
1434.477973	676.5
1435.003849	678.75
1435.529669	675.75
1436.055435	676.5
1436.581145	673.0
1437.1068	672.5
1437.632399	677.25
1438.157944	676.5
1438.683433	673.75
1439.208868	674.25
1439.734247	677.75
1440.25957	674.25
1440.784839	674.75
1441.310053	676.5
1441.835211	672.5
1442.360314	672.75
1442.885362	671.5
1443.410355	672.75
1443.935292	674.0
1444.460175	674.0
1444.985002	673.5
1445.509774	675.25
1446.034491	674.0
1446.559153	669.0
1447.08376	674.5
1447.608312	675.25
1448.132808	672.75
1448.65725	672.5
1449.181636	670.25
1449.705967	669.75
1450.230243	671.75
1450.754464	671.0
1451.27863	673.5
1451.802741	675.5
1452.326797	669.5
1452.850797	673.0
1453.374743	676.5
1453.898633	672.25
1454.422468	670.5
1454.946249	676.5
1455.469974	669.0
1455.993644	670.25
1456.517259	673.5
1457.040819	671.5
1457.564324	668.75
1458.087773	670.25
1458.611168	669.75
1459.134508	670.75
1459.657793	671.5
1460.181022	665.5
1460.704197	670.25
1461.227316	671.25
1461.750381	672.25
1462.27339	671.5
1463.842089	673.25
1464.364878	668.25
1464.887613	670.0
1465.410292	670.25
1465.932916	668.75
1466.455486	671.5
1466.978	668.5
1467.50046	670.75
1468.022864	673.0
1468.545214	669.5
1469.067508	669.5
1469.589748	670.25
1470.111932	672.75
1470.634062	670.0
1471.156136	671.0
1471.678156	669.75
1472.20012	671.75
1472.72203	670.5
1473.243885	667.75
1473.765685	666.75
1474.28743	668.0
1474.80912	670.75
1475.330755	667.25
1475.852335	667.0
1476.37386	669.5
1476.89533	667.75
1477.416745	669.5
1477.938106	669.5
1478.459411	668.0
1478.980662	669.5
1479.501857	668.75
1480.022998	665.75
1480.544084	668.25
1481.065115	669.0
1481.586091	667.25
1482.107012	668.5
1482.627878	670.25
1483.14869	670.0
1483.669446	668.5
1484.190148	665.75
1484.710794	667.5
1485.231386	670.5
1485.751923	669.25
1486.272406	668.25
1486.792833	666.0
1487.313205	670.0
1487.833523	667.25
1488.353786	671.0
1488.873994	668.5
1489.394147	667.75
1489.914245	665.75
1490.434288	668.5
1490.954277	669.5
1491.474211	666.5
1491.99409	670.5
1492.513914	667.0
1493.033683	668.75
1493.553398	668.5
1494.073057	668.25
1494.592662	669.75
1495.112212	662.5
1495.631708	668.0
1496.151148	668.0
1496.670534	666.25
1497.189865	666.5
1497.709141	668.0
1498.228362	668.0
1498.747529	666.25
1499.266641	665.0
1499.785698	677.0
1500.3047	666.75
1500.823648	666.5
1501.34254	668.25
1501.861379	667.0
1502.380162	667.75
1502.89889	670.25
1503.417564	669.25
1503.936183	669.0
1504.454748	667.0
1504.973257	670.25
1505.491712	668.0
1506.010112	667.5
1506.528458	669.25
1507.046748	668.75
1507.564984	667.5
1508.083166	669.25
1508.601292	668.75
1509.119364	669.5
1509.637381	667.0
1510.155344	666.5
1510.673252	679.25
1511.191105	668.5
1511.708903	667.0
1512.226647	667.25
1512.744336	668.0
1513.261971	665.25
1513.77955	667.75
1514.297076	665.25
1514.814546	667.25
1515.331962	665.25
1515.849323	667.5
1516.366629	667.5
1516.883881	668.0
1517.401078	663.0
1517.918221	669.25
1518.435309	668.0
1518.952342	665.5
1519.469321	669.0
1519.986245	668.5
1520.503114	667.25
1521.019929	668.25
1521.536689	664.75
1522.053395	665.5
1522.570046	667.75
1523.086642	671.5
1523.603184	666.0
1524.119671	667.25
1524.636103	668.25
1525.152481	670.75
1525.668805	680.5
1526.185073	697.0
1526.701288	677.5
1527.217447	668.25
1527.733552	669.0
1528.249603	667.0
1528.765599	666.25
1529.28154	668.25
1529.797427	665.0
1530.313259	667.0
1530.829037	666.5
1531.34476	668.0
1531.860429	669.0
1532.376043	663.5
1532.891602	667.75
1533.407107	667.75
1533.922558	667.0
1534.437954	665.75
1534.953295	667.25
1535.468582	667.75
1535.983815	666.75
1536.498993	665.5
1537.014116	668.25
1537.529185	670.0
1538.044199	666.25
1538.559159	668.0
1539.074064	667.0
1539.588915	669.0
1540.103712	669.25
1540.618454	670.0
1541.133141	667.0
1541.647774	668.25
1542.162353	670.75
1542.676877	670.25
1543.191346	668.0
1543.705761	666.25
1544.220122	668.0
1544.734428	666.5
1545.24868	669.0
1545.762877	672.75
1546.27702	667.0
1546.791109	667.25
1547.305143	666.75
1547.819122	668.5
1548.333047	666.25
1548.846918	665.5
1549.360734	667.25
1549.874496	672.75
1550.388204	667.75
1550.901857	669.5
1551.415455	667.0
1551.929	672.75
1552.442489	668.5
1552.955925	672.0
1553.469306	667.5
1553.982632	669.5
1554.495905	667.75
1555.009123	669.0
1555.522286	670.75
1556.035395	666.5
1556.54845	672.25
1557.06145	669.0
1557.574396	666.25
1558.087288	668.5
1558.600125	671.5
1559.112908	670.75
1559.625637	667.75
1560.138311	669.0
1560.650931	669.75
1561.163497	669.0
1561.676008	669.25
1562.188465	668.5
1562.700867	671.75
1563.213216	668.75
1563.725509	670.0
1564.237749	666.5
1564.749934	670.25
1565.262065	670.0
1565.774142	676.25
1566.286164	673.0
1566.798132	670.0
1567.310046	673.0
1567.821906	668.75
1568.333711	672.25
1568.845462	672.75
1569.357158	671.0
1569.868801	671.0
1570.380389	669.75
1570.891922	668.25
1571.403402	670.25
1571.914827	668.25
1572.426198	666.0
1572.937515	669.75
1573.448777	669.75
1573.959985	667.5
1574.471139	668.5
1574.982239	669.25
1575.493285	667.5
1576.004276	666.75
1576.515213	670.0
1577.026096	667.0
1577.536924	668.75
1578.047698	664.75
1578.558419	669.5
1579.069084	669.0
1579.579696	669.25
1580.090254	664.25
1580.600757	665.25
1581.111206	668.75
1581.621601	667.0
1582.131941	667.5
1582.642228	666.0
1583.15246	667.0
1583.662638	668.5
1584.172762	667.75
1584.682832	665.25
1585.192847	668.25
1585.702809	668.25
1586.212716	667.5
1586.722569	668.0
1587.232368	665.5
1587.742113	664.75
1588.251803	671.25
1588.76144	663.75
1589.271022	668.75
1589.78055	664.5
1590.290024	665.25
1590.799444	667.5
1591.30881	664.75
1591.818121	668.25
1592.327379	665.25
