1042.414189	715.25
1042.980685	708.0
1043.547124	707.0
1044.113505	709.5
1044.679828	708.5
1045.246093	701.25
1045.8123	700.5
1046.378449	703.0
1046.94454	702.75
1047.510573	698.0
1048.076548	695.25
1048.642465	696.0
1049.208325	696.0
1049.774126	698.75
1050.339869	698.25
1050.905555	697.75
1051.471183	690.75
1052.036752	693.0
1052.602264	691.0
1053.167718	693.75
1053.733114	691.5
1054.298452	688.75
1054.863733	691.0
1055.428955	688.0
1055.994119	688.25
1056.559226	690.75
1057.124275	689.5
1057.689266	687.75
1058.254199	689.5
1058.819074	688.5
1059.383891	687.5
1059.94865	685.25
1060.513352	685.25
1061.077996	688.0
1061.642582	684.5
1062.20711	690.0
1062.77158	688.0
1063.335992	690.25
1063.900347	685.75
1064.464643	681.0
1065.028882	681.5
1065.593063	687.75
1066.157187	684.25
1066.721252	684.75
1067.28526	687.25
1067.84921	684.75
1068.413102	685.0
1068.976936	683.0
1069.540713	683.75
1070.104431	694.5
1070.668092	685.5
1071.231696	684.0
1071.795241	682.5
1072.358729	683.75
1072.922159	682.5
1073.485531	685.75
1074.048845	687.0
1074.612102	684.5
1075.175301	684.75
1075.738442	684.75
1076.301525	686.0
1076.864551	686.5
1077.427519	685.5
1077.990429	680.0
1078.553281	687.5
1079.116076	685.0
1079.678813	684.25
1080.241492	686.0
1080.804114	684.75
1081.366678	681.25
1081.929184	682.25
1082.491633	686.5
1083.054024	682.75
1083.616357	680.5
1084.178632	682.5
1084.74085	680.25
1085.30301	682.5
1085.865113	683.0
1086.427158	684.0
1086.989145	684.0
1087.551074	685.0
1088.112946	685.0
1088.67476	681.75
1089.236517	681.5
1089.798216	686.25
1090.359857	681.25
1090.92144	683.25
1091.482966	680.25
1092.044435	681.25
1092.605845	684.75
1093.167199	686.25
1093.728494	682.25
1094.289732	683.5
1094.850912	685.5
1095.412035	688.25
1095.9731	681.25
1096.534107	687.0
1097.095057	686.25
1097.65595	683.5
1098.216784	683.25
1098.777561	684.0
1099.338281	685.0
1099.898943	684.75
1100.459547	684.0
1101.020094	679.5
1101.580584	683.75
1102.141015	685.5
1102.701389	680.5
1103.261706	681.75
1103.821965	684.25
1104.382167	678.0
1104.942311	685.0
1105.502397	687.5
1106.062426	683.25
1106.622398	681.5
1107.182312	685.0
1107.742168	684.0
1108.301967	680.75
1108.861708	683.25
1109.421392	686.5
1109.981019	682.5
1110.540587	684.25
1111.100099	683.0
1111.659553	686.25
1112.218949	683.5
1112.778288	683.5
1113.33757	686.0
1113.896794	685.0
1114.45596	683.75
1115.015069	682.75
1115.574121	683.25
1116.133115	681.5
1116.692052	681.5
1117.250931	685.75
1117.809753	682.0
1118.368517	679.5
1118.927224	682.25
1119.485873	681.0
1120.044465	679.75
1120.603	683.5
1121.161477	683.25
1121.719897	685.0
1122.278259	682.5
1122.836564	682.5
1123.394812	679.5
1123.953002	680.75
1124.511135	683.25
1125.06921	680.25
1125.627228	688.0
1126.185189	680.75
1126.743092	688.0
1127.300938	686.25
1127.858726	682.75
1128.416457	681.0
1128.974131	688.5
1129.531748	684.0
1130.089307	685.75
1130.646808	683.25
1131.204252	683.0
1131.761639	684.5
1132.318969	684.0
1132.876241	684.25
1133.433456	682.0
1133.990614	683.25
1134.547714	681.75
1135.104757	682.0
1135.661743	683.0
1136.218671	680.75
1136.775542	683.75
1137.332356	682.75
1137.889112	681.0
1138.445811	683.0
1139.002453	682.25
1139.559037	682.75
1140.115565	680.0
1140.672035	678.75
1141.228447	684.75
1141.784803	682.75
1142.341101	683.25
1142.897342	681.75
1143.453525	681.0
1144.009651	687.0
1144.565721	680.75
1145.121732	683.0
1145.677687	684.25
1146.233584	684.25
1146.789424	684.75
1147.345207	685.0
1147.900933	684.0
1148.456601	683.75
1149.012212	682.75
1149.567766	684.25
1150.123263	686.75
1150.678702	680.75
1151.234085	681.75
1151.78941	685.25
1152.344678	679.75
1152.899888	682.5
1153.455042	681.25
1154.010138	683.0
1154.565177	678.75
1155.120159	684.5
1155.675084	683.5
1156.229951	682.5
1156.784762	685.25
1157.339515	683.5
1157.894211	684.5
1158.44885	684.25
1159.003432	680.25
1159.557956	684.75
1160.112424	681.25
1160.666834	683.25
1161.221187	684.75
1161.775483	687.0
1162.329722	683.75
1162.883904	682.5
1163.438029	681.0
1163.992096	683.5
1164.546107	686.5
1165.10006	682.5
1165.653956	684.5
1166.207795	681.25
1166.761577	683.25
1167.315302	684.5
1167.86897	681.75
1168.422581	684.5
1168.976134	684.75
1169.529631	685.75
1170.08307	683.5
1170.636453	682.25
1171.189778	685.0
1171.743046	685.25
1172.296257	678.5
1172.849412	683.0
1173.402509	680.0
1173.955549	684.0
1174.508532	679.75
1175.061458	682.25
1175.614327	684.0
1176.167138	684.0
1176.719893	680.0
1177.272591	684.5
1177.825232	684.0
1178.377816	684.25
1178.930342	686.0
1179.482812	680.0
1180.035225	684.5
1180.587581	679.5
1181.139879	684.5
1181.692121	683.25
1182.244306	687.0
1182.796434	684.0
1183.348504	682.5
1183.900518	682.25
1184.452475	681.0
1185.004375	687.0
1185.556218	685.5
1186.108004	686.5
1186.659733	681.5
1187.211405	684.5
1187.76302	684.5
1188.314578	683.5
1188.866079	684.25
1189.417523	684.25
1189.96891	689.25
1190.520241	682.5
1191.071514	686.5
1191.622731	686.75
1192.17389	681.25
1192.724993	688.25
1193.276039	708.0
1193.827027	681.75
1194.377959	680.75
1194.928834	683.0
1195.479653	684.5
1196.030414	681.5
1196.581118	688.75
1197.131766	681.75
1197.682356	685.0
1198.23289	683.75
1198.783367	685.0
1199.333786	682.75
1199.88415	687.25
1200.434456	681.0
1200.984705	680.0
1201.534898	683.75
1202.085033	681.25
1202.635112	684.5
1203.185134	684.0
1203.735099	683.0
1204.285007	687.25
1204.834859	686.25
1205.384653	683.0
1205.934391	683.75
1206.484072	681.75
1207.033696	686.25
1207.583263	682.0
1208.132774	684.75
1208.682228	683.75
1209.231624	685.5
1209.780965	683.25
1210.330248	681.25
1210.879474	684.5
1211.428644	684.75
1211.977757	686.0
1212.526813	685.5
1213.075813	682.25
1213.624755	686.0
1214.173641	682.75
1214.72247	689.25
1215.271242	685.5
1215.819958	685.75
1216.368617	683.0
1216.917219	685.5
1217.465764	687.0
1218.014253	684.75
1218.562685	685.0
1219.11106	687.5
1219.659378	684.75
1220.20764	685.5
1220.755845	688.75
1221.303993	686.25
1221.852085	686.75
1222.400119	688.25
1222.948097	686.5
1223.496019	684.25
1224.043883	686.75
1224.591691	685.0
1225.139443	688.5
1225.687137	688.75
1226.234775	685.0
1226.782357	686.75
1227.329881	686.5
1227.877349	685.75
1228.42476	689.75
1228.972115	688.25
1229.519413	687.5
1230.066654	687.25
1230.613839	687.5
1231.160967	683.75
1231.708038	689.75
1232.255053	690.5
1232.802011	688.75
1233.348912	686.5
1233.895757	686.5
1234.442545	693.25
1234.989277	686.0
1235.535951	691.25
1236.08257	686.25
1236.629131	690.5
1237.175636	689.25
1237.722085	686.0
1238.268477	690.25
1238.814812	688.5
1239.361091	685.5
1239.907313	690.0
1240.453478	687.5
1240.999587	686.75
1241.54564	689.5
1242.091636	691.0
1242.637575	691.25
1243.183457	695.5
1243.729284	688.5
1244.275053	690.75
1244.820766	689.25
1245.366423	690.75
1245.912022	691.25
1246.457566	690.25
1247.003053	694.0
1247.548483	692.25
1248.093857	692.5
1248.639174	696.0
1249.184435	695.25
1249.729639	693.5
1250.274787	696.0
1250.819878	691.25
1251.364912	691.0
1251.909891	694.5
1252.454812	689.75
1252.999677	697.0
1253.544486	693.5
1254.089238	692.75
1254.633934	694.25
1255.178573	691.75
1255.723156	693.0
1256.267682	694.0
1256.812152	695.25
1257.356565	693.25
1257.900922	702.75
1258.445223	705.0
1258.989467	706.25
1259.533654	704.75
1260.077785	716.0
1260.62186	701.0
1261.165878	707.25
1261.70984	709.25
1262.253745	721.25
1262.797594	727.0
1263.341386	745.25
1263.885123	748.75
1264.428802	754.25
1264.972425	747.0
1265.515992	730.25
1266.059503	715.0
1266.602957	712.25
1267.146354	704.0
1267.689696	705.25
1268.23298	705.75
1268.776209	697.5
1269.319381	703.0
1269.862497	703.5
1270.405556	703.25
1270.948559	700.25
1271.491506	704.5
1272.034396	702.0
1272.57723	697.75
1273.120007	699.0
1273.662728	699.25
1274.205393	703.5
1274.748002	700.5
1275.290554	699.0
1275.83305	701.5
1276.375489	703.5
1276.917872	706.75
1277.460199	705.25
1278.00247	705.75
1278.544684	711.25
1279.086842	710.25
1279.628943	718.25
1280.170989	726.0
1280.712978	741.25
1281.25491	766.0
1281.796787	809.0
1282.338607	914.0
1282.880371	1107.0
1283.422078	1386.5
1283.963729	1648.5
1284.505324	1664.75
1285.046863	1351.0
1285.588345	1022.5
1286.129772	848.25
1286.671142	777.0
1287.212455	747.0
1287.753713	735.0
1288.294914	718.5
1288.836059	724.5
1289.377147	716.0
1289.91818	711.75
1290.459156	707.25
1291.000076	707.5
1291.54094	702.5
1292.081747	706.0
1292.622499	705.75
1293.163194	702.25
1293.703833	703.75
1294.244415	702.75
1294.784942	701.5
1295.325412	702.25
1295.865826	700.25
1296.406184	698.5
1296.946486	702.75
1297.486731	696.75
1298.026921	699.0
1298.567054	697.25
1299.107131	696.75
1299.647152	696.75
1300.187116	701.75
1300.727025	695.5
1301.266877	694.0
1301.806673	692.0
1302.346413	692.25
1302.886097	692.25
1303.425725	699.0
1303.965297	693.75
1304.504812	692.0
1305.044272	696.5
1305.583675	688.5
1306.123022	695.25
1306.662313	694.75
1307.201548	691.75
1307.740727	696.25
1308.279849	695.0
1308.818916	691.0
1309.357926	696.0
1309.896881	691.75
1310.435779	693.5
1310.974621	691.75
1311.513407	691.0
1312.052137	692.75
1312.590811	694.0
1313.129429	690.75
1313.667991	691.0
1314.206497	689.25
1314.744946	691.0
1315.28334	692.0
1315.821678	691.25
1316.359959	690.5
1316.898184	689.0
1317.436354	693.5
1317.974467	689.25
1318.512525	691.0
1319.050526	693.25
1319.588471	690.5
1320.12636	693.75
1320.664194	694.25
1321.201971	689.75
1321.739692	694.5
1322.277357	690.75
1322.814967	688.5
1323.35252	693.25
1323.890017	694.75
1324.427458	690.5
1324.964843	694.25
1325.502173	693.5
1326.039446	694.5
1326.576663	691.25
1327.113824	688.25
1327.65093	690.75
1328.187979	690.75
1328.724972	690.25
1329.26191	690.75
1329.798791	686.75
1330.335617	691.5
1330.872386	695.25
1331.4091	695.5
1331.945758	691.75
1332.48236	690.5
1333.018905	693.0
1333.555395	696.0
1334.091829	695.0
1334.628207	689.5
1335.164529	688.5
1335.700796	692.0
1336.237006	693.5
1336.77316	689.0
1337.309259	690.0
1337.845301	690.0
1338.381288	691.25
1338.917219	688.5
1339.453094	691.0
1339.988913	694.75
1340.524676	692.25
1341.060383	690.75
1341.596034	691.75
1342.13163	690.75
1342.66717	692.75
1343.202653	690.25
1343.738081	692.75
1344.273453	688.25
1344.80877	690.0
1345.34403	694.75
1345.879235	690.25
1346.414383	695.25
1346.949476	689.75
1347.484513	690.5
1348.019494	689.75
1348.55442	692.25
1349.089289	695.75
1349.624103	691.75
1350.158861	693.5
1350.693563	690.5
1351.228209	693.75
1351.7628	694.0
1352.297334	695.5
1352.831813	691.25
1353.366236	693.0
1353.900604	692.5
1354.434915	692.75
1354.969171	693.0
1355.503371	691.5
1356.037515	694.25
1356.571604	696.75
1357.105636	695.0
1357.639613	692.5
1358.173535	695.75
1358.7074	692.25
1359.24121	698.0
1359.774964	695.0
1360.308662	691.75
1360.842304	693.75
1361.375891	697.5
1361.909422	696.75
1362.442897	696.75
1362.976317	696.75
1363.50968	693.0
1364.042989	698.25
1364.576241	697.25
1365.109438	704.75
1365.642579	701.0
1366.175664	698.25
1366.708693	699.25
1367.241667	697.25
1367.774585	699.25
1368.307448	703.75
1368.840255	703.0
1369.373006	711.0
1369.905701	731.75
1370.438341	736.25
1370.970925	712.75
1371.503454	700.0
1372.035926	703.5
1372.568344	701.25
1373.100705	699.25
1373.633011	698.0
1374.165261	704.5
1374.697456	697.75
1375.229595	702.0
1375.761678	706.75
1376.293705	704.25
1376.825677	707.75
1377.357594	704.5
1377.889455	706.5
1378.42126	710.25
1378.953009	707.5
1379.484703	705.5
1380.016342	712.0
1380.547924	713.5
1381.079452	718.5
1381.610923	715.0
1382.142339	725.0
1382.673699	721.75
1383.205004	728.5
1383.736253	736.0
1384.267447	747.0
1384.798585	774.0
1385.329668	792.0
1385.860695	857.0
1386.391666	987.5
1386.922582	1296.75
1387.453442	2026.5
1387.984247	2854.75
1388.514996	2430.25
1389.04569	1488.75
1389.576328	1007.75
1390.10691	855.25
1390.637437	784.5
1391.167909	755.0
1391.698325	741.25
1392.228685	729.75
1392.75899	722.5
1393.28924	722.0
1393.819434	722.0
1394.349572	716.25
1394.879655	709.75
1395.409683	711.75
1395.939655	710.75
1396.469571	703.25
1396.999432	702.5
1397.529237	706.5
1398.058987	706.0
1398.588682	702.5
1399.118321	704.5
1399.647905	706.25
1400.177433	704.0
1400.706906	703.5
1401.236323	704.75
1401.765685	705.75
1402.294991	703.0
1402.824242	706.0
1403.353437	703.0
1403.882577	705.25
1404.411662	701.75
1404.940691	708.75
1405.469665	708.5
1405.998583	712.25
1406.527446	719.25
1407.056253	723.75
1407.585005	733.25
1408.113702	745.25
1408.642343	770.5
1409.170929	797.25
1409.69946	806.5
1410.227935	788.5
1410.756354	754.75
1411.284719	734.0
1411.813028	714.25
1412.341281	707.5
1412.869479	704.5
1413.397622	701.75
1413.92571	701.75
1414.453742	696.0
1414.981718	696.0
1415.50964	704.5
1416.037506	693.5
1416.565316	689.75
1417.093072	695.0
1417.620772	692.5
1418.148416	691.5
1418.676005	694.25
1419.203539	693.25
1419.731018	691.75
1420.258441	691.0
1420.785809	692.25
1421.313122	691.5
1421.840379	691.75
1422.367582	695.25
1422.894728	690.0
1423.42182	695.0
1423.948856	692.25
1424.475837	689.0
1425.002762	688.75
1425.529633	693.75
1426.056448	697.0
1426.583207	694.0
1427.109912	688.0
1427.636561	691.75
1428.163155	688.0
1428.689694	687.75
1429.216177	689.75
1429.742605	689.75
1430.268978	688.5
1430.795296	687.25
1431.321558	689.25
1431.847765	689.75
1432.373917	688.75
1432.900014	688.5
1433.426056	686.0
1433.952042	687.5
1434.477973	684.5
1435.003849	692.25
1435.529669	685.25
1436.055435	682.25
1436.581145	688.25
1437.1068	683.0
1437.632399	686.75
1438.157944	689.25
1438.683433	686.25
1439.208868	690.0
1439.734247	683.75
1440.25957	687.5
1440.784839	683.75
1441.310053	684.25
1441.835211	685.5
1442.360314	688.5
1442.885362	688.5
1443.410355	684.75
1443.935292	680.75
1444.460175	685.75
1444.985002	685.75
1445.509774	683.25
1446.034491	687.5
1446.559153	683.75
1447.08376	688.0
1447.608312	684.25
1448.132808	687.0
1448.65725	686.5
1449.181636	682.0
1449.705967	685.5
1450.230243	683.5
1450.754464	682.75
1451.27863	682.25
1451.802741	683.75
1452.326797	685.75
1452.850797	686.0
1453.374743	683.25
1453.898633	683.5
1454.422468	684.25
1454.946249	684.5
1455.469974	683.25
1455.993644	687.75
1456.517259	683.25
1457.040819	685.25
1457.564324	680.25
1458.087773	682.5
1458.611168	684.75
1459.134508	684.0
1459.657793	682.5
1460.181022	680.75
1460.704197	684.5
1461.227316	681.0
1461.750381	679.5
1462.27339	683.0
1463.842089	688.25
1464.364878	684.0
1464.887613	684.5
1465.410292	684.0
1465.932916	680.75
1466.455486	685.0
1466.978	679.0
1467.50046	686.25
1468.022864	679.0
1468.545214	680.25
1469.067508	680.0
1469.589748	681.0
1470.111932	684.25
1470.634062	684.25
1471.156136	677.75
1471.678156	680.75
1472.20012	685.0
1472.72203	682.5
1473.243885	683.5
1473.765685	681.25
1474.28743	682.75
1474.80912	685.5
1475.330755	683.5
1475.852335	678.75
1476.37386	680.5
1476.89533	680.5
1477.416745	682.5
1477.938106	681.75
1478.459411	682.5
1478.980662	681.75
1479.501857	684.5
1480.022998	679.0
1480.544084	681.5
1481.065115	680.75
1481.586091	681.0
1482.107012	682.25
1482.627878	683.75
1483.14869	680.75
1483.669446	680.0
1484.190148	680.25
1484.710794	684.25
1485.231386	683.25
1485.751923	682.25
1486.272406	678.0
1486.792833	680.5
1487.313205	680.25
1487.833523	683.75
1488.353786	681.0
1488.873994	681.5
1489.394147	681.0
1489.914245	679.75
1490.434288	680.75
1490.954277	680.25
1491.474211	681.25
1491.99409	680.5
1492.513914	681.25
1493.033683	683.25
1493.553398	683.0
1494.073057	681.75
1494.592662	679.75
1495.112212	681.75
1495.631708	678.25
1496.151148	680.0
1496.670534	679.5
1497.189865	681.75
1497.709141	680.5
1498.228362	681.5
1498.747529	680.0
1499.266641	680.75
1499.785698	688.25
1500.3047	680.0
1500.823648	679.0
1501.34254	682.75
1501.861379	681.75
1502.380162	682.75
1502.89889	682.5
1503.417564	685.25
1503.936183	683.0
1504.454748	684.25
1504.973257	683.25
1505.491712	677.25
1506.010112	680.0
1506.528458	681.5
1507.046748	682.5
1507.564984	679.5
1508.083166	680.0
1508.601292	678.0
1509.119364	683.0
1509.637381	679.5
1510.155344	678.0
1510.673252	689.75
1511.191105	679.0
1511.708903	681.25
1512.226647	682.0
1512.744336	678.25
1513.261971	677.5
1513.77955	681.75
1514.297076	679.25
1514.814546	682.5
1515.331962	679.0
1515.849323	680.25
1516.366629	679.0
1516.883881	681.75
1517.401078	677.5
1517.918221	679.0
1518.435309	680.0
1518.952342	682.0
1519.469321	678.0
1519.986245	677.0
1520.503114	679.0
1521.019929	680.25
1521.536689	678.25
1522.053395	681.25
1522.570046	678.75
1523.086642	685.75
1523.603184	679.5
1524.119671	680.75
1524.636103	680.75
1525.152481	683.5
1525.668805	704.25
1526.701288	692.75
1527.217447	681.0
1527.733552	678.25
1528.249603	680.75
1528.765599	678.5
1529.28154	681.25
1529.797427	676.75
1530.313259	681.25
1530.829037	679.25
1531.34476	678.75
1531.860429	682.75
1532.376043	681.5
1532.891602	679.75
1533.407107	682.75
1533.922558	682.25
1534.437954	678.0
1534.953295	683.25
1535.468582	685.75
1535.983815	682.5
1536.498993	682.25
1537.014116	680.25
1537.529185	682.75
1538.044199	680.5
1538.559159	676.5
1539.074064	679.25
1539.588915	682.0
1540.103712	683.5
1540.618454	682.75
1541.133141	679.5
1541.647774	678.75
1542.162353	683.0
1542.676877	679.0
1543.191346	681.5
1543.705761	681.5
1544.220122	681.25
1544.734428	681.75
1545.24868	681.75
1545.762877	680.0
1546.27702	685.25
1546.791109	680.75
1547.305143	678.25
1547.819122	683.5
1548.333047	680.5
1548.846918	681.25
1549.360734	687.0
1549.874496	683.25
1550.388204	684.5
1550.901857	684.25
1551.415455	677.0
1551.929	679.25
1552.442489	680.0
1552.955925	680.5
1553.469306	676.75
1553.982632	682.0
1554.495905	684.75
1555.009123	682.0
1555.522286	682.25
1556.035395	680.25
1556.54845	685.25
1557.06145	682.25
1557.574396	684.0
1558.087288	682.0
1558.600125	683.0
1559.112908	681.25
1559.625637	683.75
1560.138311	679.5
1560.650931	678.75
1561.163497	683.75
1561.676008	678.0
1562.188465	684.75
1562.700867	680.5
1563.213216	682.5
1563.725509	684.75
1564.237749	685.0
1564.749934	685.5
1565.262065	686.25
1565.774142	687.75
1566.286164	680.75
1566.798132	691.5
1567.310046	685.0
1567.821906	683.0
1568.333711	684.5
1568.845462	680.25
1569.357158	683.5
1569.868801	686.25
1570.380389	682.25
1570.891922	681.5
1571.403402	684.75
1571.914827	679.5
1572.426198	683.75
1572.937515	684.5
1573.448777	679.0
1573.959985	682.0
1574.471139	682.25
1574.982239	678.0
1575.493285	679.0
1576.004276	678.75
1576.515213	678.5
1577.026096	679.5
1577.536924	680.25
1578.047698	682.0
1578.558419	682.0
1579.069084	680.5
1579.579696	682.0
1580.090254	682.0
1580.600757	679.5
1581.111206	681.0
1581.621601	679.0
1582.131941	682.5
1582.642228	676.0
1583.15246	681.25
1583.662638	678.75
1584.172762	678.5
1584.682832	680.25
1585.192847	680.0
1585.702809	679.0
1586.212716	677.5
1586.722569	682.5
1587.232368	680.25
1587.742113	681.5
1588.251803	679.25
1588.76144	681.25
1589.271022	683.0
1589.78055	677.5
1590.290024	677.75
1590.799444	683.25
1591.30881	680.0
1591.818121	680.0
1592.327379	680.0
