1042.414189	695.4000244
1042.980685	693.4000244
1043.547124	691.0
1044.113505	693.7999878
1044.679828	689.0
1045.246093	696.7999878
1045.8123	695.4000244
1046.378449	692.7999878
1046.94454	691.2000122
1047.510573	691.2000122
1048.076548	689.0
1048.642465	687.2000122
1049.208325	688.4000244
1049.774126	691.0
1050.339869	690.4000244
1050.905555	687.4000244
1051.471183	691.0
1052.036752	691.0
1052.602264	685.2000122
1053.167718	686.4000244
1053.733114	690.7999878
1054.298452	687.5999756
1054.863733	690.2000122
1055.428955	689.0
1055.994119	688.7999878
1056.559226	688.4000244
1057.124275	686.4000244
1057.689266	687.5999756
1058.254199	689.4000244
1058.819074	694.5999756
1059.383891	687.7999878
1059.94865	689.7999878
1060.513352	686.7999878
1061.077996	686.5999756
1061.642582	690.0
1062.20711	688.4000244
1062.77158	687.7999878
1063.335992	686.2000122
1063.900347	688.0
1064.464643	688.0
1065.028882	687.5999756
1065.593063	690.4000244
1066.157187	689.2000122
1066.721252	688.5999756
1067.28526	686.2000122
1067.84921	687.0
1068.413102	689.0
1068.976936	688.5999756
1069.540713	684.5999756
1070.104431	690.2000122
1070.668092	687.5999756
1071.231696	687.5999756
1071.795241	689.2000122
1072.358729	686.4000244
1072.922159	684.7999878
1073.485531	685.0
1074.048845	688.2000122
1074.612102	689.2000122
1075.175301	690.7999878
1075.738442	686.7999878
1076.301525	684.7999878
1076.864551	687.2000122
1077.427519	690.5999756
1077.990429	685.5999756
1078.553281	684.4000244
1079.116076	687.7999878
1079.678813	688.2000122
1080.241492	687.5999756
1080.804114	684.7999878
1081.366678	687.5999756
1081.929184	686.0
1082.491633	689.7999878
1083.054024	687.5999756
1083.616357	686.0
1084.178632	685.4000244
1084.74085	690.5999756
1085.30301	685.4000244
1085.865113	689.0
1086.427158	687.7999878
1086.989145	685.4000244
1087.551074	688.7999878
1088.112946	689.2000122
1088.67476	691.0
1089.236517	689.4000244
1089.798216	686.7999878
1090.359857	687.5999756
1090.92144	686.2000122
1091.482966	684.7999878
1092.044435	690.0
1092.605845	689.7999878
1093.167199	688.4000244
1093.728494	689.2000122
1094.289732	685.4000244
1094.850912	686.2000122
1095.412035	696.7999878
1095.9731	686.7999878
1096.534107	687.0
1097.095057	694.0
1097.65595	686.5999756
1098.216784	689.4000244
1098.777561	687.7999878
1099.338281	686.2000122
1099.898943	687.0
1100.459547	689.7999878
1101.020094	690.5999756
1101.580584	689.2000122
1102.141015	688.5999756
1102.701389	688.5999756
1103.261706	686.7999878
1103.821965	690.7999878
1104.382167	684.5999756
1104.942311	689.2000122
1105.502397	683.7999878
1106.062426	687.4000244
1106.622398	687.2000122
1107.182312	685.2000122
1107.742168	687.7999878
1108.301967	689.7999878
1108.861708	687.0
1109.421392	689.4000244
1109.981019	685.2000122
1110.540587	687.7999878
1111.100099	687.7999878
1111.659553	684.7999878
1112.218949	687.7999878
1112.778288	686.7999878
1113.33757	693.2000122
1113.896794	689.0
1114.45596	687.5999756
1115.015069	693.4000244
1115.574121	686.7999878
1116.133115	693.0
1116.692052	688.0
1117.250931	688.5999756
1117.809753	686.0
1118.368517	690.2000122
1118.927224	685.5999756
1119.485873	686.5999756
1120.044465	688.2000122
1120.603	688.5999756
1121.161477	687.2000122
1121.719897	688.2000122
1122.278259	688.0
1122.836564	691.5999756
1123.394812	685.7999878
1123.953002	688.5999756
1124.511135	685.4000244
1125.06921	689.4000244
1125.627228	690.5999756
1126.185189	690.2000122
1126.743092	691.5999756
1127.300938	692.0
1127.858726	692.5999756
1128.416457	691.7999878
1128.974131	694.0
1129.531748	695.7999878
1130.089307	693.4000244
1130.646808	689.4000244
1131.204252	690.0
1131.761639	691.4000244
1132.318969	688.0
1132.876241	688.4000244
1133.433456	689.4000244
1133.990614	685.4000244
1134.547714	691.2000122
1135.104757	683.2000122
1135.661743	691.0
1136.218671	687.0
1136.775542	690.4000244
1137.332356	688.0
1137.889112	686.7999878
1138.445811	685.5999756
1139.002453	689.2000122
1139.559037	687.2000122
1140.115565	692.5999756
1140.672035	685.0
1141.228447	689.7999878
1141.784803	690.2000122
1142.341101	687.2000122
1142.897342	688.0
1143.453525	690.4000244
1144.009651	686.5999756
1144.565721	693.0
1145.121732	689.0
1145.677687	687.0
1146.233584	684.2000122
1146.789424	691.4000244
1147.345207	687.4000244
1147.900933	684.7999878
1148.456601	689.7999878
1149.012212	690.2000122
1149.567766	689.0
1150.123263	686.7999878
1150.678702	686.5999756
1151.234085	688.0
1151.78941	687.4000244
1152.344678	689.0
1152.899888	687.4000244
1153.455042	691.0
1154.010138	692.5999756
1154.565177	689.4000244
1155.120159	685.0
1155.675084	687.0
1156.229951	688.5999756
1156.784762	689.7999878
1157.339515	688.7999878
1157.894211	688.0
1158.44885	690.0
1159.003432	689.2000122
1159.557956	693.2000122
1160.112424	689.5999756
1160.666834	691.5999756
1161.221187	689.5999756
1161.775483	690.2000122
1162.329722	686.7999878
1162.883904	686.4000244
1163.438029	689.5999756
1163.992096	691.4000244
1164.546107	687.4000244
1165.10006	690.7999878
1165.653956	692.5999756
1166.207795	690.2000122
1166.761577	686.7999878
1167.315302	686.5999756
1167.86897	688.0
1168.422581	690.0
1168.976134	687.7999878
1169.529631	685.5999756
1170.08307	688.5999756
1170.636453	689.7999878
1171.189778	688.4000244
1171.743046	689.0
1172.296257	688.4000244
1172.849412	685.5999756
1173.402509	691.0
1173.955549	689.4000244
1174.508532	688.2000122
1175.061458	688.7999878
1175.614327	687.4000244
1176.167138	688.5999756
1176.719893	686.0
1177.272591	688.0
1177.825232	688.2000122
1178.377816	690.7999878
1178.930342	691.0
1179.482812	691.2000122
1180.035225	686.4000244
1180.587581	689.7999878
1181.139879	690.4000244
1181.692121	693.2000122
1182.244306	688.0
1182.796434	689.2000122
1183.348504	686.0
1183.900518	686.7999878
1184.452475	687.4000244
1185.004375	689.4000244
1185.556218	690.0
1186.108004	689.5999756
1186.659733	687.5999756
1187.211405	688.2000122
1187.76302	687.7999878
1188.314578	690.2000122
1188.866079	686.5999756
1189.417523	689.2000122
1189.96891	690.7999878
1190.520241	687.0
1191.071514	691.4000244
1191.622731	688.5999756
1192.17389	689.2000122
1192.724993	686.4000244
1193.276039	701.4000244
1193.827027	690.2000122
1194.377959	685.2000122
1194.928834	684.2000122
1195.479653	686.7999878
1196.030414	689.7999878
1196.581118	690.4000244
1197.131766	685.4000244
1197.682356	688.2000122
1198.23289	687.4000244
1198.783367	685.2000122
1199.333786	689.4000244
1199.88415	686.4000244
1200.434456	691.0
1200.984705	685.7999878
1201.534898	689.7999878
1202.085033	687.4000244
1202.635112	686.2000122
1203.185134	687.5999756
1203.735099	687.0
1204.285007	689.5999756
1204.834859	688.4000244
1205.384653	685.0
1205.934391	687.0
1206.484072	686.4000244
1207.033696	686.2000122
1207.583263	688.2000122
1208.132774	689.7999878
1208.682228	689.5999756
1209.231624	685.5999756
1209.780965	688.0
1210.330248	688.4000244
1210.879474	687.0
1211.428644	686.0
1211.977757	686.5999756
1212.526813	686.2000122
1213.075813	688.0
1213.624755	687.0
1214.173641	689.2000122
1214.72247	688.5999756
1215.271242	690.2000122
1215.819958	684.7999878
1216.368617	688.2000122
1216.917219	686.7999878
1217.465764	690.5999756
1218.014253	690.4000244
1218.562685	688.5999756
1219.11106	683.5999756
1219.659378	689.7999878
1220.20764	689.7999878
1220.755845	686.2000122
1221.303993	687.5999756
1221.852085	687.5999756
1222.400119	685.5999756
1222.948097	687.4000244
1223.496019	686.0
1224.043883	686.0
1224.591691	686.2000122
1225.139443	688.2000122
1225.687137	688.4000244
1226.234775	688.5999756
1226.782357	688.0
1227.329881	689.4000244
1227.877349	687.7999878
1228.42476	688.2000122
1228.972115	685.7999878
1229.519413	690.5999756
1230.066654	689.4000244
1230.613839	683.4000244
1231.160967	690.7999878
1231.708038	688.5999756
1232.255053	689.2000122
1232.802011	686.2000122
1233.348912	687.2000122
1233.895757	687.0
1234.442545	688.4000244
1234.989277	687.7999878
1235.535951	687.4000244
1236.08257	689.4000244
1236.629131	690.7999878
1237.175636	685.7999878
1237.722085	690.2000122
1238.268477	685.5999756
1238.814812	687.4000244
1239.361091	687.7999878
1239.907313	690.4000244
1240.453478	686.2000122
1240.999587	686.4000244
1241.54564	690.0
1242.091636	687.7999878
1242.637575	688.2000122
1243.183457	687.4000244
1243.729284	689.2000122
1244.275053	686.4000244
1244.820766	693.4000244
1245.366423	689.7999878
1245.912022	686.5999756
1246.457566	689.7999878
1247.003053	686.7999878
1247.548483	691.7999878
1248.093857	688.4000244
1248.639174	687.5999756
1249.184435	688.5999756
1249.729639	687.7999878
1250.274787	686.2000122
1250.819878	686.2000122
1251.364912	688.7999878
1251.909891	686.7999878
1252.454812	685.4000244
1252.999677	686.4000244
1253.544486	688.4000244
1254.089238	688.5999756
1254.633934	688.4000244
1255.178573	687.7999878
1255.723156	689.5999756
1256.267682	689.7999878
1256.812152	687.4000244
1257.356565	689.4000244
1257.900922	685.0
1258.445223	688.2000122
1258.989467	688.5999756
1259.533654	692.5999756
1260.077785	700.4000244
1260.62186	687.2000122
1261.165878	687.4000244
1261.70984	688.5999756
1262.253745	687.4000244
1262.797594	692.4000244
1263.341386	691.0
1263.885123	690.5999756
1264.428802	696.0
1264.972425	701.2000122
1265.515992	699.5999756
1266.059503	696.4000244
1266.602957	691.4000244
1267.146354	691.0
1267.689696	691.2000122
1268.23298	692.2000122
1268.776209	690.0
1269.319381	689.4000244
1269.862497	692.0
1270.405556	688.0
1270.948559	687.0
1271.491506	688.0
1272.034396	691.7999878
1272.57723	687.0
1273.120007	691.4000244
1273.662728	692.2000122
1274.205393	686.0
1274.748002	685.0
1275.290554	688.0
1275.83305	690.2000122
1276.375489	686.7999878
1276.917872	687.4000244
1277.460199	686.7999878
1278.00247	690.7999878
1278.544684	688.2000122
1279.086842	687.5999756
1279.628943	690.4000244
1280.170989	692.7999878
1280.712978	690.2000122
1281.25491	689.0
1281.796787	692.7999878
1282.338607	694.2000122
1282.880371	695.5999756
1283.422078	699.0
1283.963729	716.5999756
1284.505324	765.2000122
1285.046863	850.7999878
1285.588345	865.7999878
1286.129772	764.7999878
1286.671142	712.7999878
1287.212455	702.4000244
1287.753713	695.4000244
1288.294914	694.5999756
1288.836059	692.0
1289.377147	689.2000122
1289.91818	689.7999878
1290.459156	691.2000122
1291.000076	689.7999878
1291.54094	686.4000244
1292.081747	687.5999756
1292.622499	689.4000244
1293.163194	686.4000244
1293.703833	690.5999756
1294.244415	685.4000244
1294.784942	687.5999756
1295.325412	686.5999756
1295.865826	682.5999756
1296.406184	688.4000244
1296.946486	685.7999878
1297.486731	689.2000122
1298.026921	689.2000122
1298.567054	686.4000244
1299.107131	686.7999878
1299.647152	692.4000244
1300.187116	688.4000244
1300.727025	687.7999878
1301.266877	690.7999878
1301.806673	686.7999878
1302.346413	683.4000244
1302.886097	687.4000244
1303.425725	686.5999756
1303.965297	690.2000122
1304.504812	683.7999878
1305.044272	687.5999756
1305.583675	685.0
1306.123022	690.0
1306.662313	691.5999756
1307.201548	687.5999756
1307.740727	688.7999878
1308.279849	686.5999756
1308.818916	684.2000122
1309.357926	686.5999756
1309.896881	689.2000122
1310.435779	687.2000122
1310.974621	692.2000122
1311.513407	687.5999756
1312.052137	685.7999878
1312.590811	688.0
1313.129429	689.4000244
1313.667991	683.7999878
1314.206497	683.5999756
1314.744946	685.7999878
1315.28334	688.2000122
1315.821678	687.4000244
1316.359959	684.5999756
1316.898184	687.0
1317.436354	685.4000244
1317.974467	688.4000244
1318.512525	690.7999878
1319.050526	691.5999756
1319.588471	685.7999878
1320.12636	688.0
1320.664194	688.5999756
1321.201971	689.5999756
1321.739692	686.7999878
1322.277357	690.5999756
1322.814967	688.7999878
1323.35252	689.5999756
1323.890017	690.2000122
1324.427458	687.5999756
1324.964843	688.7999878
1325.502173	684.7999878
1326.039446	686.2000122
1326.576663	690.4000244
1327.113824	686.0
1327.65093	685.4000244
1328.187979	682.7999878
1328.724972	686.5999756
1329.26191	686.2000122
1329.798791	686.2000122
1330.335617	683.4000244
1330.872386	685.7999878
1331.4091	686.0
1331.945758	687.0
1332.48236	687.4000244
1333.018905	683.4000244
1333.555395	687.2000122
1334.091829	683.2000122
1334.628207	687.5999756
1335.164529	687.7999878
1335.700796	688.5999756
1336.237006	687.2000122
1336.77316	690.5999756
1337.309259	689.2000122
1337.845301	688.0
1338.381288	686.2000122
1338.917219	688.2000122
1339.453094	687.0
1339.988913	688.0
1340.524676	679.4000244
1341.060383	686.0
1341.596034	687.4000244
1342.13163	685.5999756
1342.66717	685.7999878
1343.202653	689.5999756
1343.738081	686.7999878
1344.273453	687.0
1344.80877	683.4000244
1345.34403	686.0
1345.879235	686.5999756
1346.414383	685.0
1346.949476	689.2000122
1347.484513	686.7999878
1348.019494	687.2000122
1348.55442	687.7999878
1349.089289	683.4000244
1349.624103	688.4000244
1350.158861	685.2000122
1350.693563	688.7999878
1351.228209	684.7999878
1351.7628	687.0
1352.297334	686.0
1352.831813	685.0
1353.366236	689.0
1353.900604	683.2000122
1354.434915	685.0
1354.969171	686.5999756
1355.503371	687.4000244
1356.037515	686.4000244
1356.571604	686.7999878
1357.105636	686.4000244
1357.639613	688.4000244
1358.173535	687.0
1358.7074	682.7999878
1359.24121	688.4000244
1359.774964	690.7999878
1360.308662	686.5999756
1360.842304	688.0
1361.375891	683.2000122
1361.909422	685.0
1362.442897	688.5999756
1362.976317	689.2000122
1363.50968	687.5999756
1364.042989	688.2000122
1364.576241	684.4000244
1365.109438	687.5999756
1365.642579	684.5999756
1366.175664	686.5999756
1366.708693	686.4000244
1367.241667	687.7999878
1367.774585	687.7999878
1368.307448	684.2000122
1368.840255	687.0
1369.373006	687.5999756
1369.905701	690.0
1370.438341	692.7999878
1370.970925	688.4000244
1371.503454	686.7999878
1372.035926	689.0
1372.568344	687.4000244
1373.100705	687.5999756
1373.633011	684.4000244
1374.165261	685.2000122
1374.697456	684.5999756
1375.229595	687.2000122
1375.761678	684.0
1376.293705	687.4000244
1376.825677	684.2000122
1377.357594	687.7999878
1377.889455	688.4000244
1378.42126	688.4000244
1378.953009	689.5999756
1379.484703	689.4000244
1380.016342	689.4000244
1380.547924	688.2000122
1381.079452	687.5999756
1381.610923	691.2000122
1382.142339	692.5999756
1382.673699	687.4000244
1383.205004	689.7999878
1383.736253	689.7999878
1384.267447	687.4000244
1384.798585	693.2000122
1385.329668	691.2000122
1385.860695	692.2000122
1386.391666	696.2000122
1386.922582	701.5999756
1387.453442	722.4000244
1387.984247	802.2000122
1388.514996	990.4000244
1389.04569	983.4000244
1389.576328	775.7999878
1390.10691	713.0
1390.637437	697.7999878
1391.167909	697.2000122
1391.698325	690.4000244
1392.228685	688.2000122
1392.75899	686.4000244
1393.28924	689.5999756
1393.819434	693.4000244
1394.349572	688.4000244
1394.879655	687.0
1395.409683	688.7999878
1395.939655	685.2000122
1396.469571	689.2000122
1396.999432	688.0
1397.529237	687.2000122
1398.058987	689.7999878
1398.588682	690.0
1399.118321	685.4000244
1399.647905	685.4000244
1400.177433	686.2000122
1400.706906	688.0
1401.236323	686.2000122
1401.765685	686.4000244
1402.294991	686.7999878
1402.824242	685.4000244
1403.353437	683.0
1403.882577	685.2000122
1404.411662	689.2000122
1404.940691	688.5999756
1405.469665	689.0
1405.998583	687.0
1406.527446	688.2000122
1407.056253	689.5999756
1407.585005	687.5999756
1408.113702	688.5999756
1408.642343	688.4000244
1409.170929	695.4000244
1409.69946	707.4000244
1410.227935	704.7999878
1410.756354	700.5999756
1411.284719	694.2000122
1411.813028	692.4000244
1412.341281	686.5999756
1412.869479	687.7999878
1413.397622	683.7999878
1413.92571	686.7999878
1414.453742	686.4000244
1414.981718	685.4000244
1415.50964	697.0
1416.037506	684.5999756
1416.565316	685.2000122
1417.093072	688.7999878
1417.620772	686.5999756
1418.148416	683.4000244
1418.676005	683.0
1419.203539	687.5999756
1419.731018	688.0
1420.258441	684.2000122
1420.785809	681.7999878
1421.313122	688.0
1421.840379	683.7999878
1422.367582	686.7999878
1422.894728	685.4000244
1423.42182	688.0
1423.948856	684.4000244
1424.475837	685.2000122
1425.002762	687.7999878
1425.529633	683.7999878
1426.056448	685.5999756
1426.583207	688.2000122
1427.109912	684.5999756
1427.636561	685.4000244
1428.163155	686.5999756
1428.689694	685.5999756
1429.216177	687.5999756
1429.742605	684.7999878
1430.268978	685.0
1430.795296	684.7999878
1431.321558	684.4000244
1431.847765	686.2000122
1432.373917	686.4000244
1432.900014	685.4000244
1433.426056	684.2000122
1433.952042	686.4000244
1434.477973	685.4000244
1435.003849	684.2000122
1435.529669	686.4000244
1436.055435	684.7999878
1436.581145	684.5999756
1437.1068	683.4000244
1437.632399	685.5999756
1438.157944	684.2000122
1438.683433	683.7999878
1439.208868	682.7999878
1439.734247	683.5999756
1440.25957	682.7999878
1440.784839	684.2000122
1441.310053	685.5999756
1441.835211	682.5999756
1442.360314	682.4000244
1442.885362	686.7999878
1443.410355	686.0
1443.935292	684.5999756
1444.460175	683.7999878
1444.985002	683.5999756
1445.509774	683.4000244
1446.034491	683.4000244
1446.559153	687.0
1447.08376	685.4000244
1447.608312	683.7999878
1448.132808	683.7999878
1448.65725	684.0
1449.181636	685.0
1449.705967	682.4000244
1450.230243	681.7999878
1450.754464	683.2000122
1451.27863	686.2000122
1451.802741	684.7999878
1452.326797	685.0
1452.850797	685.2000122
1453.374743	684.5999756
1453.898633	684.4000244
1454.422468	681.7999878
1454.946249	683.4000244
1455.469974	684.5999756
1455.993644	680.0
1456.517259	687.4000244
1457.040819	680.0
1457.564324	686.2000122
1458.087773	686.4000244
1458.611168	682.5999756
1459.134508	682.5999756
1459.657793	687.4000244
1460.181022	682.7999878
1460.704197	684.7999878
1461.227316	683.5999756
1461.750381	683.2000122
1462.27339	682.0
1462.796345	689.4000244
1463.319244	691.5999756
1463.842089	685.5999756
1464.364878	683.2000122
1464.887613	682.0
1465.410292	684.0
1465.932916	679.4000244
1466.455486	683.7999878
1466.978	682.2000122
1467.50046	683.5999756
1468.022864	683.7999878
1468.545214	684.0
1469.067508	686.0
1469.589748	684.7999878
1470.111932	685.0
1470.634062	684.4000244
1471.156136	683.2000122
1471.678156	686.2000122
1472.20012	681.7999878
1472.72203	681.0
1473.243885	683.4000244
1473.765685	685.2000122
1474.28743	682.7999878
1474.80912	683.7999878
1475.330755	681.5999756
1475.852335	682.0
1476.37386	683.7999878
1476.89533	680.5999756
1477.416745	681.0
1477.938106	684.4000244
1478.459411	684.5999756
1478.980662	684.2000122
1479.501857	681.7999878
1480.022998	682.7999878
1480.544084	683.4000244
1481.065115	682.4000244
1481.586091	686.5999756
1482.107012	682.5999756
1482.627878	680.5999756
1483.14869	680.7999878
1483.669446	681.0
1484.190148	681.2000122
1484.710794	682.7999878
1485.231386	683.0
1485.751923	685.2000122
1486.272406	680.4000244
1486.792833	681.0
1487.313205	684.7999878
1487.833523	680.2000122
1488.353786	679.7999878
1488.873994	679.2000122
1489.394147	682.5999756
1489.914245	684.5999756
1490.434288	682.7999878
1490.954277	680.4000244
1491.474211	683.2000122
1491.99409	680.4000244
1492.513914	684.5999756
1493.033683	681.4000244
1493.553398	682.2000122
1494.073057	681.7999878
1494.592662	682.5999756
1495.112212	683.7999878
1495.631708	683.0
1496.151148	679.4000244
1496.670534	676.7999878
1497.189865	684.4000244
1497.709141	683.4000244
1498.228362	682.0
1498.747529	683.7999878
1499.266641	680.5999756
1499.785698	686.2000122
1500.3047	682.5999756
1500.823648	679.2000122
1501.34254	680.7999878
1501.861379	682.0
1502.380162	681.2000122
1502.89889	681.5999756
1503.417564	682.2000122
1503.936183	685.5999756
1504.454748	678.7999878
1504.973257	680.2000122
1505.491712	681.2000122
1506.010112	682.4000244
1506.528458	681.4000244
1507.046748	685.0
1507.564984	679.2000122
1508.083166	678.7999878
1508.601292	681.4000244
1509.119364	694.2000122
1510.155344	684.7999878
1510.673252	686.0
1511.191105	681.2000122
1511.708903	684.4000244
1512.226647	681.4000244
1512.744336	683.0
1513.261971	682.5999756
1513.77955	682.2000122
1514.297076	681.4000244
1514.814546	683.5999756
1515.331962	679.4000244
1515.849323	680.7999878
1516.366629	680.4000244
1516.883881	682.5999756
1517.401078	679.4000244
1517.918221	683.4000244
1518.435309	681.4000244
1518.952342	680.4000244
1519.469321	680.5999756
1519.986245	678.7999878
1520.503114	679.5999756
1521.019929	681.5999756
1521.536689	681.2000122
1522.053395	679.2000122
1522.570046	680.5999756
1523.086642	683.2000122
1523.603184	682.2000122
1524.119671	683.0
1524.636103	681.7999878
1525.152481	684.7999878
1525.668805	682.0
1526.185073	693.2000122
1526.701288	684.7999878
1527.217447	679.0
1527.733552	679.0
1528.249603	677.5999756
1528.765599	683.5999756
1529.28154	683.4000244
1529.797427	680.5999756
1530.313259	681.5999756
1530.829037	681.7999878
1531.34476	679.0
1531.860429	681.7999878
1532.376043	679.7999878
1532.891602	679.0
1533.407107	683.4000244
1533.922558	681.5999756
1534.437954	678.5999756
1534.953295	680.7999878
1535.468582	681.0
1535.983815	682.2000122
1536.498993	681.5999756
1537.014116	680.5999756
1537.529185	681.4000244
1538.044199	683.5999756
1538.559159	681.5999756
1539.074064	679.2000122
1539.588915	682.7999878
1540.103712	682.5999756
1540.618454	682.0
1541.133141	679.0
1541.647774	678.7999878
1542.162353	681.5999756
1542.676877	680.4000244
1543.191346	681.5999756
1543.705761	682.5999756
1544.220122	682.7999878
1544.734428	678.7999878
1545.24868	680.4000244
1545.762877	680.2000122
1546.27702	682.7999878
1546.791109	678.7999878
1547.305143	682.7999878
1547.819122	682.0
1548.333047	682.2000122
1548.846918	679.0
1549.360734	680.5999756
1549.874496	679.4000244
1550.388204	679.5999756
1550.901857	685.5999756
1551.415455	681.2000122
1551.929	682.4000244
1552.442489	682.5999756
1552.955925	681.2000122
1553.469306	679.4000244
1553.982632	680.5999756
1554.495905	680.7999878
1555.009123	681.7999878
1555.522286	682.7999878
1556.035395	682.5999756
1556.54845	681.0
1557.06145	681.2000122
1557.574396	680.5999756
1558.087288	681.4000244
1558.600125	678.4000244
1559.112908	682.0
1559.625637	684.4000244
1560.138311	680.7999878
1560.650931	681.4000244
1561.163497	683.7999878
1561.676008	681.4000244
1562.188465	681.5999756
1562.700867	684.4000244
1563.213216	682.4000244
1563.725509	678.7999878
1564.237749	682.0
1564.749934	681.7999878
1565.262065	681.2000122
1565.774142	680.5999756
1566.286164	682.7999878
1566.798132	682.7999878
1567.310046	681.5999756
1567.821906	683.5999756
1568.333711	681.4000244
1568.845462	685.2000122
1569.357158	682.2000122
1569.868801	681.0
1570.380389	682.7999878
1570.891922	679.4000244
1571.403402	681.4000244
1571.914827	682.5999756
1572.426198	680.4000244
1572.937515	683.0
1573.448777	684.2000122
1573.959985	681.5999756
1574.471139	685.2000122
1574.982239	680.4000244
1575.493285	681.2000122
1576.004276	677.0
1576.515213	681.5999756
1577.026096	684.4000244
1577.536924	679.2000122
1578.047698	678.7999878
1578.558419	680.5999756
1579.069084	679.4000244
1579.579696	680.0
1580.090254	680.7999878
1580.600757	679.5999756
1581.111206	682.0
1581.621601	683.0
1582.131941	682.0
1582.642228	682.0
1583.15246	681.0
1583.662638	680.7999878
1584.172762	679.7999878
1584.682832	681.0
1585.192847	681.4000244
1585.702809	684.4000244
1586.212716	682.7999878
1586.722569	679.2000122
1587.232368	681.2000122
1587.742113	682.4000244
1588.251803	683.4000244
1588.76144	678.5999756
1589.271022	682.4000244
1589.78055	679.2000122
1590.290024	680.4000244
1590.799444	682.5999756
1591.30881	684.4000244
1591.818121	681.0
1592.327379	682.5999756
