1042.414189	687.0
1042.980685	683.7999878
1043.547124	683.2000122
1044.113505	683.4000244
1044.679828	683.2000122
1045.246093	685.0
1045.8123	682.4000244
1046.378449	686.4000244
1046.94454	681.5999756
1047.510573	680.0
1048.076548	683.2000122
1048.642465	683.2000122
1049.208325	680.4000244
1049.774126	678.4000244
1050.339869	681.2000122
1050.905555	679.5999756
1051.471183	681.7999878
1052.036752	683.5999756
1052.602264	677.4000244
1053.167718	680.7999878
1053.733114	682.4000244
1054.298452	683.2000122
1054.863733	680.5999756
1055.428955	679.0
1055.994119	676.4000244
1056.559226	682.2000122
1057.124275	680.4000244
1057.689266	677.4000244
1058.254199	680.7999878
1058.819074	676.7999878
1059.383891	680.4000244
1059.94865	681.5999756
1060.513352	680.4000244
1061.077996	679.4000244
1061.642582	678.0
1062.20711	681.4000244
1062.77158	679.5999756
1063.335992	681.0
1063.900347	679.5999756
1064.464643	679.0
1065.028882	677.7999878
1065.593063	680.0
1066.157187	678.0
1066.721252	678.7999878
1067.28526	678.7999878
1067.84921	679.7999878
1068.413102	677.2000122
1068.976936	675.7999878
1069.540713	679.2000122
1070.104431	682.5999756
1070.668092	679.5999756
1071.231696	675.5999756
1071.795241	677.5999756
1072.358729	677.7999878
1072.922159	677.0
1073.485531	679.7999878
1074.048845	678.5999756
1074.612102	675.5999756
1075.175301	678.5999756
1075.738442	676.4000244
1076.301525	676.2000122
1076.864551	679.2000122
1077.427519	679.2000122
1077.990429	677.2000122
1078.553281	676.7999878
1079.116076	675.5999756
1079.678813	676.7999878
1080.241492	679.2000122
1080.804114	676.5999756
1081.366678	678.7999878
1081.929184	674.7999878
1082.491633	677.4000244
1083.054024	678.7999878
1083.616357	679.2000122
1084.178632	678.2000122
1084.74085	677.0
1085.30301	680.4000244
1085.865113	677.2000122
1086.427158	678.4000244
1086.989145	677.5999756
1087.551074	679.0
1088.112946	676.5999756
1088.67476	675.7999878
1089.236517	678.7999878
1089.798216	677.2000122
1090.359857	677.5999756
1090.92144	675.0
1091.482966	676.7999878
1092.044435	674.7999878
1092.605845	677.4000244
1093.167199	673.2000122
1093.728494	677.5999756
1094.289732	675.4000244
1094.850912	677.0
1095.412035	687.4000244
1095.9731	677.5999756
1096.534107	677.5999756
1097.095057	681.7999878
1097.65595	678.0
1098.216784	673.7999878
1098.777561	677.0
1099.338281	678.2000122
1099.898943	677.2000122
1100.459547	674.5999756
1101.020094	679.0
1101.580584	675.4000244
1102.141015	675.0
1102.701389	673.7999878
1103.261706	677.5999756
1103.821965	676.0
1104.382167	676.5999756
1104.942311	682.0
1105.502397	675.7999878
1106.062426	674.5999756
1106.622398	674.5999756
1107.182312	677.5999756
1107.742168	679.7999878
1108.301967	677.7999878
1108.861708	674.0
1109.421392	676.4000244
1109.981019	680.5999756
1110.540587	676.5999756
1111.100099	677.7999878
1111.659553	677.5999756
1112.218949	675.2000122
1112.778288	680.2000122
1113.33757	678.4000244
1113.896794	676.7999878
1114.45596	676.5999756
1115.015069	679.7999878
1115.574121	676.2000122
1116.133115	675.7999878
1116.692052	676.5999756
1117.250931	679.5999756
1117.809753	676.0
1118.368517	676.0
1118.927224	676.7999878
1119.485873	678.5999756
1120.044465	675.2000122
1120.603	675.5999756
1121.161477	677.0
1121.719897	676.5999756
1122.278259	676.7999878
1122.836564	679.2000122
1123.394812	677.4000244
1123.953002	676.2000122
1124.511135	676.4000244
1125.06921	675.5999756
1125.627228	676.4000244
1126.185189	676.4000244
1126.743092	675.7999878
1127.300938	677.2000122
1127.858726	677.7999878
1128.416457	677.5999756
1128.974131	680.4000244
1129.531748	681.2000122
1130.089307	680.2000122
1130.646808	681.0
1131.204252	680.0
1131.761639	678.5999756
1132.318969	676.5999756
1132.876241	674.7999878
1133.433456	679.7999878
1133.990614	676.0
1134.547714	675.7999878
1135.104757	673.5999756
1135.661743	676.2000122
1136.218671	674.7999878
1136.775542	676.0
1137.332356	675.5999756
1137.889112	676.4000244
1138.445811	675.4000244
1139.002453	677.5999756
1139.559037	679.0
1140.115565	674.7999878
1140.672035	675.7999878
1141.228447	675.7999878
1141.784803	675.4000244
1142.341101	675.2000122
1142.897342	676.2000122
1143.453525	677.7999878
1144.009651	677.2000122
1144.565721	674.7999878
1145.121732	679.2000122
1145.677687	676.4000244
1146.233584	676.4000244
1146.789424	678.5999756
1147.345207	674.0
1147.900933	676.5999756
1148.456601	675.2000122
1149.012212	674.4000244
1149.567766	673.0
1150.123263	677.4000244
1150.678702	679.4000244
1151.234085	676.4000244
1151.78941	673.5999756
1152.344678	675.7999878
1152.899888	671.7999878
1153.455042	674.0
1154.010138	675.4000244
1154.565177	672.7999878
1155.120159	674.7999878
1155.675084	677.2000122
1156.229951	678.4000244
1156.784762	674.5999756
1157.339515	677.2000122
1157.894211	675.0
1158.44885	674.2000122
1159.003432	679.0
1159.557956	675.0
1160.112424	671.4000244
1160.666834	674.7999878
1161.221187	677.2000122
1161.775483	676.2000122
1162.329722	676.0
1162.883904	672.2000122
1163.438029	675.5999756
1163.992096	676.2000122
1164.546107	673.0
1165.10006	676.4000244
1165.653956	673.7999878
1166.207795	676.2000122
1166.761577	675.4000244
1167.315302	676.2000122
1167.86897	677.0
1168.422581	676.2000122
1168.976134	675.4000244
1169.529631	675.2000122
1170.08307	675.7999878
1170.636453	675.5999756
1171.189778	675.5999756
1171.743046	676.2000122
1172.296257	675.5999756
1172.849412	675.0
1173.402509	673.0
1173.955549	674.7999878
1174.508532	676.5999756
1175.061458	677.2000122
1175.614327	675.0
1176.167138	676.4000244
1176.719893	678.0
1177.272591	676.2000122
1177.825232	674.5999756
1178.377816	674.5999756
1178.930342	676.5999756
1179.482812	675.7999878
1180.035225	676.2000122
1180.587581	674.2000122
1181.139879	676.0
1181.692121	677.7999878
1182.244306	676.0
1182.796434	677.0
1183.348504	672.5999756
1183.900518	673.5999756
1184.452475	675.4000244
1185.004375	678.5999756
1185.556218	678.2000122
1186.108004	673.4000244
1186.659733	676.4000244
1187.211405	675.4000244
1187.76302	674.2000122
1188.314578	676.0
1188.866079	675.5999756
1189.417523	676.0
1189.96891	677.4000244
1190.520241	674.5999756
1191.071514	675.5999756
1191.622731	675.4000244
1192.17389	673.7999878
1192.724993	673.4000244
1193.276039	690.2000122
1193.827027	674.4000244
1194.377959	672.7999878
1194.928834	675.2000122
1195.479653	676.7999878
1196.030414	675.2000122
1196.581118	674.2000122
1197.131766	674.0
1197.682356	674.5999756
1198.23289	678.0
1198.783367	674.4000244
1199.333786	672.5999756
1199.88415	677.7999878
1200.434456	674.7999878
1200.984705	673.7999878
1201.534898	674.2000122
1202.085033	677.0
1202.635112	671.2000122
1203.185134	675.5999756
1203.735099	672.5999756
1204.285007	676.2000122
1204.834859	676.2000122
1205.384653	674.0
1205.934391	675.2000122
1206.484072	675.5999756
1207.033696	675.7999878
1207.583263	672.5999756
1208.132774	677.2000122
1208.682228	674.5999756
1209.231624	672.5999756
1209.780965	676.7999878
1210.879474	675.4000244
1211.428644	675.2000122
1211.977757	677.2000122
1212.526813	675.2000122
1213.075813	675.0
1213.624755	676.2000122
1214.173641	674.4000244
1214.72247	675.2000122
1215.271242	674.4000244
1215.819958	672.7999878
1216.368617	676.4000244
1216.917219	675.7999878
1217.465764	679.4000244
1218.014253	677.7999878
1218.562685	677.4000244
1219.11106	677.0
1219.659378	673.5999756
1220.20764	678.2000122
1220.755845	676.7999878
1221.303993	673.4000244
1221.852085	677.7999878
1222.400119	676.7999878
1222.948097	674.4000244
1223.496019	675.0
1224.043883	677.0
1224.591691	674.2000122
1225.139443	675.4000244
1225.687137	676.2000122
1226.234775	679.2000122
1226.782357	676.2000122
1227.329881	677.2000122
1227.877349	674.5999756
1228.42476	676.5999756
1228.972115	675.0
1229.519413	679.0
1230.066654	678.0
1230.613839	677.0
1231.160967	673.5999756
1231.708038	676.7999878
1232.255053	677.2000122
1232.802011	673.2000122
1233.348912	677.0
1233.895757	675.5999756
1234.442545	678.0
1234.989277	674.4000244
1235.535951	675.5999756
1236.08257	676.2000122
1236.629131	677.5999756
1237.175636	675.7999878
1237.722085	673.4000244
1238.268477	675.5999756
1238.814812	677.0
1239.361091	676.2000122
1239.907313	675.4000244
1240.453478	675.7999878
1240.999587	675.0
1241.54564	676.5999756
1242.091636	677.5999756
1242.637575	674.2000122
1243.183457	674.5999756
1243.729284	677.7999878
1244.275053	677.7999878
1244.820766	676.2000122
1245.366423	674.2000122
1245.912022	676.7999878
1246.457566	675.7999878
1247.003053	676.0
1247.548483	678.4000244
1248.093857	679.0
1248.639174	677.2000122
1249.184435	675.4000244
1249.729639	677.5999756
1250.274787	677.0
1250.819878	673.7999878
1251.364912	675.2000122
1251.909891	677.7999878
1252.454812	679.7999878
1252.999677	676.4000244
1253.544486	678.5999756
1254.089238	676.4000244
1254.633934	674.2000122
1255.178573	676.7999878
1255.723156	676.4000244
1256.267682	677.4000244
1256.812152	675.5999756
1257.356565	677.2000122
1257.900922	675.7999878
1258.445223	676.2000122
1258.989467	679.7999878
1259.533654	680.4000244
1260.077785	684.7999878
1260.62186	678.5999756
1261.165878	679.4000244
1261.70984	677.0
1262.253745	678.7999878
1262.797594	680.7999878
1263.341386	682.5999756
1263.885123	682.2000122
1264.428802	693.2000122
1264.972425	697.4000244
1265.515992	696.2000122
1266.059503	686.5999756
1266.602957	683.2000122
1267.146354	679.4000244
1267.689696	679.7999878
1268.23298	678.7999878
1268.776209	678.7999878
1269.319381	675.0
1269.862497	677.2000122
1270.405556	679.2000122
1270.948559	676.2000122
1271.491506	680.2000122
1272.034396	676.4000244
1272.57723	674.4000244
1273.120007	676.4000244
1273.662728	679.5999756
1274.205393	676.7999878
1274.748002	679.4000244
1275.290554	681.0
1275.83305	677.5999756
1276.375489	674.4000244
1276.917872	675.4000244
1277.460199	677.4000244
1278.00247	677.0
1278.544684	678.7999878
1279.086842	678.2000122
1279.628943	680.4000244
1280.170989	677.7999878
1280.712978	681.5999756
1281.25491	679.0
1281.796787	681.4000244
1282.338607	686.2000122
1282.880371	695.0
1283.422078	713.5999756
1283.963729	745.4000244
1284.505324	845.4000244
1285.046863	1001.599976
1285.588345	961.7999878
1286.129772	793.4000244
1286.671142	714.5999756
1287.212455	693.5999756
1287.753713	686.5999756
1288.294914	685.4000244
1288.836059	681.4000244
1289.377147	676.0
1289.91818	680.2000122
1290.459156	681.2000122
1291.000076	677.4000244
1291.54094	681.0
1292.081747	677.0
1292.622499	676.7999878
1293.163194	677.5999756
1293.703833	677.5999756
1294.244415	678.5999756
1294.784942	675.7999878
1295.325412	676.5999756
1295.865826	677.4000244
1296.406184	678.5999756
1296.946486	676.4000244
1297.486731	675.0
1298.026921	678.7999878
1298.567054	678.4000244
1299.107131	679.5999756
1299.647152	676.2000122
1300.187116	678.0
1300.727025	675.0
1301.266877	676.2000122
1301.806673	677.5999756
1302.346413	678.5999756
1302.886097	677.5999756
1303.425725	679.4000244
1303.965297	677.4000244
1304.504812	680.0
1305.044272	676.0
1305.583675	677.7999878
1306.123022	677.7999878
1306.662313	673.5999756
1307.201548	674.4000244
1307.740727	676.5999756
1308.279849	675.0
1308.818916	674.7999878
1309.357926	675.4000244
1309.896881	677.4000244
1310.435779	675.2000122
1310.974621	677.2000122
1311.513407	674.2000122
1312.052137	678.0
1312.590811	678.0
1313.129429	678.2000122
1313.667991	678.4000244
1314.206497	681.0
1314.744946	676.0
1315.28334	676.5999756
1315.821678	676.0
1316.359959	677.2000122
1316.898184	675.2000122
1317.436354	677.5999756
1317.974467	675.0
1318.512525	672.4000244
1319.050526	673.7999878
1319.588471	675.7999878
1320.12636	676.5999756
1320.664194	675.0
1321.201971	674.7999878
1321.739692	675.7999878
1322.277357	675.2000122
1322.814967	674.5999756
1323.35252	675.4000244
1323.890017	679.0
1324.427458	674.7999878
1324.964843	674.2000122
1325.502173	676.0
1326.039446	675.0
1326.576663	674.4000244
1327.113824	677.2000122
1327.65093	674.4000244
1328.187979	679.4000244
1328.724972	674.2000122
1329.26191	675.4000244
1329.798791	673.7999878
1330.335617	678.5999756
1330.872386	675.2000122
1331.4091	675.2000122
1331.945758	674.0
1332.48236	675.7999878
1333.018905	674.0
1333.555395	672.4000244
1334.091829	676.4000244
1334.628207	674.7999878
1335.164529	676.0
1335.700796	677.5999756
1336.237006	674.4000244
1336.77316	678.7999878
1337.309259	673.4000244
1337.845301	676.5999756
1338.381288	674.2000122
1338.917219	676.4000244
1339.453094	676.7999878
1339.988913	676.0
1340.524676	673.7999878
1341.060383	674.7999878
1341.596034	674.4000244
1342.13163	676.2000122
1342.66717	675.7999878
1343.202653	673.4000244
1343.738081	673.5999756
1344.273453	674.0
1344.80877	672.2000122
1345.34403	672.4000244
1345.879235	674.2000122
1346.414383	674.2000122
1346.949476	678.0
1347.484513	675.2000122
1348.019494	676.2000122
1348.55442	672.4000244
1349.089289	677.5999756
1349.624103	675.5999756
1350.158861	676.7999878
1350.693563	674.7999878
1351.228209	675.7999878
1351.7628	675.0
1352.297334	673.7999878
1352.831813	676.7999878
1353.366236	673.5999756
1353.900604	676.0
1354.434915	676.4000244
1354.969171	676.7999878
1355.503371	676.4000244
1356.037515	676.5999756
1356.571604	674.4000244
1357.105636	679.0
1357.639613	676.2000122
1358.173535	676.2000122
1358.7074	676.2000122
1359.24121	676.0
1359.774964	677.4000244
1360.308662	676.2000122
1360.842304	674.7999878
1361.375891	674.7999878
1361.909422	677.0
1362.442897	678.5999756
1362.976317	676.5999756
1363.50968	676.4000244
1364.042989	677.5999756
1364.576241	677.2000122
1365.109438	676.5999756
1365.642579	677.7999878
1366.175664	678.7999878
1366.708693	675.7999878
1367.241667	675.7999878
1367.774585	677.5999756
1368.307448	678.0
1368.840255	678.2000122
1369.373006	674.7999878
1369.905701	682.4000244
1370.438341	690.5999756
1370.970925	682.0
1371.503454	675.0
1372.035926	675.0
1372.568344	675.7999878
1373.100705	674.4000244
1373.633011	675.5999756
1374.165261	675.0
1374.697456	676.4000244
1375.229595	679.5999756
1375.761678	675.7999878
1376.293705	680.0
1376.825677	674.4000244
1377.357594	676.2000122
1377.889455	674.2000122
1378.42126	676.4000244
1378.953009	680.5999756
1379.484703	677.4000244
1380.016342	676.5999756
1380.547924	678.5999756
1381.079452	674.0
1381.610923	678.7999878
1382.142339	681.7999878
1382.673699	676.4000244
1383.205004	674.5999756
1383.736253	679.0
1384.267447	680.4000244
1384.798585	684.2000122
1385.329668	687.5999756
1385.860695	692.7999878
1386.391666	696.5999756
1386.922582	713.5999756
1387.453442	763.0
1387.984247	921.4000244
1388.514996	1273.599976
1389.04569	1171.0
1389.576328	829.4000244
1390.10691	720.7999878
1390.637437	698.0
1391.167909	684.2000122
1391.698325	683.7999878
1392.228685	684.4000244
1392.75899	680.5999756
1393.28924	679.4000244
1393.819434	683.2000122
1394.349572	676.0
1394.879655	680.0
1395.409683	679.2000122
1395.939655	676.4000244
1396.469571	678.0
1396.999432	679.4000244
1397.529237	676.4000244
1398.058987	680.2000122
1398.588682	678.0
1399.118321	678.2000122
1399.647905	676.5999756
1400.177433	678.0
1400.706906	676.2000122
1401.236323	677.7999878
1401.765685	675.5999756
1402.294991	677.2000122
1402.824242	679.4000244
1403.353437	678.2000122
1403.882577	675.0
1404.411662	676.4000244
1404.940691	680.0
1405.469665	680.0
1405.998583	676.5999756
1406.527446	676.2000122
1407.056253	681.2000122
1407.585005	677.7999878
1408.113702	684.0
1408.642343	683.4000244
1409.170929	694.7999878
1409.69946	712.2000122
1410.227935	717.2000122
1410.756354	700.2000122
1411.284719	689.5999756
1411.813028	683.4000244
1412.341281	677.2000122
1412.869479	680.7999878
1413.397622	677.7999878
1413.92571	674.4000244
1414.453742	676.2000122
1414.981718	677.2000122
1415.50964	685.5999756
1416.037506	675.2000122
1416.565316	673.7999878
1417.093072	675.5999756
1417.620772	678.4000244
1418.148416	673.0
1418.676005	677.0
1419.203539	677.2000122
1419.731018	675.5999756
1420.258441	678.0
1420.785809	677.0
1421.313122	678.0
1421.840379	676.2000122
1422.367582	677.0
1422.894728	674.7999878
1423.42182	675.4000244
1423.948856	677.2000122
1424.475837	676.2000122
1425.002762	678.4000244
1425.529633	676.4000244
1426.056448	679.2000122
1426.583207	673.0
1427.109912	673.2000122
1427.636561	676.4000244
1428.163155	675.7999878
1428.689694	675.2000122
1429.216177	673.4000244
1429.742605	674.5999756
1430.268978	677.5999756
1430.795296	674.5999756
1431.321558	674.4000244
1431.847765	677.4000244
1432.373917	675.5999756
1432.900014	675.7999878
1433.426056	675.7999878
1433.952042	677.4000244
1434.477973	675.2000122
1435.003849	674.2000122
1435.529669	675.5999756
1436.055435	674.7999878
1436.581145	674.7999878
1437.1068	675.4000244
1437.632399	674.7999878
1438.157944	677.2000122
1438.683433	678.0
1439.208868	674.0
1439.734247	672.0
1440.25957	675.7999878
1440.784839	672.4000244
1441.310053	676.7999878
1441.835211	673.0
1442.360314	674.5999756
1442.885362	673.4000244
1443.410355	673.2000122
1443.935292	673.7999878
1444.460175	673.7999878
1444.985002	672.0
1445.509774	677.0
1446.034491	671.7999878
1446.559153	677.5999756
1447.08376	672.4000244
1447.608312	675.5999756
1448.132808	676.7999878
1448.65725	674.5999756
1449.181636	677.2000122
1449.705967	675.0
1450.230243	676.0
1450.754464	674.2000122
1451.27863	677.4000244
1451.802741	674.4000244
1452.326797	673.2000122
1452.850797	674.5999756
1453.374743	674.4000244
1453.898633	677.0
1454.422468	672.4000244
1454.946249	672.0
1455.469974	671.7999878
1455.993644	674.2000122
1456.517259	673.5999756
1457.040819	674.4000244
1457.564324	673.7999878
1458.087773	675.4000244
1458.611168	672.2000122
1459.134508	671.4000244
1459.657793	671.4000244
1460.181022	673.0
1460.704197	672.4000244
1461.227316	674.0
1461.750381	674.2000122
1462.27339	675.0
1462.796345	682.0
1463.319244	683.7999878
1463.842089	679.7999878
1464.364878	672.5999756
1464.887613	678.0
1465.410292	677.2000122
1465.932916	673.7999878
1466.455486	672.5999756
1466.978	673.2000122
1467.50046	675.2000122
1468.022864	674.4000244
1468.545214	674.0
1469.067508	674.5999756
1469.589748	675.7999878
1470.111932	674.0
1470.634062	673.2000122
1471.156136	673.5999756
1471.678156	672.0
1472.20012	675.0
1472.72203	675.2000122
1473.243885	675.7999878
1473.765685	673.0
1474.28743	676.2000122
1474.80912	672.7999878
1475.330755	672.5999756
1475.852335	676.0
1476.37386	674.0
1476.89533	674.0
1477.416745	671.7999878
1477.938106	672.0
1478.459411	674.7999878
1478.980662	674.4000244
1479.501857	674.4000244
1480.022998	671.4000244
1480.544084	669.4000244
1481.065115	672.2000122
1481.586091	674.4000244
1482.107012	674.4000244
1482.627878	674.2000122
1483.14869	672.4000244
1483.669446	670.5999756
1484.190148	674.0
1484.710794	671.0
1485.231386	674.7999878
1485.751923	676.7999878
1486.272406	674.7999878
1486.792833	671.7999878
1487.313205	670.4000244
1487.833523	674.0
1488.353786	670.7999878
1488.873994	671.4000244
1489.394147	673.7999878
1489.914245	672.4000244
1490.434288	673.7999878
1490.954277	670.0
1491.474211	673.4000244
1491.99409	673.2000122
1492.513914	671.4000244
1493.033683	673.4000244
1493.553398	672.0
1494.073057	673.0
1494.592662	675.7999878
1495.112212	673.2000122
1495.631708	675.7999878
1496.151148	671.5999756
1496.670534	672.7999878
1497.189865	675.4000244
1497.709141	671.2000122
1498.228362	671.4000244
1498.747529	668.5999756
1499.266641	670.2000122
1499.785698	677.7999878
1500.3047	672.7999878
1500.823648	675.4000244
1501.34254	670.2000122
1501.861379	673.4000244
1502.380162	671.4000244
1502.89889	672.5999756
1503.417564	675.0
1503.936183	672.0
1504.454748	673.5999756
1504.973257	674.5999756
1505.491712	671.5999756
1506.010112	672.7999878
1506.528458	675.4000244
1507.046748	674.4000244
1507.564984	670.5999756
1508.083166	671.5999756
1508.601292	673.5999756
1509.119364	670.5999756
1509.637381	672.4000244
1510.155344	671.2000122
1510.673252	678.7999878
1511.191105	672.2000122
1511.708903	672.5999756
1512.226647	672.7999878
1512.744336	672.2000122
1513.261971	671.7999878
1513.77955	673.0
1514.297076	673.0
1514.814546	671.7999878
1515.331962	671.7999878
1515.849323	672.7999878
1516.366629	674.4000244
1516.883881	672.5999756
1517.401078	672.5999756
1517.918221	672.5999756
1518.435309	670.4000244
1518.952342	669.7999878
1519.469321	672.2000122
1519.986245	672.5999756
1520.503114	671.2000122
1521.019929	674.7999878
1521.536689	669.0
1522.053395	670.2000122
1522.570046	672.2000122
1523.086642	674.4000244
1523.603184	675.0
1524.119671	673.5999756
1524.636103	672.7999878
1525.152481	675.2000122
1525.668805	670.7999878
1526.185073	683.4000244
1526.701288	677.4000244
1527.217447	673.7999878
1527.733552	672.7999878
1528.249603	673.0
1528.765599	670.4000244
1529.28154	675.2000122
1529.797427	673.4000244
1530.313259	670.7999878
1530.829037	672.7999878
1531.34476	673.0
1531.860429	673.0
1532.376043	671.0
1532.891602	670.0
1533.407107	670.0
1533.922558	671.5999756
1534.437954	671.5999756
1534.953295	672.7999878
1535.468582	671.7999878
1535.983815	671.2000122
1536.498993	672.7999878
1537.014116	673.2000122
1537.529185	671.5999756
1538.044199	674.2000122
1538.559159	670.7999878
1539.074064	668.7999878
1539.588915	673.2000122
1540.103712	671.4000244
1540.618454	673.5999756
1541.133141	675.4000244
1541.647774	672.4000244
1542.162353	671.2000122
1542.676877	674.0
1543.191346	671.7999878
1543.705761	673.2000122
1544.220122	670.7999878
1544.734428	674.2000122
1545.24868	672.2000122
1545.762877	676.0
1546.27702	674.2000122
1546.791109	672.0
1547.305143	670.4000244
1547.819122	672.2000122
1548.333047	671.2000122
1548.846918	673.2000122
1549.360734	671.7999878
1549.874496	674.0
1550.388204	673.5999756
1550.901857	670.7999878
1551.415455	675.7999878
1551.929	673.2000122
1552.442489	672.4000244
1552.955925	670.2000122
1553.469306	669.0
1553.982632	673.0
1554.495905	672.2000122
1555.009123	672.7999878
1555.522286	673.7999878
1556.035395	674.4000244
1556.54845	672.0
1557.06145	672.7999878
1557.574396	674.4000244
1558.087288	673.5999756
1558.600125	669.0
1559.112908	670.0
1559.625637	671.5999756
1560.138311	672.7999878
1560.650931	673.5999756
1561.163497	671.5999756
1561.676008	670.7999878
1562.188465	673.0
1562.700867	672.5999756
1563.213216	674.2000122
1563.725509	673.0
1564.237749	669.4000244
1564.749934	673.7999878
1565.262065	672.7999878
1565.774142	675.0
1566.286164	674.4000244
1566.798132	672.2000122
1567.310046	671.7999878
1567.821906	671.5999756
1568.333711	674.5999756
1568.845462	671.0
1569.357158	673.2000122
1569.868801	673.0
1570.380389	672.4000244
1570.891922	673.7999878
1571.403402	670.0
1571.914827	670.4000244
1572.426198	673.0
1572.937515	669.7999878
1573.448777	671.5999756
1573.959985	673.7999878
1574.471139	674.4000244
1574.982239	670.2000122
1575.493285	673.2000122
1576.004276	670.4000244
1576.515213	672.2000122
1577.026096	670.7999878
1577.536924	673.4000244
1578.047698	673.0
1578.558419	674.5999756
1579.069084	669.5999756
1579.579696	674.4000244
1580.090254	674.0
1580.600757	675.7999878
1581.111206	674.4000244
1581.621601	672.2000122
1582.131941	675.0
1582.642228	674.5999756
1583.15246	671.0
1583.662638	671.5999756
1584.172762	669.0
1584.682832	674.0
1585.192847	670.2000122
1585.702809	672.4000244
1586.212716	671.5999756
1586.722569	671.5999756
1587.232368	673.2000122
1587.742113	672.2000122
1588.251803	673.5999756
1588.76144	669.4000244
1589.271022	670.2000122
1589.78055	671.0
1590.290024	671.5999756
1590.799444	674.5999756
1591.30881	671.5999756
1591.818121	671.7999878
1592.327379	674.2000122
