1042.414189	678.0
1042.980685	677.2000122
1043.547124	676.4000244
1044.113505	678.4000244
1044.679828	677.2000122
1045.246093	676.0
1045.8123	673.0
1046.378449	675.0
1046.94454	678.7999878
1047.510573	673.0
1048.076548	675.0
1048.642465	673.4000244
1049.208325	676.0
1049.774126	675.0
1050.339869	672.5999756
1050.905555	671.0
1051.471183	674.4000244
1052.036752	670.7999878
1052.602264	671.4000244
1053.167718	671.4000244
1053.733114	672.2000122
1054.298452	672.2000122
1054.863733	671.2000122
1055.428955	671.2000122
1055.994119	669.0
1056.559226	672.0
1057.124275	672.4000244
1057.689266	671.0
1058.254199	670.0
1058.819074	671.7999878
1059.383891	671.0
1059.94865	672.2000122
1060.513352	669.5999756
1061.077996	667.2000122
1061.642582	672.7999878
1062.20711	669.7999878
1062.77158	673.5999756
1063.335992	667.5999756
1063.900347	669.4000244
1064.464643	668.5999756
1065.028882	668.2000122
1065.593063	668.7999878
1066.157187	671.4000244
1066.721252	668.5999756
1067.28526	669.0
1067.84921	670.0
1068.413102	669.7999878
1068.976936	671.0
1069.540713	667.5999756
1070.104431	679.2000122
1070.668092	668.2000122
1071.231696	667.5999756
1071.795241	671.4000244
1072.358729	666.7999878
1072.922159	668.5999756
1073.485531	668.7999878
1074.048845	668.5999756
1074.612102	668.2000122
1075.175301	672.2000122
1075.738442	668.4000244
1076.301525	671.4000244
1076.864551	667.5999756
1077.427519	667.5999756
1077.990429	667.7999878
1078.553281	669.5999756
1079.116076	666.2000122
1079.678813	668.5999756
1080.241492	670.2000122
1080.804114	668.7999878
1081.366678	672.7999878
1081.929184	668.2000122
1082.491633	670.7999878
1083.054024	666.2000122
1083.616357	668.4000244
1084.178632	669.2000122
1084.74085	669.7999878
1085.30301	669.5999756
1085.865113	670.2000122
1086.427158	667.5999756
1086.989145	669.0
1087.551074	669.5999756
1088.112946	670.4000244
1088.67476	669.2000122
1089.236517	669.7999878
1089.798216	668.5999756
1090.359857	669.0
1090.92144	671.4000244
1091.482966	669.7999878
1092.044435	668.2000122
1092.605845	671.2000122
1093.167199	667.7999878
1093.728494	671.0
1094.289732	669.4000244
1094.850912	671.4000244
1095.412035	677.0
1095.9731	669.0
1096.534107	669.2000122
1097.095057	674.7999878
1097.65595	669.5999756
1098.216784	671.5999756
1098.777561	668.4000244
1099.338281	669.4000244
1099.898943	669.4000244
1100.459547	669.7999878
1101.020094	669.2000122
1101.580584	666.7999878
1102.141015	670.2000122
1102.701389	670.0
1103.261706	671.2000122
1103.821965	667.7999878
1104.382167	668.7999878
1104.942311	670.0
1105.502397	669.0
1106.062426	668.7999878
1106.622398	671.2000122
1107.182312	671.7999878
1107.742168	670.4000244
1108.301967	670.7999878
1108.861708	670.5999756
1109.421392	671.7999878
1109.981019	670.2000122
1110.540587	671.5999756
1111.100099	673.2000122
1111.659553	670.7999878
1112.218949	673.2000122
1112.778288	674.7999878
1113.33757	670.7999878
1113.896794	672.7999878
1114.45596	672.0
1115.015069	671.5999756
1115.574121	672.4000244
1116.133115	673.4000244
1116.692052	669.7999878
1117.250931	670.5999756
1117.809753	672.4000244
1118.368517	667.5999756
1118.927224	669.2000122
1119.485873	669.7999878
1120.044465	673.2000122
1120.603	669.2000122
1121.161477	669.0
1121.719897	667.7999878
1122.278259	669.0
1122.836564	669.5999756
1123.394812	667.2000122
1123.953002	670.2000122
1124.511135	669.0
1125.06921	670.7999878
1125.627228	670.2000122
1126.185189	671.4000244
1126.743092	671.2000122
1127.300938	668.0
1127.858726	671.0
1128.416457	672.0
1128.974131	668.4000244
1129.531748	671.5999756
1130.089307	671.5999756
1130.646808	673.0
1131.204252	673.0
1131.761639	669.7999878
1132.318969	669.4000244
1132.876241	667.4000244
1133.433456	667.5999756
1133.990614	668.7999878
1134.547714	669.7999878
1135.104757	670.2000122
1135.661743	668.2000122
1136.218671	667.7999878
1136.775542	668.5999756
1137.332356	669.7999878
1137.889112	666.7999878
1138.445811	672.0
1139.002453	669.2000122
1139.559037	669.7999878
1140.115565	669.4000244
1140.672035	668.4000244
1141.228447	668.7999878
1141.784803	667.4000244
1142.341101	671.2000122
1142.897342	667.4000244
1143.453525	666.5999756
1144.009651	667.4000244
1144.565721	667.7999878
1145.121732	670.0
1145.677687	669.5999756
1146.233584	668.5999756
1146.789424	666.2000122
1147.345207	668.0
1147.900933	670.7999878
1148.456601	667.5999756
1149.012212	668.5999756
1149.567766	667.4000244
1150.123263	669.0
1150.678702	671.7999878
1151.234085	667.4000244
1151.78941	668.7999878
1152.344678	668.0
1152.899888	668.7999878
1153.455042	671.0
1154.010138	668.2000122
1154.565177	667.2000122
1155.120159	669.2000122
1155.675084	666.7999878
1156.229951	671.0
1156.784762	667.0
1157.339515	673.7999878
1157.894211	669.2000122
1158.44885	667.4000244
1159.003432	670.0
1159.557956	666.5999756
1160.112424	669.5999756
1160.666834	670.4000244
1161.221187	669.0
1161.775483	667.0
1162.329722	672.2000122
1162.883904	667.7999878
1163.438029	668.2000122
1163.992096	667.0
1164.546107	666.4000244
1165.10006	666.5999756
1165.653956	668.2000122
1166.207795	669.2000122
1166.761577	667.2000122
1167.315302	669.2000122
1167.86897	669.2000122
1168.422581	669.2000122
1168.976134	670.5999756
1169.529631	669.2000122
1170.08307	669.7999878
1170.636453	670.0
1171.189778	671.5999756
1171.743046	669.0
1172.296257	669.4000244
1172.849412	668.7999878
1173.402509	669.0
1173.955549	670.0
1174.508532	669.0
1175.061458	668.7999878
1175.614327	669.0
1176.167138	668.4000244
1176.719893	668.7999878
1177.272591	670.2000122
1177.825232	668.0
1178.377816	668.0
1178.930342	669.4000244
1179.482812	669.5999756
1180.035225	669.2000122
1180.587581	668.2000122
1181.139879	672.7999878
1181.692121	671.0
1182.244306	671.7999878
1182.796434	669.2000122
1183.348504	670.7999878
1183.900518	670.2000122
1184.452475	673.7999878
1185.004375	673.0
1185.556218	670.4000244
1186.108004	671.0
1186.659733	672.7999878
1187.211405	666.7999878
1187.76302	671.7999878
1188.314578	671.0
1188.866079	667.4000244
1189.417523	670.4000244
1189.96891	671.2000122
1190.520241	667.2000122
1191.071514	668.5999756
1191.622731	670.2000122
1192.17389	670.7999878
1192.724993	669.7999878
1193.276039	686.4000244
1193.827027	667.7999878
1194.377959	671.2000122
1194.928834	667.0
1195.479653	672.2000122
1196.030414	668.0
1196.581118	668.4000244
1197.131766	668.5999756
1197.682356	668.4000244
1198.23289	670.0
1198.783367	668.5999756
1199.333786	667.2000122
1199.88415	667.0
1200.434456	670.2000122
1200.984705	669.7999878
1201.534898	670.7999878
1202.085033	668.5999756
1202.635112	666.5999756
1203.185134	668.2000122
1203.735099	669.0
1204.285007	668.7999878
1204.834859	667.7999878
1205.384653	667.0
1205.934391	670.5999756
1206.484072	670.7999878
1207.033696	668.5999756
1207.583263	671.4000244
1208.132774	667.7999878
1208.682228	668.5999756
1209.231624	669.5999756
1209.780965	669.5999756
1210.330248	666.7999878
1210.879474	669.4000244
1211.428644	672.0
1211.977757	669.4000244
1212.526813	671.2000122
1213.075813	672.4000244
1213.624755	666.5999756
1214.173641	669.7999878
1214.72247	668.4000244
1215.271242	670.5999756
1215.819958	670.0
1216.368617	672.7999878
1216.917219	669.0
1217.465764	670.4000244
1218.014253	669.2000122
1218.562685	669.7999878
1219.11106	670.0
1219.659378	671.0
1220.20764	670.2000122
1220.755845	672.2000122
1221.303993	670.2000122
1221.852085	672.0
1222.400119	669.7999878
1222.948097	671.5999756
1223.496019	669.7999878
1224.043883	671.0
1224.591691	672.7999878
1225.139443	670.0
1225.687137	670.4000244
1226.234775	669.5999756
1226.782357	671.0
1227.329881	672.2000122
1227.877349	673.5999756
1228.42476	668.5999756
1228.972115	669.5999756
1229.519413	671.7999878
1230.066654	669.7999878
1230.613839	670.7999878
1231.160967	671.5999756
1231.708038	673.0
1232.255053	669.4000244
1232.802011	671.5999756
1233.348912	671.7999878
1233.895757	672.7999878
1234.442545	671.2000122
1234.989277	672.2000122
1235.535951	671.0
1236.08257	672.2000122
1236.629131	670.7999878
1237.175636	672.0
1237.722085	671.0
1238.268477	672.2000122
1238.814812	671.2000122
1239.361091	670.2000122
1239.907313	671.0
1240.453478	672.2000122
1240.999587	669.7999878
1241.54564	671.2000122
1242.091636	670.5999756
1242.637575	671.2000122
1243.183457	671.7999878
1243.729284	671.4000244
1244.275053	668.2000122
1244.820766	673.7999878
1245.366423	670.7999878
1245.912022	668.4000244
1246.457566	670.2000122
1247.003053	674.4000244
1247.548483	673.4000244
1248.093857	672.0
1248.639174	672.5999756
1249.184435	673.2000122
1249.729639	670.0
1250.274787	675.5999756
1250.819878	673.5999756
1251.364912	671.0
1251.909891	671.4000244
1252.454812	673.5999756
1252.999677	672.2000122
1253.544486	670.2000122
1254.089238	674.0
1254.633934	672.0
1255.178573	671.7999878
1255.723156	672.4000244
1256.267682	673.2000122
1256.812152	671.7999878
1257.356565	671.5999756
1257.900922	672.5999756
1258.445223	674.5999756
1258.989467	678.5999756
1259.533654	673.7999878
1260.077785	682.5999756
1260.62186	676.4000244
1261.165878	676.5999756
1261.70984	678.5999756
1262.253745	683.0
1262.797594	685.5999756
1263.341386	691.7999878
1263.885123	693.2000122
1264.428802	694.7999878
1264.972425	688.7999878
1265.515992	683.5999756
1266.059503	679.4000244
1266.602957	676.7999878
1267.146354	679.7999878
1267.689696	675.4000244
1268.23298	675.2000122
1268.776209	674.5999756
1269.319381	671.5999756
1269.862497	673.7999878
1270.405556	673.7999878
1270.948559	677.4000244
1271.491506	673.5999756
1272.034396	672.5999756
1272.57723	675.5999756
1273.120007	674.0
1273.662728	671.7999878
1274.205393	674.4000244
1274.748002	673.2000122
1275.290554	674.4000244
1275.83305	674.4000244
1276.375489	676.2000122
1276.917872	677.2000122
1277.460199	676.4000244
1278.00247	673.7999878
1278.544684	680.2000122
1279.086842	680.5999756
1279.628943	681.0
1280.170989	683.4000244
1280.712978	689.5999756
1281.25491	696.5999756
1281.796787	718.7999878
1282.338607	753.7999878
1282.880371	830.7999878
1283.422078	930.2000122
1283.963729	1041.199951
1284.505324	1012.799988
1285.046863	895.7999878
1285.588345	781.5999756
1286.129772	722.2000122
1286.671142	704.4000244
1287.212455	691.4000244
1287.753713	685.7999878
1288.294914	678.7999878
1288.836059	680.4000244
1289.377147	677.7999878
1289.91818	678.4000244
1290.459156	675.4000244
1291.000076	674.4000244
1291.54094	675.5999756
1292.081747	673.4000244
1292.622499	672.4000244
1293.163194	673.2000122
1293.703833	676.2000122
1294.244415	674.5999756
1294.784942	675.0
1295.325412	674.7999878
1295.865826	676.7999878
1296.406184	674.4000244
1296.946486	672.7999878
1297.486731	673.4000244
1298.026921	673.2000122
1298.567054	672.0
1299.107131	676.2000122
1299.647152	668.7999878
1300.187116	672.5999756
1300.727025	674.2000122
1301.266877	671.7999878
1301.806673	673.0
1302.346413	672.4000244
1302.886097	673.7999878
1303.425725	670.5999756
1303.965297	670.2000122
1304.504812	671.0
1305.044272	671.5999756
1305.583675	672.7999878
1306.123022	674.0
1306.662313	670.2000122
1307.201548	671.2000122
1307.740727	675.4000244
1308.279849	671.0
1308.818916	670.5999756
1309.357926	670.0
1309.896881	670.7999878
1310.435779	673.0
1310.974621	668.4000244
1311.513407	674.7999878
1312.052137	669.2000122
1312.590811	670.5999756
1313.129429	668.4000244
1313.667991	674.0
1314.206497	669.0
1314.744946	671.4000244
1315.28334	672.7999878
1315.821678	671.2000122
1316.359959	674.4000244
1316.898184	670.5999756
1317.436354	671.4000244
1317.974467	668.7999878
1318.512525	670.7999878
1319.050526	670.4000244
1319.588471	669.7999878
1320.12636	672.7999878
1320.664194	669.2000122
1321.201971	672.5999756
1321.739692	671.5999756
1322.277357	673.0
1322.814967	674.7999878
1323.35252	667.2000122
1323.890017	673.2000122
1324.427458	669.0
1324.964843	672.4000244
1325.502173	668.7999878
1326.039446	670.0
1326.576663	670.7999878
1327.113824	669.7999878
1327.65093	669.5999756
1328.187979	671.5999756
1328.724972	669.5999756
1329.26191	673.0
1329.798791	669.4000244
1330.335617	670.7999878
1330.872386	671.2000122
1331.4091	671.7999878
1331.945758	672.4000244
1332.48236	670.2000122
1333.018905	672.2000122
1333.555395	672.0
1334.091829	671.7999878
1334.628207	668.4000244
1335.164529	669.5999756
1335.700796	670.0
1336.237006	668.7999878
1336.77316	673.7999878
1337.309259	672.0
1337.845301	669.5999756
1338.381288	675.4000244
1338.917219	668.5999756
1339.453094	671.2000122
1339.988913	670.7999878
1340.524676	669.7999878
1341.060383	671.5999756
1341.596034	668.7999878
1342.13163	670.7999878
1342.66717	667.0
1343.202653	672.4000244
1343.738081	672.4000244
1344.273453	668.2000122
1344.80877	668.5999756
1345.34403	672.4000244
1345.879235	671.7999878
1346.414383	671.7999878
1346.949476	670.4000244
1347.484513	668.5999756
1348.019494	672.5999756
1348.55442	668.5999756
1349.089289	670.7999878
1349.624103	668.5999756
1350.158861	671.4000244
1350.693563	670.7999878
1351.228209	669.2000122
1351.7628	669.7999878
1352.297334	669.2000122
1352.831813	671.0
1353.366236	669.7999878
1353.900604	665.7999878
1354.434915	669.7999878
1354.969171	672.2000122
1355.503371	671.5999756
1356.037515	668.5999756
1356.571604	669.7999878
1357.105636	667.4000244
1357.639613	671.0
1358.173535	671.2000122
1358.7074	668.5999756
1359.24121	673.4000244
1359.774964	669.5999756
1360.308662	670.2000122
1360.842304	671.5999756
1361.375891	670.2000122
1361.909422	672.4000244
1362.442897	669.2000122
1362.976317	674.0
1363.50968	671.5999756
1364.042989	674.4000244
1364.576241	673.7999878
1365.109438	673.2000122
1365.642579	675.2000122
1366.175664	675.2000122
1366.708693	669.2000122
1367.241667	673.4000244
1367.774585	672.4000244
1368.307448	672.4000244
1368.840255	673.2000122
1369.373006	681.4000244
1369.905701	688.0
1370.438341	684.4000244
1370.970925	674.2000122
1371.503454	672.5999756
1372.035926	673.7999878
1372.568344	674.4000244
1373.100705	671.5999756
1373.633011	670.4000244
1374.165261	671.5999756
1374.697456	672.0
1375.229595	673.2000122
1375.761678	672.0
1376.293705	674.7999878
1376.825677	677.0
1377.357594	675.0
1377.889455	672.2000122
1378.42126	674.4000244
1378.953009	674.4000244
1379.484703	677.2000122
1380.016342	674.2000122
1380.547924	676.0
1381.079452	679.4000244
1381.610923	677.7999878
1382.142339	679.0
1382.673699	681.2000122
1383.205004	681.5999756
1383.736253	686.4000244
1384.267447	693.2000122
1384.798585	697.0
1385.329668	705.2000122
1385.860695	730.4000244
1386.391666	771.5999756
1386.922582	900.7999878
1387.453442	1162.199951
1387.984247	1473.400024
1388.514996	1316.400024
1389.04569	953.5999756
1389.576328	786.7999878
1390.10691	727.7999878
1390.637437	707.5999756
1391.167909	695.0
1391.698325	686.4000244
1392.228685	684.0
1392.75899	683.5999756
1393.28924	677.7999878
1393.819434	679.7999878
1394.349572	679.0
1394.879655	678.5999756
1395.409683	674.7999878
1395.939655	674.4000244
1396.469571	676.5999756
1396.999432	675.7999878
1397.529237	674.0
1398.058987	675.7999878
1398.588682	677.4000244
1399.118321	673.4000244
1399.647905	675.2000122
1400.177433	675.2000122
1400.706906	677.7999878
1401.236323	670.7999878
1401.765685	672.0
1402.294991	674.5999756
1402.824242	673.2000122
1403.353437	675.0
1403.882577	675.4000244
1404.411662	675.5999756
1404.940691	678.0
1405.469665	676.4000244
1405.998583	677.4000244
1406.527446	677.2000122
1407.056253	679.0
1407.585005	685.2000122
1408.113702	692.7999878
1408.642343	699.5999756
1409.170929	711.2000122
1409.69946	705.7999878
1410.227935	702.4000244
1410.756354	696.2000122
1411.284719	684.4000244
1411.813028	680.2000122
1412.341281	676.0
1412.869479	677.0
1413.397622	669.7999878
1413.92571	672.4000244
1414.453742	672.4000244
1414.981718	671.4000244
1415.50964	680.5999756
1416.037506	674.0
1416.565316	671.0
1417.093072	670.4000244
1417.620772	671.4000244
1418.148416	671.0
1418.676005	671.2000122
1419.203539	669.7999878
1419.731018	671.5999756
1420.258441	673.2000122
1420.785809	666.7999878
1421.313122	669.7999878
1421.840379	670.0
1422.367582	671.7999878
1422.894728	670.0
1423.42182	667.4000244
1423.948856	672.5999756
1424.475837	669.5999756
1425.002762	670.7999878
1425.529633	668.4000244
1426.056448	671.5999756
1426.583207	668.5999756
1427.109912	669.4000244
1427.636561	669.5999756
1428.163155	669.7999878
1428.689694	670.0
1429.216177	672.2000122
1429.742605	669.2000122
1430.268978	671.2000122
1430.795296	672.0
1431.321558	668.2000122
1431.847765	671.2000122
1432.373917	671.4000244
1432.900014	669.0
1433.426056	667.4000244
1433.952042	671.4000244
1434.477973	668.5999756
1435.003849	669.4000244
1435.529669	673.2000122
1436.055435	668.2000122
1436.581145	668.7999878
1437.1068	668.7999878
1437.632399	669.2000122
1438.157944	671.4000244
1438.683433	669.7999878
1439.208868	669.2000122
1439.734247	670.4000244
1440.25957	670.0
1440.784839	670.5999756
1441.310053	669.5999756
1441.835211	668.0
1442.360314	667.0
1442.885362	669.4000244
1443.410355	667.5999756
1443.935292	671.4000244
1444.460175	671.0
1444.985002	667.0
1445.509774	669.7999878
1446.034491	667.4000244
1446.559153	672.5999756
1447.08376	671.2000122
1447.608312	672.2000122
1448.132808	669.0
1448.65725	672.0
1449.181636	670.4000244
1449.705967	667.5999756
1450.230243	671.2000122
1450.754464	668.7999878
1451.27863	668.5999756
1451.802741	667.0
1452.326797	667.7999878
1452.850797	668.2000122
1453.374743	670.4000244
1453.898633	669.7999878
1454.422468	669.4000244
1454.946249	668.5999756
1455.469974	669.5999756
1455.993644	671.4000244
1456.517259	669.4000244
1457.040819	669.0
1457.564324	669.5999756
1458.087773	671.2000122
1458.611168	670.2000122
1459.134508	666.0
1459.657793	668.7999878
1460.181022	667.4000244
1460.704197	669.2000122
1461.227316	670.2000122
1461.750381	669.4000244
1462.27339	672.7999878
1462.796345	693.2000122
1463.842089	676.5999756
1464.364878	668.4000244
1464.887613	668.2000122
1465.410292	666.7999878
1465.932916	669.2000122
1466.455486	666.0
1466.978	668.2000122
1467.50046	665.7999878
1468.022864	667.7999878
1468.545214	667.0
1469.067508	664.5999756
1469.589748	670.5999756
1470.111932	667.7999878
1470.634062	669.7999878
1471.156136	669.2000122
1471.678156	667.0
1472.20012	669.5999756
1472.72203	668.0
1473.243885	666.4000244
1473.765685	667.7999878
1474.28743	670.2000122
1474.80912	667.5999756
1475.330755	669.4000244
1475.852335	668.2000122
1476.37386	666.2000122
1476.89533	667.2000122
1477.416745	667.2000122
1477.938106	665.4000244
1478.459411	668.7999878
1478.980662	669.7999878
1479.501857	668.4000244
1480.022998	666.0
1480.544084	668.4000244
1481.065115	668.2000122
1481.586091	663.4000244
1482.107012	668.0
1482.627878	667.0
1483.14869	667.0
1483.669446	666.2000122
1484.190148	666.5999756
1484.710794	666.7999878
1485.231386	668.4000244
1485.751923	665.2000122
1486.272406	669.7999878
1486.792833	667.4000244
1487.313205	668.0
1487.833523	664.5999756
1488.353786	665.4000244
1488.873994	668.4000244
1489.394147	664.4000244
1489.914245	664.0
1490.434288	669.2000122
1490.954277	666.5999756
1491.474211	669.0
1491.99409	666.5999756
1492.513914	666.2000122
1493.033683	668.7999878
1493.553398	665.2000122
1494.073057	666.7999878
1494.592662	667.7999878
1495.112212	667.0
1495.631708	667.4000244
1496.151148	668.2000122
1496.670534	667.5999756
1497.189865	668.0
1497.709141	664.5999756
1498.228362	669.5999756
1498.747529	666.4000244
1499.266641	667.4000244
1499.785698	670.0
1500.3047	668.4000244
1500.823648	663.7999878
1501.34254	666.4000244
1501.861379	666.0
1502.380162	665.7999878
1502.89889	666.5999756
1503.417564	667.0
1503.936183	669.2000122
1504.454748	668.7999878
1504.973257	664.7999878
1505.491712	666.5999756
1506.010112	666.4000244
1506.528458	666.0
1507.046748	665.5999756
1507.564984	666.7999878
1508.083166	665.5999756
1508.601292	665.5999756
1509.119364	664.5999756
1509.637381	668.7999878
1510.155344	663.5999756
1510.673252	674.2000122
1511.191105	667.4000244
1511.708903	667.0
1512.226647	666.4000244
1512.744336	671.2000122
1513.261971	666.0
1513.77955	667.7999878
1514.297076	666.5999756
1514.814546	665.5999756
1515.331962	665.5999756
1515.849323	664.0
1516.366629	666.7999878
1516.883881	666.7999878
1517.401078	663.0
1517.918221	666.4000244
1518.435309	666.7999878
1518.952342	665.2000122
1519.469321	668.5999756
1519.986245	666.0
1520.503114	665.4000244
1521.019929	665.5999756
1521.536689	669.0
1522.053395	669.0
1522.570046	670.5999756
1523.086642	668.2000122
1523.603184	664.7999878
1524.119671	668.4000244
1524.636103	667.4000244
1525.152481	667.7999878
1525.668805	680.2000122
1526.185073	696.4000244
1526.701288	676.4000244
1527.217447	668.7999878
1527.733552	668.0
1528.249603	664.4000244
1528.765599	667.7999878
1529.28154	665.5999756
1529.797427	668.2000122
1530.313259	666.7999878
1530.829037	666.4000244
1531.34476	667.7999878
1531.860429	665.5999756
1532.376043	664.4000244
1532.891602	669.5999756
1533.407107	668.4000244
1533.922558	668.0
1534.437954	666.2000122
1534.953295	666.4000244
1535.468582	666.4000244
1535.983815	666.5999756
1536.498993	666.5999756
1537.014116	665.5999756
1537.529185	667.0
1538.044199	666.7999878
1538.559159	667.0
1539.074064	666.7999878
1539.588915	669.5999756
1540.103712	666.5999756
1540.618454	667.5999756
1541.133141	666.5999756
1541.647774	670.0
1542.162353	667.0
1542.676877	667.4000244
1543.191346	664.4000244
1543.705761	665.5999756
1544.220122	665.4000244
1544.734428	666.2000122
1545.24868	669.4000244
1545.762877	669.4000244
1546.27702	668.2000122
1546.791109	668.0
1547.305143	667.7999878
1547.819122	667.5999756
1548.333047	665.0
1548.846918	668.5999756
1549.360734	666.7999878
1549.874496	667.0
1550.388204	668.4000244
1550.901857	670.0
1551.415455	666.4000244
1551.929	668.2000122
1552.442489	668.4000244
1552.955925	666.4000244
1553.469306	665.4000244
1553.982632	671.0
1554.495905	668.5999756
1555.009123	669.0
1555.522286	667.2000122
1556.035395	668.7999878
1556.54845	669.4000244
1557.06145	668.4000244
1557.574396	667.7999878
1558.087288	666.7999878
1558.600125	665.5999756
1559.112908	666.2000122
1559.625637	667.7999878
1560.138311	668.0
1560.650931	669.4000244
1561.163497	670.2000122
1561.676008	665.5999756
1562.188465	669.0
1562.700867	668.7999878
1563.213216	669.4000244
1563.725509	667.2000122
1564.237749	670.2000122
1564.749934	669.7999878
1565.262065	672.4000244
1565.774142	672.0
1566.286164	673.0
1566.798132	672.4000244
1567.310046	672.2000122
1567.821906	670.5999756
1568.333711	671.7999878
1568.845462	670.2000122
1569.357158	671.5999756
1569.868801	668.2000122
1570.380389	672.2000122
1570.891922	667.5999756
1571.403402	668.5999756
1571.914827	668.4000244
1572.426198	671.0
1572.937515	666.7999878
1573.448777	669.0
1573.959985	665.5999756
1574.471139	664.4000244
1574.982239	668.0
1575.493285	664.4000244
1576.004276	668.5999756
1576.515213	666.0
1577.026096	669.4000244
1577.536924	666.0
1578.047698	668.5999756
1578.558419	664.7999878
1579.069084	662.7999878
1579.579696	666.5999756
1580.090254	666.0
1580.600757	666.7999878
1581.111206	669.0
1581.621601	667.2000122
1582.131941	668.5999756
1582.642228	667.7999878
1583.15246	664.7999878
1583.662638	669.5999756
1584.172762	666.4000244
1584.682832	666.4000244
1585.192847	669.0
1585.702809	667.0
1586.212716	666.5999756
1586.722569	666.5999756
1587.232368	664.7999878
1587.742113	665.7999878
1588.251803	665.4000244
1588.76144	667.5999756
1589.271022	667.5999756
1589.78055	668.0
1590.290024	665.2000122
1590.799444	670.4000244
1591.30881	665.4000244
1591.818121	668.0
1592.327379	665.2000122
