1042.414189	686.4000244
1042.980685	683.4000244
1043.547124	683.0
1044.113505	683.5999756
1044.679828	684.4000244
1045.246093	682.0
1045.8123	681.2000122
1046.378449	678.5999756
1046.94454	681.2000122
1047.510573	683.4000244
1048.076548	678.7999878
1048.642465	676.7999878
1049.208325	679.0
1049.774126	679.0
1050.339869	678.2000122
1050.905555	678.5999756
1051.471183	682.5999756
1052.036752	677.5999756
1052.602264	677.0
1053.167718	674.7999878
1053.733114	677.5999756
1054.298452	678.0
1054.863733	677.0
1055.428955	677.7999878
1055.994119	676.2000122
1056.559226	678.7999878
1057.124275	678.2000122
1057.689266	677.5999756
1058.254199	674.0
1058.819074	675.0
1059.383891	674.2000122
1059.94865	677.2000122
1060.513352	678.0
1061.077996	678.4000244
1061.642582	676.2000122
1062.20711	678.0
1062.77158	677.4000244
1063.335992	676.4000244
1063.900347	677.7999878
1064.464643	675.7999878
1065.028882	675.7999878
1065.593063	678.5999756
1066.157187	673.4000244
1066.721252	679.5999756
1067.28526	678.2000122
1067.84921	677.2000122
1068.413102	679.4000244
1068.976936	674.4000244
1069.540713	676.5999756
1070.104431	681.0
1070.668092	677.5999756
1071.231696	676.4000244
1071.795241	674.5999756
1072.358729	681.0
1072.922159	677.0
1073.485531	678.0
1074.048845	678.0
1074.612102	676.5999756
1075.175301	675.7999878
1075.738442	675.7999878
1076.301525	675.0
1076.864551	677.0
1077.427519	676.2000122
1077.990429	675.5999756
1078.553281	674.5999756
1079.116076	675.2000122
1079.678813	676.4000244
1080.241492	677.2000122
1080.804114	676.7999878
1081.366678	675.4000244
1081.929184	676.5999756
1082.491633	679.7999878
1083.054024	675.0
1083.616357	677.2000122
1084.178632	675.5999756
1084.74085	677.5999756
1085.30301	673.4000244
1085.865113	677.4000244
1086.427158	677.0
1086.989145	677.2000122
1087.551074	675.5999756
1088.112946	677.4000244
1088.67476	678.5999756
1089.236517	678.7999878
1089.798216	675.0
1090.359857	675.2000122
1090.92144	678.5999756
1091.482966	675.2000122
1092.044435	676.0
1092.605845	676.0
1093.167199	674.7999878
1093.728494	679.4000244
1094.289732	676.5999756
1094.850912	673.7999878
1095.412035	686.0
1095.9731	677.7999878
1096.534107	676.0
1097.095057	680.2000122
1097.65595	677.0
1098.216784	679.4000244
1098.777561	675.4000244
1099.338281	677.5999756
1099.898943	676.4000244
1100.459547	674.0
1101.020094	678.0
1101.580584	677.0
1102.141015	679.5999756
1102.701389	676.2000122
1103.261706	680.0
1103.821965	678.2000122
1104.382167	678.4000244
1104.942311	676.0
1105.502397	681.0
1106.062426	675.2000122
1106.622398	674.7999878
1107.182312	677.5999756
1107.742168	674.0
1108.301967	682.0
1108.861708	675.2000122
1109.421392	675.7999878
1109.981019	679.4000244
1110.540587	674.5999756
1111.100099	679.7999878
1111.659553	681.5999756
1112.218949	680.2000122
1112.778288	680.4000244
1113.33757	678.7999878
1113.896794	677.5999756
1114.45596	676.4000244
1115.015069	677.0
1115.574121	679.2000122
1116.133115	675.5999756
1116.692052	677.4000244
1117.250931	678.5999756
1117.809753	678.2000122
1118.368517	677.2000122
1118.927224	677.0
1119.485873	675.2000122
1120.044465	675.4000244
1120.603	677.4000244
1121.161477	675.2000122
1121.719897	675.2000122
1122.278259	675.4000244
1122.836564	676.2000122
1123.394812	674.4000244
1123.953002	679.0
1124.511135	675.4000244
1125.06921	675.4000244
1125.627228	676.4000244
1126.185189	676.7999878
1126.743092	676.4000244
1127.300938	676.7999878
1127.858726	674.2000122
1128.416457	672.7999878
1128.974131	675.5999756
1129.531748	674.4000244
1130.089307	674.0
1130.646808	675.5999756
1131.204252	675.5999756
1131.761639	677.4000244
1132.318969	675.7999878
1132.876241	675.7999878
1133.433456	675.2000122
1133.990614	673.5999756
1134.547714	675.0
1135.104757	675.0
1135.661743	674.7999878
1136.218671	673.4000244
1136.775542	674.2000122
1137.332356	678.0
1137.889112	673.5999756
1138.445811	674.7999878
1139.002453	675.4000244
1139.559037	675.4000244
1140.115565	678.4000244
1140.672035	673.2000122
1141.228447	674.4000244
1141.784803	677.2000122
1142.341101	674.2000122
1142.897342	673.0
1143.453525	676.2000122
1144.009651	678.7999878
1144.565721	674.5999756
1145.121732	676.4000244
1145.677687	674.5999756
1146.233584	676.5999756
1146.789424	677.7999878
1147.345207	674.0
1147.900933	674.2000122
1148.456601	671.4000244
1149.012212	673.2000122
1149.567766	675.5999756
1150.123263	675.2000122
1150.678702	676.0
1151.234085	676.4000244
1151.78941	674.4000244
1152.344678	675.0
1152.899888	676.0
1153.455042	676.5999756
1154.010138	676.5999756
1154.565177	677.2000122
1155.120159	677.5999756
1155.675084	678.2000122
1156.229951	672.7999878
1156.784762	673.7999878
1157.339515	675.0
1157.894211	673.2000122
1158.44885	675.4000244
1159.003432	677.4000244
1159.557956	676.2000122
1160.112424	676.4000244
1160.666834	672.7999878
1161.221187	675.5999756
1161.775483	673.2000122
1162.329722	676.2000122
1162.883904	675.2000122
1163.438029	675.5999756
1163.992096	677.4000244
1164.546107	677.2000122
1165.10006	675.7999878
1165.653956	674.5999756
1166.207795	676.4000244
1166.761577	676.5999756
1167.315302	676.0
1167.86897	672.0
1168.422581	679.4000244
1168.976134	674.0
1169.529631	675.2000122
1170.08307	674.5999756
1170.636453	675.2000122
1171.189778	676.7999878
1171.743046	676.7999878
1172.296257	675.4000244
1172.849412	677.5999756
1173.402509	674.4000244
1173.955549	677.0
1174.508532	676.7999878
1175.061458	676.4000244
1175.614327	675.0
1176.167138	674.2000122
1176.719893	677.5999756
1177.272591	676.2000122
1177.825232	674.2000122
1178.377816	676.0
1178.930342	674.0
1179.482812	678.2000122
1180.035225	676.0
1180.587581	674.0
1181.139879	673.4000244
1181.692121	676.0
1182.244306	678.4000244
1182.796434	677.2000122
1183.348504	677.0
1183.900518	675.0
1184.452475	677.7999878
1185.004375	678.0
1185.556218	675.7999878
1186.108004	673.7999878
1186.659733	676.4000244
1187.211405	679.5999756
1187.76302	677.0
1188.314578	675.7999878
1188.866079	677.5999756
1189.417523	678.7999878
1189.96891	677.4000244
1190.520241	677.2000122
1191.071514	678.7999878
1191.622731	679.2000122
1192.17389	676.2000122
1192.724993	673.0
1193.276039	690.2000122
1193.827027	676.7999878
1194.377959	677.0
1194.928834	677.4000244
1195.479653	673.2000122
1196.030414	677.2000122
1196.581118	676.0
1197.131766	673.0
1197.682356	673.5999756
1198.23289	679.4000244
1198.783367	675.5999756
1199.333786	675.4000244
1199.88415	675.0
1200.434456	676.0
1200.984705	674.5999756
1201.534898	674.2000122
1202.085033	675.5999756
1202.635112	675.5999756
1203.185134	675.0
1203.735099	675.4000244
1204.285007	675.7999878
1204.834859	678.2000122
1205.384653	677.4000244
1205.934391	678.2000122
1206.484072	676.0
1207.033696	678.7999878
1207.583263	675.7999878
1208.132774	675.2000122
1208.682228	676.0
1209.231624	675.4000244
1209.780965	675.4000244
1210.330248	677.2000122
1210.879474	676.2000122
1211.428644	676.7999878
1211.977757	675.7999878
1212.526813	675.7999878
1213.075813	677.0
1213.624755	675.5999756
1214.173641	677.5999756
1214.72247	677.7999878
1215.271242	677.2000122
1215.819958	675.7999878
1216.368617	675.7999878
1216.917219	676.2000122
1217.465764	676.4000244
1218.014253	675.4000244
1218.562685	676.4000244
1219.11106	675.5999756
1219.659378	675.7999878
1220.20764	681.0
1220.755845	677.5999756
1221.303993	674.7999878
1221.852085	676.0
1222.400119	677.0
1222.948097	674.4000244
1223.496019	675.7999878
1224.043883	679.4000244
1224.591691	678.2000122
1225.139443	676.5999756
1225.687137	679.0
1226.234775	676.4000244
1226.782357	676.7999878
1227.329881	678.7999878
1227.877349	675.0
1228.42476	675.5999756
1228.972115	674.0
1229.519413	680.0
1230.066654	676.0
1230.613839	676.2000122
1231.160967	676.5999756
1231.708038	677.5999756
1232.255053	677.7999878
1232.802011	678.0
1233.348912	680.0
1233.895757	674.5999756
1234.442545	680.7999878
1234.989277	676.7999878
1235.535951	677.0
1236.08257	675.2000122
1236.629131	677.4000244
1237.175636	677.5999756
1237.722085	678.4000244
1238.268477	679.0
1238.814812	676.2000122
1239.361091	674.5999756
1239.907313	677.5999756
1240.453478	679.4000244
1240.999587	678.0
1241.54564	677.0
1242.091636	676.5999756
1242.637575	677.7999878
1243.183457	679.7999878
1243.729284	676.7999878
1244.275053	679.5999756
1244.820766	680.2000122
1245.366423	677.0
1245.912022	675.5999756
1246.457566	678.5999756
1247.003053	681.0
1247.548483	676.2000122
1248.093857	680.0
1248.639174	677.4000244
1249.184435	678.5999756
1249.729639	675.4000244
1250.274787	676.4000244
1250.819878	676.5999756
1251.364912	675.0
1251.909891	675.5999756
1252.454812	675.0
1252.999677	674.7999878
1253.544486	677.5999756
1254.089238	680.4000244
1254.633934	675.2000122
1255.178573	679.4000244
1255.723156	674.5999756
1256.267682	678.2000122
1256.812152	677.5999756
1257.356565	678.7999878
1257.900922	675.5999756
1258.445223	678.7999878
1258.989467	675.4000244
1259.533654	678.2000122
1260.077785	683.0
1260.62186	681.0
1261.165878	677.5999756
1261.70984	679.2000122
1262.253745	676.5999756
1262.797594	683.5999756
1263.341386	680.2000122
1263.885123	678.0
1264.428802	680.0
1264.972425	679.7999878
1265.515992	676.7999878
1266.059503	676.4000244
1266.602957	676.5999756
1267.146354	675.2000122
1267.689696	680.2000122
1268.23298	676.5999756
1268.776209	676.2000122
1269.319381	676.7999878
1269.862497	680.5999756
1270.405556	676.2000122
1270.948559	677.5999756
1271.491506	675.2000122
1272.034396	677.7999878
1272.57723	675.2000122
1273.120007	675.7999878
1273.662728	678.7999878
1274.205393	678.2000122
1274.748002	676.5999756
1275.290554	674.5999756
1275.83305	675.4000244
1276.375489	676.4000244
1276.917872	675.7999878
1277.460199	675.5999756
1278.00247	676.5999756
1278.544684	679.5999756
1279.086842	679.5999756
1279.628943	676.2000122
1280.170989	678.4000244
1280.712978	681.4000244
1281.25491	681.5999756
1281.796787	686.7999878
1282.338607	695.5999756
1282.880371	710.4000244
1283.422078	725.7999878
1283.963729	725.5999756
1284.505324	713.7999878
1285.046863	696.2000122
1285.588345	683.5999756
1286.129772	680.4000244
1286.671142	676.5999756
1287.212455	677.5999756
1287.753713	679.0
1288.294914	674.7999878
1288.836059	677.4000244
1289.377147	678.4000244
1289.91818	678.2000122
1290.459156	676.7999878
1291.000076	675.2000122
1291.54094	678.2000122
1292.081747	678.4000244
1292.622499	677.2000122
1293.163194	677.0
1293.703833	674.2000122
1294.244415	674.4000244
1294.784942	676.2000122
1295.325412	675.4000244
1295.865826	674.4000244
1296.406184	677.2000122
1296.946486	676.5999756
1297.486731	679.0
1298.026921	678.2000122
1298.567054	675.5999756
1299.107131	676.5999756
1299.647152	676.4000244
1300.187116	675.2000122
1300.727025	677.5999756
1301.266877	676.7999878
1301.806673	676.4000244
1302.346413	676.2000122
1302.886097	675.4000244
1303.425725	675.4000244
1303.965297	676.2000122
1304.504812	677.7999878
1305.044272	674.0
1305.583675	678.2000122
1306.123022	675.7999878
1306.662313	675.2000122
1307.201548	678.2000122
1307.740727	679.7999878
1308.279849	675.7999878
1308.818916	675.0
1309.357926	674.4000244
1309.896881	675.0
1310.435779	672.0
1310.974621	676.5999756
1311.513407	676.5999756
1312.052137	677.7999878
1312.590811	678.5999756
1313.129429	677.5999756
1313.667991	675.4000244
1314.206497	675.0
1314.744946	677.0
1315.28334	676.2000122
1315.821678	674.4000244
1316.359959	676.4000244
1316.898184	674.5999756
1317.436354	677.7999878
1317.974467	674.5999756
1318.512525	674.2000122
1319.050526	675.5999756
1319.588471	675.0
1320.12636	676.5999756
1320.664194	676.5999756
1321.201971	676.4000244
1321.739692	676.5999756
1322.277357	674.0
1322.814967	673.5999756
1323.35252	679.4000244
1323.890017	677.0
1324.427458	677.4000244
1324.964843	676.5999756
1325.502173	677.2000122
1326.039446	675.5999756
1326.576663	674.0
1327.113824	674.0
1327.65093	677.4000244
1328.187979	676.0
1328.724972	675.7999878
1329.26191	677.5999756
1329.798791	676.5999756
1330.335617	673.2000122
1330.872386	678.0
1331.4091	673.5999756
1331.945758	678.0
1332.48236	676.2000122
1333.018905	675.5999756
1333.555395	674.0
1334.091829	675.2000122
1334.628207	676.0
1335.164529	676.7999878
1335.700796	674.2000122
1336.237006	674.0
1336.77316	676.7999878
1337.309259	677.5999756
1337.845301	675.0
1338.381288	673.7999878
1338.917219	680.2000122
1339.453094	673.5999756
1339.988913	676.0
1340.524676	675.2000122
1341.060383	674.0
1341.596034	674.0
1342.13163	678.4000244
1342.66717	673.5999756
1343.202653	676.4000244
1343.738081	678.5999756
1344.273453	674.5999756
1344.80877	676.4000244
1345.34403	673.2000122
1345.879235	672.7999878
1346.414383	676.4000244
1346.949476	675.7999878
1347.484513	673.2000122
1348.019494	674.4000244
1348.55442	674.2000122
1349.089289	676.7999878
1349.624103	675.7999878
1350.158861	673.4000244
1350.693563	675.7999878
1351.228209	676.4000244
1351.7628	677.0
1352.297334	676.0
1352.831813	678.2000122
1353.366236	677.0
1353.900604	677.4000244
1354.434915	675.4000244
1354.969171	674.0
1355.503371	672.0
1356.037515	675.5999756
1356.571604	677.7999878
1357.105636	676.4000244
1357.639613	675.2000122
1358.173535	677.5999756
1358.7074	675.4000244
1359.24121	675.7999878
1359.774964	678.5999756
1360.308662	676.0
1360.842304	676.0
1361.375891	674.7999878
1361.909422	675.4000244
1362.442897	677.0
1362.976317	674.2000122
1363.50968	678.2000122
1364.042989	674.2000122
1364.576241	674.2000122
1365.109438	676.4000244
1365.642579	677.7999878
1366.175664	678.2000122
1366.708693	676.5999756
1367.241667	672.7999878
1367.774585	676.0
1368.307448	676.7999878
1368.840255	675.5999756
1369.373006	674.7999878
1369.905701	674.2000122
1370.438341	675.5999756
1370.970925	675.5999756
1371.503454	678.0
1372.035926	674.2000122
1372.568344	675.4000244
1373.100705	674.2000122
1373.633011	680.4000244
1374.165261	672.2000122
1374.697456	674.4000244
1375.229595	674.7999878
1375.761678	674.7999878
1376.293705	675.4000244
1376.825677	674.7999878
1377.357594	676.4000244
1377.889455	674.7999878
1378.42126	677.0
1378.953009	677.7999878
1379.484703	676.5999756
1380.016342	678.2000122
1380.547924	676.7999878
1381.079452	678.5999756
1381.610923	676.4000244
1382.142339	677.2000122
1382.673699	677.7999878
1383.205004	679.2000122
1383.736253	681.5999756
1384.267447	677.7999878
1384.798585	683.2000122
1385.329668	682.5999756
1385.860695	686.4000244
1386.391666	697.0
1386.922582	727.0
1387.453442	770.2000122
1387.984247	788.4000244
1388.514996	745.2000122
1389.04569	707.5999756
1389.576328	690.4000244
1390.10691	684.7999878
1390.637437	681.4000244
1391.167909	681.7999878
1391.698325	676.2000122
1392.228685	675.4000244
1392.75899	681.4000244
1393.28924	679.4000244
1393.819434	675.4000244
1394.349572	678.7999878
1394.879655	676.0
1395.409683	678.2000122
1395.939655	676.4000244
1396.469571	676.2000122
1396.999432	678.4000244
1397.529237	675.4000244
1398.058987	676.2000122
1398.588682	679.0
1399.118321	674.7999878
1399.647905	676.5999756
1400.177433	675.0
1400.706906	678.2000122
1401.236323	673.0
1401.765685	677.2000122
1402.294991	673.4000244
1402.824242	673.7999878
1403.353437	678.4000244
1403.882577	678.5999756
1404.411662	674.0
1404.940691	675.5999756
1405.469665	677.4000244
1405.998583	677.0
1406.527446	677.7999878
1407.056253	680.4000244
1407.585005	682.4000244
1408.113702	677.4000244
1408.642343	678.4000244
1409.170929	683.4000244
1409.69946	680.5999756
1410.227935	679.4000244
1410.756354	679.0
1411.284719	678.0
1411.813028	676.4000244
1412.341281	676.2000122
1412.869479	674.7999878
1413.397622	674.5999756
1413.92571	675.7999878
1414.453742	679.0
1414.981718	674.5999756
1415.50964	685.7999878
1416.037506	676.5999756
1416.565316	679.4000244
1417.093072	674.2000122
1417.620772	674.7999878
1418.148416	677.2000122
1418.676005	675.7999878
1419.203539	673.4000244
1419.731018	673.5999756
1420.258441	678.2000122
1420.785809	677.4000244
1421.313122	672.4000244
1421.840379	674.4000244
1422.367582	677.0
1422.894728	674.4000244
1423.42182	676.7999878
1423.948856	676.0
1424.475837	673.5999756
1425.002762	674.5999756
1425.529633	677.0
1426.056448	673.5999756
1426.583207	675.7999878
1427.109912	672.7999878
1427.636561	675.2000122
1428.163155	675.4000244
1428.689694	674.2000122
1429.216177	677.7999878
1429.742605	674.7999878
1430.268978	678.2000122
1430.795296	675.7999878
1431.321558	674.7999878
1431.847765	673.2000122
1432.373917	676.7999878
1432.900014	678.2000122
1433.426056	678.5999756
1433.952042	676.4000244
1434.477973	676.0
1435.003849	673.7999878
1435.529669	676.0
1436.055435	676.5999756
1436.581145	679.2000122
1437.1068	674.0
1437.632399	677.4000244
1438.157944	677.7999878
1438.683433	676.0
1439.208868	675.0
1439.734247	674.7999878
1440.25957	676.2000122
1440.784839	676.5999756
1441.310053	673.4000244
1441.835211	677.7999878
1442.360314	674.0
1442.885362	677.5999756
1443.410355	676.0
1443.935292	675.0
1444.460175	676.7999878
1444.985002	677.4000244
1445.509774	674.4000244
1446.034491	677.5999756
1446.559153	677.2000122
1447.08376	678.4000244
1447.608312	679.4000244
1448.132808	676.2000122
1448.65725	678.0
1449.181636	675.0
1449.705967	676.5999756
1450.230243	677.2000122
1450.754464	676.7999878
1451.27863	677.7999878
1451.802741	677.4000244
1452.326797	675.4000244
1452.850797	676.5999756
1453.374743	674.0
1453.898633	675.7999878
1454.422468	675.4000244
1454.946249	674.5999756
1455.469974	679.0
1455.993644	676.0
1456.517259	676.2000122
1457.040819	675.4000244
1457.564324	675.4000244
1458.087773	679.5999756
1458.611168	677.0
1459.134508	679.5999756
1459.657793	674.4000244
1460.181022	677.5999756
1460.704197	672.5999756
1461.227316	673.2000122
1461.750381	678.2000122
1462.27339	677.4000244
1463.842089	679.2000122
1464.364878	675.4000244
1464.887613	677.2000122
1465.410292	675.5999756
1465.932916	674.4000244
1466.455486	674.4000244
1466.978	677.2000122
1467.50046	677.2000122
1468.022864	674.5999756
1468.545214	675.7999878
1469.067508	677.0
1469.589748	674.2000122
1470.111932	676.5999756
1470.634062	674.4000244
1471.156136	673.7999878
1471.678156	675.2000122
1472.20012	672.5999756
1472.72203	673.5999756
1473.243885	677.5999756
1473.765685	677.4000244
1474.28743	677.4000244
1474.80912	673.0
1475.330755	676.5999756
1475.852335	676.7999878
1476.37386	676.2000122
1476.89533	673.5999756
1477.416745	672.7999878
1477.938106	673.5999756
1478.459411	677.7999878
1478.980662	675.0
1479.501857	674.5999756
1480.022998	674.0
1480.544084	675.2000122
1481.065115	675.7999878
1481.586091	676.2000122
1482.107012	676.7999878
1482.627878	675.5999756
1483.14869	675.7999878
1483.669446	673.5999756
1484.190148	675.0
1484.710794	676.0
1485.231386	677.0
1485.751923	676.0
1486.272406	676.5999756
1486.792833	675.5999756
1487.313205	677.2000122
1487.833523	677.4000244
1488.353786	673.2000122
1488.873994	673.7999878
1489.394147	677.2000122
1489.914245	674.2000122
1490.434288	674.7999878
1490.954277	671.5999756
1491.474211	677.7999878
1491.99409	676.0
1492.513914	672.0
1493.033683	676.0
1493.553398	674.0
1494.073057	677.7999878
1494.592662	674.4000244
1495.112212	675.7999878
1495.631708	673.5999756
1496.151148	672.4000244
1496.670534	673.4000244
1497.189865	676.7999878
1497.709141	676.0
1498.228362	673.0
1498.747529	674.4000244
1499.266641	677.4000244
1499.785698	685.0
1500.3047	676.4000244
1500.823648	676.0
1501.34254	674.0
1501.861379	671.7999878
1502.380162	673.7999878
1502.89889	675.5999756
1503.417564	673.7999878
1503.936183	675.0
1504.454748	675.7999878
1504.973257	677.2000122
1505.491712	675.4000244
1506.010112	674.4000244
1506.528458	673.7999878
1507.046748	673.2000122
1507.564984	671.5999756
1508.083166	672.5999756
1508.601292	674.4000244
1509.119364	674.7999878
1509.637381	675.2000122
1510.155344	673.0
1510.673252	680.4000244
1511.191105	672.2000122
1511.708903	672.0
1512.226647	674.7999878
1512.744336	678.0
1513.261971	674.2000122
1513.77955	673.0
1514.297076	674.5999756
1514.814546	676.7999878
1515.331962	676.0
1515.849323	674.4000244
1516.366629	676.4000244
1516.883881	675.5999756
1517.401078	676.2000122
1517.918221	675.4000244
1518.435309	673.5999756
1518.952342	673.5999756
1519.469321	676.2000122
1519.986245	673.4000244
1520.503114	675.0
1521.019929	673.0
1521.536689	675.0
1522.053395	672.4000244
1522.570046	673.5999756
1523.086642	674.2000122
1523.603184	675.4000244
1524.119671	674.2000122
1524.636103	674.4000244
1525.152481	676.2000122
1525.668805	687.0
1526.701288	688.4000244
1527.217447	673.0
1527.733552	674.5999756
1528.249603	675.5999756
1528.765599	675.0
1529.28154	677.5999756
1529.797427	673.2000122
1530.313259	673.5999756
1530.829037	676.5999756
1531.34476	674.0
1531.860429	671.4000244
1532.376043	673.7999878
1532.891602	673.2000122
1533.407107	674.0
1533.922558	676.5999756
1534.437954	673.5999756
1534.953295	674.7999878
1535.468582	672.4000244
1535.983815	674.4000244
1536.498993	674.7999878
1537.014116	677.7999878
1537.529185	676.5999756
1538.044199	674.2000122
1538.559159	678.7999878
1539.074064	672.5999756
1539.588915	676.2000122
1540.103712	678.0
1540.618454	675.7999878
1541.133141	676.4000244
1541.647774	674.2000122
1542.162353	675.5999756
1542.676877	678.2000122
1543.191346	676.4000244
1543.705761	677.4000244
1544.220122	674.4000244
1544.734428	677.0
1545.24868	674.5999756
1545.762877	676.7999878
1546.27702	677.0
1546.791109	676.7999878
1547.305143	674.7999878
1547.819122	675.4000244
1548.333047	673.2000122
1548.846918	673.5999756
1549.360734	677.5999756
1549.874496	675.7999878
1550.388204	675.2000122
1550.901857	678.4000244
1551.415455	675.0
1551.929	675.5999756
1552.442489	675.5999756
1552.955925	675.7999878
1553.469306	677.4000244
1553.982632	676.2000122
1554.495905	679.7999878
1555.009123	676.2000122
1555.522286	679.5999756
1556.035395	676.2000122
1556.54845	677.5999756
1557.06145	678.2000122
1557.574396	674.2000122
1558.087288	678.5999756
1558.600125	677.2000122
1559.112908	674.7999878
1559.625637	677.4000244
1560.138311	675.2000122
1560.650931	675.0
1561.163497	678.2000122
1561.676008	673.5999756
1562.188465	676.2000122
1562.700867	680.0
1563.213216	680.0
1563.725509	678.5999756
1564.237749	676.4000244
1564.749934	678.4000244
1565.262065	678.2000122
1565.774142	678.7999878
1566.286164	680.7999878
1566.798132	679.5999756
1567.310046	681.0
1567.821906	680.7999878
1568.333711	679.0
1568.845462	677.2000122
1569.357158	679.5999756
1569.868801	678.7999878
1570.380389	675.4000244
1570.891922	673.7999878
1571.403402	676.2000122
1571.914827	677.4000244
1572.426198	676.0
1572.937515	675.0
1573.448777	676.4000244
1573.959985	675.5999756
1574.471139	675.2000122
1574.982239	672.5999756
1575.493285	676.4000244
1576.004276	674.7999878
1576.515213	678.4000244
1577.026096	677.2000122
1577.536924	675.0
1578.047698	677.0
1578.558419	675.0
1579.069084	676.4000244
1579.579696	677.4000244
1580.090254	673.4000244
1580.600757	676.4000244
1581.111206	674.5999756
1581.621601	674.0
1582.131941	675.0
1582.642228	675.5999756
1583.15246	676.4000244
1583.662638	675.7999878
1584.172762	676.5999756
1584.682832	674.0
1585.192847	675.7999878
1585.702809	675.2000122
1586.212716	677.0
1586.722569	673.7999878
1587.232368	674.5999756
1587.742113	677.0
1588.251803	677.7999878
1588.76144	675.0
1589.271022	678.4000244
1589.78055	676.2000122
1590.290024	677.5999756
1590.799444	680.7999878
1591.30881	675.0
1591.818121	676.4000244
1592.327379	673.5999756
