1042.452273	686.7999878
1043.018714	682.0
1043.585098	684.0
1044.151424	686.4000244
1044.717692	690.7999878
1045.283903	684.5999756
1045.850056	687.5999756
1046.416151	684.2000122
1046.982188	683.5999756
1047.548167	682.4000244
1048.114089	684.7999878
1048.679953	680.2000122
1049.24576	684.4000244
1049.811509	683.2000122
1050.3772	684.4000244
1050.942833	681.7999878
1051.508408	681.4000244
1052.073926	683.5999756
1052.639387	681.0
1053.204789	682.0
1053.770134	682.5999756
1054.335421	682.4000244
1054.900651	682.4000244
1055.465823	680.7999878
1056.030937	681.2000122
1056.595993	679.5999756
1057.160992	681.5999756
1057.725934	679.5999756
1058.290817	682.0
1058.855643	683.5999756
1059.420411	678.4000244
1059.985122	680.2000122
1060.549775	679.4000244
1061.114371	680.5999756
1061.678908	678.2000122
1062.243389	678.5999756
1062.807811	680.5999756
1063.372176	679.7999878
1063.936483	680.0
1064.500733	680.7999878
1065.064925	681.0
1065.62906	677.4000244
1066.193137	680.0
1066.757156	682.5999756
1067.321118	677.0
1067.885022	677.7999878
1068.448869	676.7999878
1069.012658	679.2000122
1069.57639	676.2000122
1070.140063	684.0
1070.70368	679.5999756
1071.267239	679.4000244
1071.83074	677.2000122
1072.394184	681.5999756
1072.95757	679.4000244
1073.520899	679.4000244
1074.08417	678.4000244
1074.647383	676.7999878
1075.21054	679.7999878
1075.773638	679.2000122
1076.336679	679.7999878
1076.899663	680.5999756
1077.462589	679.0
1078.025457	676.5999756
1078.588268	679.0
1079.151022	679.2000122
1079.713718	678.7999878
1080.276356	681.7999878
1080.838937	677.0
1081.401461	676.7999878
1081.963927	678.5999756
1082.526336	680.2000122
1083.088687	677.2000122
1083.650981	680.4000244
1084.213217	677.2000122
1084.775396	681.5999756
1085.337517	677.7999878
1085.899581	676.5999756
1086.461587	678.7999878
1087.023536	680.2000122
1087.585428	678.5999756
1088.147262	681.0
1088.709039	674.7999878
1089.270758	681.2000122
1089.83242	680.5999756
1090.394024	677.4000244
1090.955571	681.2000122
1091.517061	682.0
1092.078493	678.0
1092.639868	679.0
1093.201185	677.5999756
1093.762445	676.7999878
1094.323648	677.4000244
1094.884793	678.0
1095.445881	685.0
1096.006911	680.4000244
1096.567884	676.0
1097.1288	683.5999756
1097.689659	674.5999756
1098.25046	677.4000244
1098.811203	677.4000244
1099.37189	678.5999756
1099.932518	681.7999878
1100.49309	678.2000122
1101.053604	681.2000122
1101.614061	675.2000122
1102.174461	677.7999878
1102.734803	679.5999756
1103.295088	676.7999878
1103.855316	675.2000122
1104.415486	679.0
1104.975599	677.5999756
1105.535655	679.2000122
1106.095653	678.7999878
1106.655594	679.2000122
1107.215478	677.0
1107.775305	677.0
1108.335074	679.2000122
1108.894786	674.0
1109.45444	679.0
1110.014038	676.4000244
1110.573578	679.7999878
1111.133061	679.0
1111.692486	678.4000244
1112.251854	681.0
1112.811165	678.4000244
1113.370419	678.2000122
1113.929616	677.2000122
1114.488755	681.2000122
1115.047837	678.2000122
1115.606862	679.2000122
1116.16583	676.5999756
1116.72474	680.0
1117.283593	680.7999878
1117.842389	679.2000122
1118.401128	677.4000244
1118.959809	680.2000122
1119.518433	678.4000244
1120.077	676.7999878
1120.63551	677.4000244
1121.193963	677.7999878
1121.752358	680.4000244
1122.310697	678.7999878
1122.868978	675.5999756
1123.427202	682.2000122
1123.985368	674.4000244
1124.543478	676.5999756
1125.10153	679.4000244
1125.659526	679.0
1126.217464	676.7999878
1126.775345	678.4000244
1127.333168	678.0
1127.890935	678.0
1128.448644	677.4000244
1129.006297	676.7999878
1129.563892	679.0
1130.12143	676.7999878
1130.678911	677.5999756
1131.236335	678.5999756
1131.793701	679.2000122
1132.351011	679.5999756
1132.908263	677.5999756
1133.465458	678.7999878
1134.022597	682.2000122
1134.579678	678.2000122
1135.136702	676.0
1135.693669	677.4000244
1136.250578	676.0
1136.807431	677.2000122
1137.364227	676.7999878
1137.920965	678.0
1138.477647	678.7999878
1139.034271	675.4000244
1139.590839	675.7999878
1140.147349	679.5999756
1140.703802	678.7999878
1141.260198	678.0
1141.816537	677.4000244
1142.37282	682.2000122
1142.929045	678.2000122
1143.485213	677.5999756
1144.041323	682.5999756
1144.597377	681.4000244
1145.153374	681.0
1145.709314	678.7999878
1146.265197	679.4000244
1146.821023	678.7999878
1147.376792	678.7999878
1147.932503	676.0
1148.488158	677.4000244
1149.043756	679.5999756
1149.599297	678.7999878
1150.154781	678.5999756
1150.710207	677.5999756
1151.265577	679.0
1151.82089	677.5999756
1152.376146	676.7999878
1152.931345	676.0
1153.486487	679.7999878
1154.041572	679.2000122
1154.5966	679.7999878
1155.151571	675.5999756
1155.706485	677.5999756
1156.261342	678.2000122
1156.816142	681.4000244
1157.370885	678.5999756
1157.925572	680.2000122
1158.480201	679.2000122
1159.034774	682.2000122
1159.589289	677.7999878
1160.143748	681.0
1160.698149	679.7999878
1161.252494	678.2000122
1161.806782	678.7999878
1162.361013	680.2000122
1162.915187	678.7999878
1163.469304	677.0
1164.023364	682.5999756
1164.577368	674.0
1165.131314	679.0
1165.685204	677.4000244
1166.239036	679.0
1166.792812	677.2000122
1167.346531	679.0
1167.900193	682.2000122
1168.453798	678.5999756
1169.007347	677.5999756
1169.560838	676.0
1170.114273	678.7999878
1170.66765	677.4000244
1171.220971	678.0
1171.774235	677.7999878
1172.327443	679.5999756
1172.880593	680.7999878
1173.433687	678.2000122
1173.986723	681.0
1174.539703	678.7999878
1175.092626	678.4000244
1175.645493	680.0
1176.198302	680.7999878
1176.751055	678.2000122
1177.303751	680.2000122
1177.85639	680.2000122
1178.408972	677.4000244
1178.961498	676.4000244
1179.513966	678.2000122
1180.066378	678.5999756
1180.618733	679.0
1181.171032	677.7999878
1181.723273	678.4000244
1182.275458	674.4000244
1182.827586	680.2000122
1183.379657	675.0
1183.931672	678.0
1184.48363	680.4000244
1185.035531	677.2000122
1185.587375	679.7999878
1186.139162	677.7999878
1186.690893	678.5999756
1187.242567	675.5999756
1187.794184	677.7999878
1188.345745	675.7999878
1188.897249	679.2000122
1189.448696	681.0
1190.000086	679.2000122
1190.55142	681.7999878
1191.102697	676.5999756
1191.653918	680.5999756
1192.205081	676.5999756
1192.756188	677.7999878
1193.307238	698.7999878
1193.858232	680.0
1194.409169	679.2000122
1194.960049	681.7999878
1195.510872	679.0
1196.061639	683.4000244
1196.612349	682.4000244
1197.163003	675.7999878
1197.713599	679.0
1198.264139	678.0
1198.814623	676.7999878
1199.36505	677.0
1199.91542	677.0
1200.465734	679.2000122
1201.01599	678.4000244
1201.566191	677.5999756
1202.116334	679.7999878
1202.666421	679.5999756
1203.216452	676.7999878
1203.766425	678.7999878
1204.316343	680.7999878
1204.866203	679.2000122
1205.416007	681.2000122
1205.965754	678.5999756
1206.515445	679.0
1207.065079	682.4000244
1207.614657	678.5999756
1208.164177	677.0
1208.713642	676.2000122
1209.26305	679.4000244
1209.812401	679.4000244
1210.361695	672.0
1210.910933	676.4000244
1211.460115	681.4000244
1212.00924	679.7999878
1212.558308	682.0
1213.10732	682.5999756
1213.656275	680.2000122
1214.205174	679.0
1214.754016	682.0
1215.302801	682.5999756
1215.85153	679.0
1216.400203	680.5999756
1216.948819	681.2000122
1217.497378	680.0
1218.045881	679.2000122
1218.594327	678.0
1219.142717	682.2000122
1219.691051	677.0
1220.239327	681.5999756
1220.787548	679.5999756
1221.335712	680.5999756
1221.883819	679.7999878
1222.43187	679.7999878
1222.979864	681.0
1223.527802	676.7999878
1224.075683	680.2000122
1224.623508	676.5999756
1225.171277	681.2000122
1225.718989	680.7999878
1226.266644	679.2000122
1226.814243	679.5999756
1227.361786	683.2000122
1227.909272	679.7999878
1228.456702	680.2000122
1229.004075	679.0
1229.551392	680.0
1230.098652	681.2000122
1230.645856	675.5999756
1231.193003	677.0
1231.740094	679.5999756
1232.287129	675.7999878
1232.834107	678.2000122
1233.381029	677.5999756
1233.927894	675.7999878
1234.474703	679.0
1235.021455	679.0
1235.568151	677.7999878
1236.114791	679.2000122
1236.661374	676.7999878
1237.207901	679.4000244
1237.754372	676.4000244
1238.300786	676.5999756
1238.847144	675.7999878
1239.393445	680.2000122
1239.93969	680.7999878
1240.485879	675.5999756
1241.032011	677.7999878
1241.578087	676.5999756
1242.124106	679.7999878
1242.67007	677.0
1243.215976	677.7999878
1243.761827	679.2000122
1244.307621	677.4000244
1244.853359	680.2000122
1245.39904	678.2000122
1245.944665	679.2000122
1246.490234	674.2000122
1247.035746	677.7999878
1247.581203	674.2000122
1248.126602	679.0
1248.671946	675.0
1249.217233	679.4000244
1249.762464	675.7999878
1250.307638	676.0
1250.852757	677.4000244
1251.397819	678.4000244
1251.942824	677.2000122
1252.487774	674.7999878
1253.032667	675.4000244
1253.577503	677.5999756
1254.122284	677.5999756
1254.667008	674.2000122
1255.211676	678.0
1255.756288	671.5999756
1256.300843	678.2000122
1256.845342	675.2000122
1257.389785	675.2000122
1257.934172	678.0
1258.478502	679.0
1259.022776	675.5999756
1259.566994	677.2000122
1260.111156	685.5999756
1260.655261	674.7999878
1261.199311	674.5999756
1261.743304	674.0
1262.28724	676.7999878
1262.831121	674.4000244
1263.374945	674.4000244
1263.918713	675.4000244
1264.462425	678.5999756
1265.006081	674.4000244
1265.54968	674.5999756
1266.093223	676.4000244
1266.636711	675.7999878
1267.180141	674.2000122
1267.723516	675.2000122
1268.266835	674.7999878
1268.810097	675.0
1269.353303	677.4000244
1269.896453	674.0
1270.439547	674.0
1270.982584	675.2000122
1271.525566	676.7999878
1272.068491	674.4000244
1272.61136	671.4000244
1273.154173	673.2000122
1273.69693	675.2000122
1274.239631	676.2000122
1274.782275	673.4000244
1275.324864	675.7999878
1275.867396	676.7999878
1276.409872	674.2000122
1276.952292	674.5999756
1277.494656	672.4000244
1278.036964	673.7999878
1278.579215	675.4000244
1279.121411	672.7999878
1279.66355	672.7999878
1280.205634	678.2000122
1280.747661	676.5999756
1281.289632	683.4000244
1281.831547	680.0
1282.373406	685.7999878
1282.915209	692.0
1283.456955	690.5999756
1283.998646	685.0
1284.540281	680.0
1285.081859	676.4000244
1285.623381	676.0
1286.164848	676.7999878
1286.706258	675.7999878
1287.247612	671.5999756
1287.788911	675.5999756
1288.330153	675.0
1288.871339	676.0
1289.412469	675.0
1289.953543	673.7999878
1290.494561	676.2000122
1291.035523	676.0
1291.576428	674.7999878
1292.117278	673.4000244
1292.658072	673.2000122
1293.19881	675.7999878
1293.739492	674.0
1294.280118	676.0
1294.820687	674.5999756
1295.361201	673.2000122
1295.901659	674.7999878
1296.442061	676.7999878
1296.982406	673.7999878
1297.522696	675.5999756
1298.06293	671.0
1298.603108	676.2000122
1299.143229	672.7999878
1299.683295	674.4000244
1300.223305	673.5999756
1300.763259	677.4000244
1301.303157	675.4000244
1301.842999	674.2000122
1302.382785	673.0
1302.922515	670.0
1303.462189	672.4000244
1304.001807	674.5999756
1304.541369	677.2000122
1305.080875	670.2000122
1305.620326	675.0
1306.15972	673.2000122
1306.699058	675.5999756
1307.238341	671.0
1307.777567	673.5999756
1308.316738	672.0
1308.855853	675.4000244
1309.394912	673.4000244
1309.933915	675.4000244
1310.472862	675.4000244
1311.011753	674.4000244
1311.550588	672.4000244
1312.089367	674.7999878
1312.62809	671.4000244
1313.166758	671.2000122
1313.70537	672.2000122
1314.243925	672.5999756
1314.782425	673.5999756
1315.320869	668.0
1315.859257	673.2000122
1316.397589	671.4000244
1316.935866	673.4000244
1317.474086	668.7999878
1318.012251	669.2000122
1318.55036	672.0
1319.088413	672.4000244
1319.62641	674.2000122
1320.164351	671.4000244
1320.702236	670.7999878
1321.240066	672.7999878
1321.777839	674.2000122
1322.315557	674.5999756
1322.853219	672.5999756
1323.390826	675.0
1323.928376	678.0
1324.465871	670.2000122
1325.003309	672.0
1325.540692	673.5999756
1326.07802	671.2000122
1326.615291	669.2000122
1327.152506	673.5999756
1327.689666	673.4000244
1328.22677	675.0
1328.763818	675.5999756
1329.300811	674.4000244
1329.837747	672.5999756
1330.374628	674.2000122
1330.911453	673.5999756
1331.448222	672.7999878
1331.984936	672.0
1332.521594	671.4000244
1333.058196	673.2000122
1333.594742	673.4000244
1334.131232	673.5999756
1334.667667	671.2000122
1335.204046	671.7999878
1335.740369	673.2000122
1336.276637	675.0
1336.812848	674.4000244
1337.349004	675.5999756
1337.885105	672.0
1338.421149	671.0
1338.957138	673.5999756
1339.493071	674.5999756
1340.028949	671.0
1340.56477	672.4000244
1341.100536	671.7999878
1341.636246	674.0
1342.171901	674.5999756
1342.7075	671.4000244
1343.243043	674.4000244
1343.77853	673.2000122
1344.313962	671.0
1344.849338	673.4000244
1345.384659	672.7999878
1345.919923	673.4000244
1346.455133	671.5999756
1346.990286	673.0
1347.525384	674.4000244
1348.060426	673.7999878
1348.595412	675.4000244
1349.130343	673.0
1349.665218	671.0
1350.200037	669.4000244
1350.734801	672.7999878
1351.269509	673.7999878
1351.804162	671.2000122
1352.338758	669.0
1352.8733	673.4000244
1353.407785	671.7999878
1353.942215	673.2000122
1354.476589	670.5999756
1355.010908	672.4000244
1355.545171	672.5999756
1356.079379	671.2000122
1356.61353	670.0
1357.147627	671.0
1357.681667	674.0
1358.215652	669.4000244
1358.749582	671.5999756
1359.283456	670.5999756
1359.817274	675.7999878
1360.351037	669.0
1360.884744	674.0
1361.418395	670.4000244
1361.951991	674.0
1362.485531	673.0
1363.019016	670.2000122
1363.552445	672.7999878
1364.085819	671.5999756
1364.619137	671.7999878
1365.1524	676.2000122
1365.685607	673.0
1366.218758	669.5999756
1366.751854	671.4000244
1367.284894	679.2000122
1367.817879	675.5999756
1368.350808	671.2000122
1368.883682	673.4000244
1369.4165	674.4000244
1369.949263	674.4000244
1370.48197	677.0
1371.014622	671.7999878
1371.547218	670.0
1372.079758	674.0
1372.612244	672.7999878
1373.144673	675.0
1373.677047	671.0
1374.209366	669.7999878
1374.741629	674.2000122
1375.273836	673.7999878
1375.805989	674.5999756
1376.338085	674.4000244
1376.870126	670.2000122
1377.402112	672.5999756
1377.934042	673.7999878
1378.465917	673.7999878
1378.997736	669.5999756
1379.5295	673.0
1380.061208	669.7999878
1380.592861	673.0
1381.124459	671.0
1381.656	676.4000244
1382.187487	677.0
1382.718918	669.2000122
1383.250294	675.2000122
1383.781614	676.5999756
1384.312879	672.2000122
1384.844088	674.2000122
1385.375242	675.4000244
1385.90634	679.4000244
1386.437383	687.7999878
1386.968371	702.7999878
1387.499303	712.0
1388.03018	700.4000244
1388.561001	683.2000122
1389.091767	679.2000122
1389.622478	676.7999878
1390.153133	675.4000244
1390.683733	672.5999756
1391.214277	676.4000244
1391.744766	673.7999878
1392.2752	675.0
1392.805578	672.2000122
1393.335901	672.2000122
1393.866168	678.4000244
1394.396381	673.4000244
1394.926537	676.0
1395.456639	673.4000244
1395.986685	672.4000244
1396.516675	672.0
1397.046611	673.0
1397.576491	670.0
1398.106315	674.7999878
1398.636084	676.0
1399.165798	675.0
1399.695457	671.4000244
1400.22506	670.0
1400.754608	672.4000244
1401.284101	670.0
1401.813538	669.4000244
1402.34292	671.7999878
1402.872247	672.2000122
1403.401518	672.2000122
1403.930734	673.4000244
1404.459895	671.4000244
1404.989	670.7999878
1405.51805	671.7999878
1406.047045	672.4000244
1406.575984	669.7999878
1407.104869	674.0
1407.633697	671.0
1408.162471	675.2000122
1408.691189	670.7999878
1409.219852	673.5999756
1409.74846	673.4000244
1410.277013	672.4000244
1410.80551	670.7999878
1411.333952	672.2000122
1411.862339	673.2000122
1412.39067	671.5999756
1412.918946	670.0
1413.447167	671.5999756
1413.975333	668.2000122
1414.503444	668.7999878
1415.031499	671.5999756
1415.559499	683.7999878
1416.087444	672.5999756
1416.615333	671.7999878
1417.143167	670.4000244
1417.670947	671.5999756
1418.19867	671.0
1418.726339	669.5999756
1419.253952	672.5999756
1419.781511	673.2000122
1420.309014	672.0
1420.836461	672.7999878
1421.363854	672.0
1421.891191	671.5999756
1422.418474	672.5999756
1422.945701	670.4000244
1423.472872	671.4000244
1423.999989	672.0
1424.52705	673.2000122
1425.054057	672.5999756
1425.581008	671.5999756
1426.107904	668.7999878
1426.634745	674.2000122
1427.16153	671.7999878
1427.688261	671.7999878
1428.214936	670.0
1428.741556	673.4000244
1429.268121	670.5999756
1429.794631	673.4000244
1430.321085	672.2000122
1430.847485	671.5999756
1431.373829	672.7999878
1431.900118	670.7999878
1432.426353	671.5999756
1432.952532	674.7999878
1433.478655	671.4000244
1434.004724	667.7999878
1434.530738	674.4000244
1435.056696	672.0
1435.5826	671.4000244
1436.108448	672.2000122
1436.634241	672.2000122
1437.159979	672.0
1437.685662	673.2000122
1438.21129	673.2000122
1438.736863	671.5999756
1439.262381	672.0
1439.787843	672.4000244
1440.313251	672.5999756
1440.838603	673.2000122
1441.3639	673.5999756
1441.889143	670.0
1442.41433	673.5999756
1442.939462	672.2000122
1443.464539	671.0
1443.989561	668.2000122
1444.514528	675.0
1445.03944	675.4000244
1445.564297	671.0
1446.089099	672.5999756
1446.613846	672.4000244
1447.138537	669.7999878
1447.663174	670.7999878
1448.187756	673.5999756
1448.712282	672.2000122
1449.236754	673.4000244
1449.761171	674.5999756
1450.285532	673.4000244
1450.809839	671.5999756
1451.33409	670.7999878
1451.858287	668.4000244
1452.382428	669.0
1452.906515	671.2000122
1453.430546	669.4000244
1453.954523	671.4000244
1454.478444	671.2000122
1455.002311	674.2000122
1455.526123	666.5999756
1456.049879	668.5999756
1456.573581	670.7999878
1457.097227	672.2000122
1457.620819	672.4000244
1458.144356	674.7999878
1458.667837	671.7999878
1459.191264	668.0
1459.714636	672.7999878
1460.237952	670.7999878
1460.761214	670.7999878
1461.284421	671.5999756
1461.807573	673.7999878
1462.33067	672.0
1462.853712	671.7999878
1463.376699	669.2000122
1463.899632	673.4000244
1464.422509	669.5999756
1464.945331	670.5999756
1465.468099	669.7999878
1465.990811	671.4000244
1466.513469	672.5999756
1467.036071	672.5999756
1467.558619	669.7999878
1468.081112	671.5999756
1468.60355	674.7999878
1469.125933	669.0
1469.648261	673.4000244
1470.170534	674.2000122
1470.692752	669.0
1471.214916	671.4000244
1471.737024	670.5999756
1472.259078	672.0
1472.781077	671.0
1473.303021	672.4000244
1473.82491	672.4000244
1474.346744	672.0
1474.868523	666.4000244
1475.390248	671.4000244
1475.911917	674.4000244
1476.433532	670.4000244
1476.955092	669.4000244
1477.476597	670.0
1477.998047	671.4000244
1478.519442	671.7999878
1479.040783	675.7999878
1479.562068	672.2000122
1480.083299	672.7999878
1480.604475	669.7999878
1481.125596	670.0
1481.646663	670.7999878
1482.167674	673.0
1482.688631	670.4000244
1483.209533	670.0
1483.73038	664.2000122
1484.251172	672.2000122
1484.771909	669.7999878
1485.292592	669.5999756
1485.81322	669.7999878
1486.333793	671.2000122
1486.854311	670.5999756
1487.374775	671.4000244
1487.895183	669.7999878
1488.415537	671.4000244
1488.935836	670.2000122
1489.456081	672.2000122
1489.97627	668.5999756
1490.496405	671.2000122
1491.016485	668.5999756
1491.536511	671.4000244
1492.056481	669.0
1492.576397	670.7999878
1493.096258	669.0
1493.616064	670.5999756
1494.135816	670.4000244
1494.655513	665.7999878
1495.175155	670.5999756
1495.694742	669.4000244
1496.214274	672.7999878
1496.733752	670.5999756
1497.253175	668.0
1497.772544	670.0
1498.291858	669.7999878
1498.811116	671.0
1499.330321	668.0
1499.84947	677.5999756
1500.368565	671.0
1500.887605	669.2000122
1501.406591	670.2000122
1501.925521	671.0
1502.444397	669.0
1502.963219	669.4000244
1503.481985	669.5999756
1504.000697	669.2000122
1504.519355	668.7999878
1505.037957	666.2000122
1505.556505	669.5999756
1506.074999	670.4000244
1506.593437	667.4000244
1507.111821	668.2000122
1507.63015	666.4000244
1508.148425	668.0
1508.666645	668.2000122
1509.18481	670.2000122
1509.702921	669.7999878
1510.220977	669.7999878
1510.738979	679.7999878
1511.256925	666.5999756
1511.774817	670.7999878
1512.292655	668.0
1512.810438	668.7999878
1513.328166	667.7999878
1513.84584	672.4000244
1514.363459	668.4000244
1514.881023	671.2000122
1515.398533	666.7999878
1515.915988	668.5999756
1516.433389	667.0
1516.950734	667.2000122
1517.468026	670.0
1517.985263	668.7999878
1518.502445	667.5999756
1519.019572	671.0
1519.536645	667.5999756
1520.053664	666.4000244
1520.570628	668.4000244
1521.087537	669.5999756
1521.604392	671.0
1522.121192	670.2000122
1522.637937	670.4000244
1523.154628	668.4000244
1523.671265	670.2000122
1524.187847	671.4000244
1524.704374	666.4000244
1525.220847	670.0
1525.737265	671.7999878
1526.253629	666.5999756
1526.769938	670.0
1527.286192	671.0
1527.802392	667.0
1528.318538	669.0
1528.834629	667.4000244
1529.350666	668.5999756
1529.866648	670.7999878
1530.382575	671.5999756
1531.414266	676.4000244
1531.93003	667.0
1532.44574	670.5999756
1532.961395	669.5999756
1533.476995	669.4000244
1533.992541	669.2000122
1534.508033	668.7999878
1535.02347	669.5999756
1535.538852	669.4000244
1536.05418	668.5999756
1536.569454	666.5999756
1537.084673	668.7999878
1537.599837	666.2000122
1538.114947	667.0
1538.630003	668.2000122
1539.145004	669.5999756
1539.659951	669.7999878
1540.174843	669.4000244
1540.689681	665.7999878
1541.204465	666.2000122
1541.719194	669.7999878
1542.233868	669.7999878
1542.748488	665.7999878
1543.263054	671.4000244
1543.777565	667.4000244
1544.292022	668.5999756
1544.806424	669.5999756
1545.320772	669.0
1545.835066	667.7999878
1546.349305	669.2000122
1546.863489	667.5999756
1547.37762	668.5999756
1547.891696	666.0
1548.405717	666.2000122
1548.919684	664.7999878
1549.433597	667.7999878
1549.947455	669.2000122
1550.461259	668.0
1550.975009	666.7999878
1551.488704	666.4000244
1552.002345	669.2000122
1552.515931	669.4000244
1553.029463	670.7999878
1553.542941	669.0
1554.056364	667.4000244
1554.569733	666.7999878
1555.083048	671.5999756
1555.596308	669.5999756
1556.109514	667.5999756
1556.622665	669.5999756
1557.135762	667.2000122
1557.648805	669.4000244
1558.161794	670.5999756
1558.674728	668.4000244
1559.187608	667.0
1559.700433	665.2000122
1560.213205	670.2000122
1560.725921	669.7999878
1561.238584	669.7999878
1561.751192	670.4000244
1562.263746	666.2000122
1562.776246	668.0
1563.288691	669.0
1563.801082	668.5999756
1564.313419	667.2000122
1564.825701	664.5999756
1565.337929	668.7999878
1565.850103	666.0
1566.362223	668.7999878
1566.874288	668.7999878
1567.386299	669.4000244
1567.898256	671.2000122
1568.410158	669.4000244
1568.922007	669.4000244
1569.4338	668.4000244
1569.94554	666.2000122
1570.457226	667.7999878
1570.968857	666.2000122
1571.480434	668.7999878
1571.991956	669.2000122
1572.503425	668.4000244
1573.014839	666.4000244
1573.526199	666.7999878
1574.037505	666.7999878
1574.548756	665.7999878
1575.059953	667.4000244
1575.571096	670.0
1576.082185	665.4000244
1576.59322	667.0
1577.1042	668.7999878
1577.615126	669.4000244
1578.125998	669.7999878
1578.636816	670.2000122
1579.14758	668.7999878
1579.658289	667.2000122
1580.168944	667.5999756
1580.679545	669.2000122
1581.190092	668.0
1581.700585	668.5999756
1582.211023	667.5999756
1582.721407	668.2000122
1583.231737	664.4000244
1583.742013	669.5999756
1584.252235	667.0
1584.762403	668.7999878
1585.272516	666.7999878
1585.782575	666.5999756
1586.292581	666.4000244
1586.802532	669.5999756
1587.312428	666.7999878
1587.822271	663.0
1588.33206	666.2000122
1588.841794	666.7999878
1589.351474	665.4000244
1589.8611	666.7999878
1590.370672	668.4000244
1590.88019	666.5999756
1591.389654	665.7999878
1591.899064	667.0
1592.408419	666.5999756
