1042.452273	669.7999878
1043.018714	669.7999878
1044.151424	673.7999878
1044.717692	669.0
1045.283903	667.0
1045.850056	667.0
1046.416151	660.7999878
1046.982188	668.7999878
1047.548167	664.4000244
1048.114089	664.4000244
1048.679953	665.7999878
1049.24576	668.5999756
1049.811509	665.5999756
1050.3772	669.4000244
1050.942833	664.5999756
1051.508408	664.2000122
1052.073926	663.5999756
1052.639387	663.0
1053.204789	666.0
1053.770134	664.4000244
1054.335421	667.2000122
1054.900651	662.0
1055.465823	664.7999878
1056.030937	662.5999756
1056.595993	665.4000244
1057.160992	665.7999878
1057.725934	665.2000122
1058.290817	662.5999756
1058.855643	665.0
1059.420411	661.4000244
1059.985122	665.2000122
1060.549775	663.0
1061.114371	664.0
1061.678908	663.5999756
1062.243389	663.4000244
1062.807811	664.4000244
1063.372176	660.7999878
1063.936483	664.5999756
1064.500733	660.7999878
1065.064925	663.7999878
1065.62906	664.4000244
1066.193137	662.0
1066.757156	662.2000122
1067.321118	665.5999756
1067.885022	665.2000122
1068.448869	660.4000244
1069.012658	665.2000122
1069.57639	665.4000244
1070.140063	671.2000122
1070.70368	665.4000244
1071.267239	661.2000122
1071.83074	663.7999878
1072.394184	666.7999878
1072.95757	664.7999878
1073.520899	662.7999878
1074.08417	666.0
1074.647383	664.0
1075.21054	661.5999756
1075.773638	663.0
1076.336679	665.4000244
1076.899663	666.0
1077.462589	665.2000122
1078.025457	665.7999878
1078.588268	664.5999756
1079.151022	667.7999878
1079.713718	667.0
1080.276356	665.5999756
1080.838937	667.5999756
1081.401461	663.4000244
1081.963927	667.0
1082.526336	667.0
1083.088687	667.4000244
1083.650981	668.7999878
1084.213217	668.7999878
1084.775396	667.4000244
1085.337517	666.2000122
1085.899581	670.4000244
1086.461587	671.4000244
1087.023536	670.7999878
1087.585428	667.2000122
1088.147262	670.5999756
1088.709039	670.2000122
1089.270758	669.2000122
1089.83242	670.4000244
1090.394024	673.4000244
1090.955571	674.5999756
1091.517061	673.7999878
1092.078493	673.5999756
1092.639868	673.7999878
1093.201185	675.5999756
1093.762445	674.4000244
1094.323648	676.7999878
1094.884793	673.7999878
1095.445881	677.5999756
1096.006911	674.4000244
1096.567884	671.2000122
1097.1288	676.4000244
1097.689659	673.7999878
1098.25046	666.7999878
1098.811203	671.5999756
1099.37189	669.0
1099.932518	670.2000122
1100.49309	664.4000244
1101.053604	669.4000244
1101.614061	665.4000244
1102.174461	665.5999756
1102.734803	666.4000244
1103.295088	664.5999756
1103.855316	665.2000122
1104.415486	665.4000244
1104.975599	664.5999756
1105.535655	662.7999878
1106.095653	666.2000122
1106.655594	664.4000244
1107.215478	663.5999756
1107.775305	663.4000244
1108.335074	664.7999878
1108.894786	664.5999756
1109.45444	664.7999878
1110.014038	664.0
1110.573578	662.5999756
1111.133061	666.7999878
1111.692486	665.7999878
1112.251854	663.4000244
1112.811165	664.5999756
1113.370419	666.2000122
1113.929616	662.4000244
1114.488755	663.7999878
1115.047837	661.4000244
1115.606862	663.2000122
1116.16583	663.0
1116.72474	663.7999878
1117.283593	662.5999756
1117.842389	662.4000244
1118.401128	661.7999878
1118.959809	661.7999878
1119.518433	663.5999756
1120.077	661.4000244
1120.63551	662.0
1121.193963	662.4000244
1121.752358	664.0
1122.310697	660.0
1122.868978	659.5999756
1123.427202	661.4000244
1123.985368	663.5999756
1124.543478	661.5999756
1125.10153	661.4000244
1125.659526	662.5999756
1126.217464	663.0
1126.775345	660.0
1127.333168	663.0
1127.890935	662.2000122
1128.448644	663.2000122
1129.006297	663.5999756
1129.563892	662.4000244
1130.12143	663.5999756
1130.678911	663.4000244
1131.236335	660.4000244
1131.793701	660.4000244
1132.351011	662.5999756
1132.908263	661.5999756
1133.465458	661.4000244
1134.022597	661.0
1134.579678	662.5999756
1135.136702	661.7999878
1135.693669	663.7999878
1136.250578	661.2000122
1136.807431	660.0
1137.364227	659.2000122
1137.920965	659.4000244
1138.477647	660.4000244
1139.034271	662.0
1139.590839	661.4000244
1140.147349	660.5999756
1140.703802	663.5999756
1141.260198	662.4000244
1141.816537	662.2000122
1142.37282	663.2000122
1142.929045	660.0
1143.485213	664.2000122
1144.041323	662.4000244
1144.597377	663.2000122
1145.153374	663.7999878
1145.709314	660.2000122
1146.265197	661.2000122
1146.821023	662.0
1147.376792	661.5999756
1147.932503	662.0
1148.488158	660.2000122
1149.043756	661.2000122
1149.599297	662.2000122
1150.154781	661.5999756
1150.710207	662.4000244
1151.265577	662.4000244
1151.82089	660.4000244
1152.376146	661.5999756
1152.931345	664.7999878
1153.486487	660.7999878
1154.041572	660.4000244
1154.5966	661.4000244
1155.151571	662.4000244
1155.706485	662.7999878
1156.261342	664.4000244
1156.816142	661.0
1157.370885	660.4000244
1157.925572	661.0
1158.480201	662.0
1159.034774	660.7999878
1159.589289	661.4000244
1160.143748	663.2000122
1160.698149	664.2000122
1161.252494	664.4000244
1161.806782	665.4000244
1162.361013	659.7999878
1162.915187	662.4000244
1163.469304	662.0
1164.023364	660.2000122
1164.577368	660.4000244
1165.131314	662.0
1165.685204	662.2000122
1166.239036	663.4000244
1166.792812	662.4000244
1167.346531	663.4000244
1167.900193	661.0
1168.453798	662.0
1169.007347	663.0
1169.560838	660.2000122
1170.114273	659.7999878
1170.66765	664.4000244
1171.220971	660.0
1171.774235	664.0
1172.327443	660.7999878
1172.880593	662.5999756
1173.433687	661.4000244
1173.986723	663.2000122
1174.539703	666.2000122
1175.092626	661.4000244
1175.645493	663.4000244
1176.198302	661.7999878
1176.751055	661.7999878
1177.303751	661.4000244
1177.85639	659.4000244
1178.408972	661.5999756
1178.961498	664.5999756
1179.513966	660.7999878
1180.066378	664.5999756
1180.618733	660.5999756
1181.171032	663.4000244
1181.723273	662.0
1182.275458	662.5999756
1182.827586	660.2000122
1183.379657	662.7999878
1183.931672	663.5999756
1184.48363	659.4000244
1185.035531	662.5999756
1185.587375	664.5999756
1186.139162	661.7999878
1186.690893	661.2000122
1187.242567	661.2000122
1187.794184	661.5999756
1188.345745	662.7999878
1188.897249	662.4000244
1189.448696	662.5999756
1190.000086	661.7999878
1190.55142	663.2000122
1191.102697	660.4000244
1191.653918	661.7999878
1192.205081	662.4000244
1192.756188	661.4000244
1193.307238	679.4000244
1193.858232	660.5999756
1194.409169	663.4000244
1194.960049	661.2000122
1195.510872	663.2000122
1196.061639	661.4000244
1196.612349	664.5999756
1197.163003	663.0
1197.713599	661.7999878
1198.264139	660.7999878
1198.814623	660.5999756
1199.36505	663.2000122
1199.91542	661.4000244
1200.465734	661.0
1201.01599	660.4000244
1201.566191	663.5999756
1202.116334	661.4000244
1202.666421	660.7999878
1203.216452	664.4000244
1203.766425	658.0
1204.316343	662.5999756
1204.866203	662.0
1205.416007	664.0
1205.965754	661.7999878
1206.515445	660.4000244
1207.065079	661.0
1207.614657	660.5999756
1208.164177	660.4000244
1208.713642	662.0
1209.26305	661.5999756
1209.812401	661.0
1210.361695	661.7999878
1210.910933	663.7999878
1211.460115	660.4000244
1212.00924	665.0
1212.558308	660.4000244
1213.10732	660.2000122
1213.656275	661.7999878
1214.205174	662.7999878
1214.754016	664.0
1215.302801	659.4000244
1215.85153	662.5999756
1216.400203	661.4000244
1216.948819	663.2000122
1217.497378	662.5999756
1218.045881	662.4000244
1218.594327	663.0
1219.142717	662.7999878
1219.691051	662.0
1220.239327	660.7999878
1220.787548	662.5999756
1221.335712	658.0
1221.883819	663.5999756
1222.43187	663.4000244
1222.979864	664.7999878
1223.527802	662.5999756
1224.075683	658.7999878
1224.623508	660.4000244
1225.171277	662.4000244
1225.718989	664.2000122
1226.266644	661.0
1226.814243	661.7999878
1227.361786	662.7999878
1227.909272	663.4000244
1228.456702	660.2000122
1229.004075	662.7999878
1229.551392	661.2000122
1230.098652	663.4000244
1230.645856	662.0
1231.193003	662.4000244
1231.740094	663.0
1232.287129	661.5999756
1232.834107	662.5999756
1233.381029	663.0
1233.927894	663.4000244
1234.474703	659.5999756
1235.021455	661.5999756
1235.568151	661.4000244
1236.114791	660.7999878
1236.661374	663.4000244
1237.207901	663.2000122
1237.754372	665.0
1238.300786	663.0
1238.847144	662.0
1239.393445	662.4000244
1239.93969	661.2000122
1240.485879	662.2000122
1241.032011	663.2000122
1241.578087	665.2000122
1242.124106	662.5999756
1242.67007	662.4000244
1243.215976	662.7999878
1243.761827	662.7999878
1244.307621	660.5999756
1244.853359	664.5999756
1245.39904	662.2000122
1245.944665	663.5999756
1246.490234	663.4000244
1247.035746	663.4000244
1247.581203	663.2000122
1248.126602	665.4000244
1248.671946	661.7999878
1249.217233	661.5999756
1249.762464	661.5999756
1250.307638	662.0
1250.852757	663.5999756
1251.397819	663.4000244
1251.942824	663.5999756
1252.487774	663.0
1253.032667	662.2000122
1253.577503	664.0
1254.122284	662.5999756
1254.667008	663.2000122
1255.211676	662.0
1255.756288	664.0
1256.300843	663.2000122
1256.845342	663.0
1257.389785	662.7999878
1257.934172	664.2000122
1258.478502	664.7999878
1259.022776	662.4000244
1259.566994	664.4000244
1260.111156	674.5999756
1260.655261	664.4000244
1261.199311	667.5999756
1261.743304	667.2000122
1262.28724	668.0
1262.831121	669.2000122
1263.374945	670.4000244
1263.918713	671.7999878
1264.462425	668.4000244
1265.006081	666.7999878
1265.54968	668.0
1266.093223	664.7999878
1266.636711	663.5999756
1267.180141	665.4000244
1267.723516	661.4000244
1268.266835	665.4000244
1268.810097	663.5999756
1269.353303	662.7999878
1269.896453	663.2000122
1270.439547	664.4000244
1270.982584	665.5999756
1271.525566	664.7999878
1272.068491	664.0
1272.61136	665.2000122
1273.154173	663.2000122
1273.69693	665.5999756
1274.239631	664.4000244
1274.782275	663.5999756
1275.324864	662.4000244
1275.867396	664.5999756
1276.409872	664.4000244
1276.952292	665.5999756
1277.494656	665.4000244
1278.036964	664.5999756
1278.579215	667.4000244
1279.121411	671.0
1279.66355	668.5999756
1280.205634	671.7999878
1280.747661	676.7999878
1281.289632	685.2000122
1281.831547	699.2000122
1282.373406	732.5999756
1282.915209	776.2000122
1283.456955	816.4000244
1283.998646	780.7999878
1284.540281	741.5999756
1285.081859	706.2000122
1285.623381	684.0
1286.164848	676.4000244
1286.706258	669.7999878
1287.247612	666.0
1287.788911	666.4000244
1288.330153	670.0
1288.871339	668.2000122
1289.412469	664.4000244
1289.953543	667.0
1290.494561	665.0
1291.035523	665.7999878
1291.576428	664.5999756
1292.117278	664.7999878
1292.658072	662.7999878
1293.19881	665.7999878
1293.739492	663.4000244
1294.280118	662.7999878
1294.820687	664.4000244
1295.361201	663.7999878
1295.901659	664.5999756
1296.442061	662.2000122
1296.982406	661.5999756
1297.522696	662.0
1298.06293	661.7999878
1298.603108	663.2000122
1299.143229	666.0
1299.683295	662.2000122
1300.223305	662.7999878
1300.763259	662.0
1301.303157	663.4000244
1301.842999	665.2000122
1302.382785	660.4000244
1302.922515	664.2000122
1303.462189	663.0
1304.001807	664.2000122
1304.541369	663.4000244
1305.080875	665.5999756
1305.620326	661.2000122
1306.15972	666.2000122
1306.699058	660.4000244
1307.238341	665.0
1307.777567	661.2000122
1308.316738	661.0
1308.855853	664.5999756
1309.394912	662.2000122
1309.933915	663.2000122
1310.472862	664.5999756
1311.011753	663.4000244
1311.550588	663.7999878
1312.089367	661.0
1312.62809	662.5999756
1313.166758	660.7999878
1313.70537	663.7999878
1314.243925	662.7999878
1314.782425	663.5999756
1315.320869	662.4000244
1315.859257	663.2000122
1316.397589	663.2000122
1316.935866	659.5999756
1317.474086	663.4000244
1318.012251	664.4000244
1318.55036	662.2000122
1319.088413	667.2000122
1319.62641	663.4000244
1320.164351	661.2000122
1320.702236	662.5999756
1321.240066	659.5999756
1321.777839	664.4000244
1322.315557	660.5999756
1322.853219	662.2000122
1323.390826	663.0
1323.928376	665.4000244
1324.465871	660.0
1325.003309	660.0
1325.540692	662.4000244
1326.07802	661.5999756
1326.615291	663.5999756
1327.152506	662.5999756
1327.689666	665.4000244
1328.22677	662.7999878
1328.763818	662.0
1329.300811	662.7999878
1329.837747	662.0
1330.374628	663.2000122
1330.911453	662.0
1331.448222	660.5999756
1331.984936	662.4000244
1332.521594	661.0
1333.058196	661.7999878
1333.594742	662.0
1334.131232	661.5999756
1334.667667	664.4000244
1335.204046	659.7999878
1335.740369	663.5999756
1336.276637	663.7999878
1336.812848	662.0
1337.349004	663.4000244
1337.885105	661.0
1338.421149	661.2000122
1338.957138	662.7999878
1339.493071	662.0
1340.028949	662.5999756
1340.56477	661.2000122
1341.100536	661.7999878
1341.636246	661.5999756
1342.171901	662.7999878
1342.7075	660.4000244
1343.243043	662.5999756
1343.77853	661.5999756
1344.313962	662.4000244
1344.849338	663.5999756
1345.384659	660.5999756
1345.919923	660.5999756
1346.455133	662.4000244
1346.990286	661.5999756
1347.525384	663.5999756
1348.060426	659.5999756
1348.595412	663.0
1349.130343	663.0
1349.665218	662.5999756
1350.200037	664.2000122
1350.734801	661.0
1351.269509	663.7999878
1351.804162	662.0
1352.338758	664.7999878
1352.8733	660.4000244
1353.407785	662.4000244
1353.942215	661.2000122
1354.476589	661.5999756
1355.010908	661.2000122
1355.545171	661.4000244
1356.079379	662.0
1356.61353	663.2000122
1357.147627	660.4000244
1357.681667	660.2000122
1358.215652	662.0
1358.749582	661.5999756
1359.283456	662.5999756
1359.817274	662.4000244
1360.351037	662.5999756
1360.884744	662.0
1361.418395	663.4000244
1361.951991	659.4000244
1362.485531	663.7999878
1363.019016	662.4000244
1363.552445	662.4000244
1364.085819	659.4000244
1364.619137	661.4000244
1365.1524	663.2000122
1365.685607	661.5999756
1366.218758	661.5999756
1366.751854	662.2000122
1367.284894	661.2000122
1367.817879	663.7999878
1368.350808	664.4000244
1368.883682	662.4000244
1369.4165	665.4000244
1369.949263	665.7999878
1370.48197	663.7999878
1371.014622	663.4000244
1371.547218	663.4000244
1372.079758	664.4000244
1372.612244	667.2000122
1373.144673	665.0
1373.677047	664.0
1374.209366	664.2000122
1374.741629	663.0
1375.273836	664.0
1375.805989	661.4000244
1376.338085	665.0
1376.870126	664.7999878
1377.402112	664.7999878
1377.934042	663.7999878
1378.465917	667.4000244
1378.997736	666.2000122
1379.5295	662.4000244
1380.061208	664.0
1380.592861	668.4000244
1381.124459	665.5999756
1381.656	669.4000244
1382.187487	668.5999756
1382.718918	666.5999756
1383.250294	671.7999878
1383.781614	669.2000122
1384.312879	676.5999756
1384.844088	680.4000244
1385.375242	688.7999878
1385.90634	702.0
1386.437383	740.7999878
1386.968371	833.2000122
1387.499303	953.4000244
1388.03018	933.7999878
1388.561001	810.4000244
1389.091767	723.5999756
1389.622478	695.7999878
1390.153133	680.0
1390.683733	677.4000244
1391.214277	673.0
1391.744766	670.5999756
1392.2752	668.4000244
1392.805578	669.7999878
1393.335901	664.0
1393.866168	670.2000122
1394.396381	664.7999878
1394.926537	666.4000244
1395.456639	663.7999878
1395.986685	661.4000244
1396.516675	665.0
1397.046611	662.5999756
1397.576491	663.2000122
1398.106315	663.2000122
1398.636084	663.5999756
1399.165798	662.7999878
1399.695457	665.7999878
1400.22506	664.4000244
1400.754608	663.0
1401.284101	665.7999878
1401.813538	665.7999878
1402.34292	662.0
1402.872247	663.2000122
1403.401518	664.7999878
1403.930734	667.7999878
1404.459895	662.7999878
1404.989	665.2000122
1405.51805	668.2000122
1406.047045	664.0
1406.575984	666.4000244
1407.104869	670.0
1407.633697	669.7999878
1408.162471	675.5999756
1408.691189	680.0
1409.219852	677.7999878
1409.74846	676.7999878
1410.277013	672.2000122
1410.80551	671.2000122
1411.333952	664.7999878
1411.862339	666.2000122
1412.39067	666.4000244
1412.918946	665.7999878
1413.447167	664.0
1413.975333	662.5999756
1414.503444	665.2000122
1415.031499	661.5999756
1415.559499	673.5999756
1416.087444	665.4000244
1416.615333	661.7999878
1417.143167	662.0
1417.670947	661.4000244
1418.19867	661.0
1418.726339	661.4000244
1419.253952	660.2000122
1419.781511	661.7999878
1420.309014	660.0
1420.836461	661.2000122
1421.363854	660.4000244
1421.891191	661.4000244
1422.418474	660.0
1422.945701	661.7999878
1423.472872	663.0
1423.999989	662.4000244
1424.52705	662.4000244
1425.054057	663.2000122
1425.581008	660.2000122
1426.107904	663.5999756
1426.634745	661.0
1427.16153	661.0
1427.688261	660.4000244
1428.214936	659.5999756
1428.741556	660.2000122
1429.268121	661.4000244
1429.794631	661.2000122
1430.321085	661.2000122
1430.847485	661.4000244
1431.373829	660.4000244
1431.900118	662.4000244
1432.426353	661.0
1432.952532	660.4000244
1433.478655	662.0
1434.004724	662.7999878
1434.530738	659.7999878
1435.056696	661.4000244
1435.5826	662.0
1436.108448	660.7999878
1436.634241	659.5999756
1437.159979	660.2000122
1437.685662	662.5999756
1438.21129	658.7999878
1438.736863	661.0
1439.262381	660.7999878
1439.787843	661.2000122
1440.313251	660.0
1440.838603	661.4000244
1441.3639	660.0
1441.889143	661.4000244
1442.41433	658.7999878
1442.939462	660.2000122
1443.464539	660.7999878
1443.989561	662.2000122
1444.514528	659.5999756
1445.03944	658.4000244
1445.564297	659.2000122
1446.089099	658.7999878
1446.613846	660.2000122
1447.138537	661.7999878
1447.663174	657.4000244
1448.187756	661.7999878
1448.712282	661.0
1449.236754	663.5999756
1449.761171	657.7999878
1450.285532	660.0
1450.809839	658.7999878
1451.33409	659.5999756
1451.858287	659.7999878
1452.382428	658.5999756
1452.906515	661.4000244
1453.430546	660.2000122
1453.954523	660.5999756
1454.478444	657.5999756
1455.002311	658.5999756
1455.526123	662.2000122
1456.049879	658.5999756
1456.573581	660.0
1457.097227	659.7999878
1457.620819	659.4000244
1458.144356	660.2000122
1458.667837	661.4000244
1459.191264	657.5999756
1459.714636	660.5999756
1460.237952	661.4000244
1460.761214	660.0
1461.284421	659.4000244
1461.807573	661.4000244
1462.33067	659.2000122
1462.853712	660.2000122
1463.376699	661.5999756
1463.899632	663.0
1464.422509	659.0
1464.945331	659.4000244
1465.468099	660.2000122
1465.990811	656.4000244
1466.513469	658.7999878
1467.036071	658.5999756
1467.558619	660.4000244
1468.081112	658.4000244
1468.60355	659.0
1469.125933	662.7999878
1469.648261	659.5999756
1470.170534	661.5999756
1470.692752	659.2000122
1471.214916	657.5999756
1471.737024	658.2000122
1472.259078	659.5999756
1472.781077	658.0
1473.303021	661.0
1473.82491	662.2000122
1474.346744	658.7999878
1474.868523	658.4000244
1475.390248	661.4000244
1475.911917	657.5999756
1476.433532	661.0
1476.955092	658.7999878
1477.476597	659.4000244
1477.998047	658.5999756
1478.519442	660.5999756
1479.040783	658.5999756
1479.562068	659.5999756
1480.083299	661.0
1480.604475	658.2000122
1481.125596	660.0
1481.646663	661.0
1482.167674	659.4000244
1482.688631	658.7999878
1483.209533	658.0
1483.73038	657.0
1484.251172	660.7999878
1484.771909	659.2000122
1485.292592	660.4000244
1485.81322	660.0
1486.333793	660.5999756
1486.854311	658.2000122
1487.374775	658.2000122
1487.895183	660.2000122
1488.415537	659.5999756
1488.935836	661.7999878
1489.456081	657.5999756
1489.97627	659.2000122
1490.496405	659.0
1491.016485	659.2000122
1491.536511	660.0
1492.056481	658.2000122
1492.576397	659.0
1493.096258	658.5999756
1493.616064	659.5999756
1494.135816	660.0
1494.655513	658.4000244
1495.175155	659.2000122
1495.694742	658.2000122
1496.214274	659.7999878
1496.733752	658.0
1497.253175	659.2000122
1497.772544	658.0
1498.291858	661.4000244
1498.811116	658.5999756
1499.330321	660.0
1499.84947	667.0
1500.368565	661.0
1500.887605	661.2000122
1501.406591	658.5999756
1501.925521	656.4000244
1502.444397	658.7999878
1502.963219	660.4000244
1503.481985	660.2000122
1504.000697	656.5999756
1504.519355	659.4000244
1505.037957	659.2000122
1505.556505	658.4000244
1506.074999	659.5999756
1506.593437	659.4000244
1507.111821	659.2000122
1507.63015	658.7999878
1508.148425	658.5999756
1508.666645	657.2000122
1509.18481	659.0
1509.702921	659.5999756
1510.220977	659.4000244
1510.738979	665.7999878
1511.256925	658.5999756
1511.774817	661.2000122
1512.292655	659.7999878
1512.810438	657.4000244
1513.328166	657.5999756
1513.84584	656.4000244
1514.363459	659.5999756
1514.881023	661.4000244
1515.398533	659.4000244
1515.915988	658.2000122
1516.433389	660.0
1516.950734	658.7999878
1517.468026	661.4000244
1517.985263	658.2000122
1518.502445	658.7999878
1519.019572	657.0
1519.536645	658.0
1520.053664	659.0
1520.570628	655.5999756
1521.087537	658.5999756
1521.604392	659.4000244
1522.121192	658.7999878
1522.637937	658.2000122
1523.154628	661.0
1523.671265	657.0
1524.187847	659.5999756
1524.704374	657.4000244
1525.220847	659.7999878
1525.737265	658.0
1526.253629	660.5999756
1526.769938	659.2000122
1527.286192	657.4000244
1527.802392	655.5999756
1528.318538	656.7999878
1528.834629	658.5999756
1529.350666	658.0
1529.866648	657.7999878
1530.382575	660.4000244
1530.898448	657.5999756
1531.414266	658.2000122
1531.93003	657.4000244
1532.44574	658.4000244
1532.961395	658.0
1533.476995	657.5999756
1533.992541	656.5999756
1534.508033	659.5999756
1535.02347	661.2000122
1535.538852	658.4000244
1536.05418	657.2000122
1536.569454	658.5999756
1537.084673	659.2000122
1537.599837	657.0
1538.114947	659.7999878
1538.630003	657.4000244
1539.145004	658.7999878
1539.659951	659.0
1540.174843	656.5999756
1540.689681	655.4000244
1541.204465	657.5999756
1541.719194	656.0
1542.233868	658.4000244
1542.748488	658.4000244
1543.263054	658.4000244
1543.777565	661.0
1544.292022	656.7999878
1544.806424	659.5999756
1545.320772	657.2000122
1545.835066	657.4000244
1546.349305	658.2000122
1546.863489	655.7999878
1547.37762	657.7999878
1547.891696	658.7999878
1548.405717	660.4000244
1548.919684	658.5999756
1549.433597	659.7999878
1549.947455	658.0
1550.461259	660.0
1550.975009	656.7999878
1551.488704	658.5999756
1552.002345	660.2000122
1552.515931	656.7999878
1553.029463	657.7999878
1553.542941	657.7999878
1554.056364	658.2000122
1554.569733	658.2000122
1555.083048	659.7999878
1555.596308	657.5999756
1556.109514	658.0
1556.622665	657.4000244
1557.135762	657.0
1557.648805	657.7999878
1558.161794	657.5999756
1558.674728	658.5999756
1559.187608	660.2000122
1559.700433	658.7999878
1560.213205	655.4000244
1560.725921	658.5999756
1561.238584	658.0
1561.751192	659.7999878
1562.263746	659.4000244
1562.776246	659.7999878
1563.288691	656.5999756
1563.801082	658.7999878
1564.313419	657.7999878
1564.825701	658.0
1565.337929	659.5999756
1565.850103	654.2000122
1566.362223	658.0
1566.874288	657.4000244
1567.386299	658.7999878
1567.898256	659.0
1568.410158	660.0
1568.922007	657.4000244
1569.4338	660.4000244
1569.94554	658.4000244
1570.457226	657.5999756
1570.968857	659.2000122
1571.480434	657.0
1571.991956	659.2000122
1572.503425	659.5999756
1573.014839	657.2000122
1573.526199	658.2000122
1574.037505	658.4000244
1574.548756	658.0
1575.059953	657.2000122
1575.571096	658.5999756
1576.082185	656.7999878
1576.59322	657.7999878
1577.1042	658.4000244
1577.615126	658.5999756
1578.125998	657.2000122
1578.636816	658.4000244
1579.14758	660.2000122
1579.658289	657.2000122
1580.168944	657.0
1580.679545	658.2000122
1581.190092	659.0
1581.700585	658.7999878
1582.211023	659.2000122
1582.721407	658.4000244
1583.231737	660.4000244
1583.742013	659.0
1584.252235	659.0
1584.762403	657.0
1585.272516	657.7999878
1585.782575	656.2000122
1586.292581	657.2000122
1586.802532	658.2000122
1587.312428	659.5999756
1587.822271	659.2000122
1588.33206	657.2000122
1588.841794	657.7999878
1589.351474	659.7999878
1589.8611	656.0
1590.370672	658.0
1590.88019	660.0
1591.389654	655.5999756
1591.899064	657.2000122
1592.408419	654.0
