1042.414189	779.5999756
1042.980685	776.4000244
1043.547124	774.2000122
1044.113505	775.5999756
1044.679828	777.2000122
1045.246093	780.4000244
1045.8123	776.4000244
1046.378449	771.2000122
1046.94454	777.4000244
1047.510573	781.2000122
1048.076548	769.2000122
1048.642465	777.4000244
1049.208325	773.4000244
1049.774126	779.7999878
1050.339869	766.2000122
1050.905555	776.2000122
1051.471183	769.2000122
1052.036752	775.4000244
1052.602264	772.7999878
1053.167718	765.2000122
1053.733114	777.2000122
1054.298452	766.4000244
1054.863733	773.0
1055.428955	769.4000244
1055.994119	771.0
1056.559226	772.4000244
1057.124275	764.0
1057.689266	768.7999878
1058.254199	766.7999878
1058.819074	771.7999878
1059.383891	766.4000244
1059.94865	768.0
1060.513352	768.7999878
1061.077996	773.0
1061.642582	770.7999878
1062.20711	768.2000122
1062.77158	773.5999756
1063.335992	768.4000244
1063.900347	772.5999756
1064.464643	764.4000244
1065.028882	772.0
1065.593063	768.7999878
1066.157187	769.4000244
1066.721252	767.5999756
1067.28526	770.5999756
1067.84921	772.0
1068.413102	761.5999756
1068.976936	770.0
1069.540713	770.4000244
1070.104431	778.4000244
1070.668092	766.4000244
1071.231696	767.7999878
1071.795241	769.0
1072.358729	768.7999878
1072.922159	765.5999756
1073.485531	770.4000244
1074.048845	769.5999756
1074.612102	771.0
1075.175301	771.7999878
1075.738442	769.7999878
1076.301525	765.7999878
1076.864551	771.7999878
1077.427519	772.0
1077.990429	764.4000244
1078.553281	768.5999756
1079.116076	767.2000122
1079.678813	766.2000122
1080.241492	769.4000244
1080.804114	768.7999878
1081.366678	768.4000244
1081.929184	774.2000122
1082.491633	767.2000122
1083.054024	773.7999878
1083.616357	770.0
1084.178632	776.2000122
1084.74085	772.2000122
1085.30301	773.0
1085.865113	770.0
1086.427158	764.7999878
1086.989145	773.0
1087.551074	770.7999878
1088.112946	768.0
1088.67476	766.7999878
1089.236517	772.4000244
1089.798216	766.7999878
1090.359857	769.5999756
1090.92144	770.2000122
1091.482966	773.5999756
1092.044435	769.4000244
1092.605845	771.2000122
1093.167199	771.4000244
1093.728494	772.5999756
1094.289732	768.7999878
1094.850912	769.0
1095.412035	783.0
1095.9731	765.7999878
1096.534107	762.2000122
1097.095057	771.5999756
1097.65595	766.5999756
1098.216784	772.5999756
1098.777561	765.4000244
1099.338281	764.5999756
1099.898943	773.7999878
1100.459547	769.2000122
1101.020094	764.4000244
1101.580584	765.5999756
1102.141015	763.5999756
1102.701389	763.0
1103.261706	768.5999756
1103.821965	763.5999756
1104.382167	766.2000122
1104.942311	766.7999878
1105.502397	765.4000244
1106.062426	768.4000244
1106.622398	758.0
1107.182312	764.4000244
1107.742168	769.5999756
1108.301967	769.0
1108.861708	759.2000122
1109.421392	765.4000244
1109.981019	765.7999878
1110.540587	766.2000122
1111.100099	766.4000244
1111.659553	772.0
1112.218949	765.0
1112.778288	769.0
1113.33757	763.5999756
1113.896794	762.2000122
1114.45596	768.2000122
1115.015069	764.0
1115.574121	763.5999756
1116.133115	770.0
1116.692052	770.5999756
1117.250931	769.7999878
1117.809753	763.4000244
1118.368517	763.0
1118.927224	760.7999878
1119.485873	766.7999878
1120.044465	765.2000122
1120.603	769.5999756
1121.161477	766.0
1121.719897	765.4000244
1122.278259	765.4000244
1122.836564	770.2000122
1123.394812	765.5999756
1123.953002	768.2000122
1124.511135	762.0
1125.06921	769.5999756
1125.627228	772.7999878
1126.185189	767.4000244
1126.743092	766.4000244
1127.300938	766.0
1127.858726	764.2000122
1128.416457	766.2000122
1128.974131	767.5999756
1129.531748	768.0
1130.089307	769.7999878
1130.646808	769.5999756
1131.204252	764.0
1131.761639	760.7999878
1132.318969	765.2000122
1132.876241	766.5999756
1133.433456	765.0
1133.990614	765.0
1134.547714	768.5999756
1135.104757	765.2000122
1135.661743	765.2000122
1136.218671	760.5999756
1136.775542	767.2000122
1137.332356	763.5999756
1137.889112	770.2000122
1138.445811	769.4000244
1139.002453	766.2000122
1139.559037	772.0
1140.115565	764.7999878
1140.672035	768.7999878
1141.228447	771.4000244
1141.784803	770.4000244
1142.341101	767.4000244
1142.897342	771.4000244
1143.453525	769.4000244
1144.009651	768.4000244
1144.565721	768.7999878
1145.121732	764.4000244
1145.677687	765.7999878
1146.233584	768.7999878
1146.789424	773.7999878
1147.345207	768.7999878
1147.900933	771.0
1148.456601	776.4000244
1149.012212	768.7999878
1149.567766	763.4000244
1150.123263	766.2000122
1150.678702	769.7999878
1151.234085	773.0
1151.78941	771.5999756
1152.344678	762.5999756
1152.899888	769.2000122
1153.455042	763.5999756
1154.010138	767.4000244
1154.565177	771.0
1155.120159	768.2000122
1155.675084	770.7999878
1156.229951	765.4000244
1156.784762	769.5999756
1157.339515	766.7999878
1157.894211	767.5999756
1158.44885	771.4000244
1159.003432	770.0
1159.557956	769.0
1160.112424	771.4000244
1160.666834	763.7999878
1161.221187	767.4000244
1161.775483	771.4000244
1162.329722	771.5999756
1162.883904	765.7999878
1163.438029	772.0
1163.992096	771.7999878
1164.546107	766.5999756
1165.10006	770.4000244
1165.653956	772.0
1166.207795	768.7999878
1166.761577	767.7999878
1167.315302	771.4000244
1167.86897	766.2000122
1168.422581	772.5999756
1168.976134	773.2000122
1169.529631	770.2000122
1170.08307	767.4000244
1170.636453	770.5999756
1171.189778	769.0
1171.743046	770.0
1172.296257	763.7999878
1172.849412	767.7999878
1173.402509	770.0
1173.955549	764.0
1174.508532	769.2000122
1175.061458	770.2000122
1175.614327	761.0
1176.167138	772.7999878
1176.719893	766.2000122
1177.272591	763.2000122
1177.825232	774.7999878
1178.377816	770.5999756
1178.930342	773.2000122
1179.482812	769.2000122
1180.035225	771.4000244
1180.587581	768.4000244
1181.139879	778.0
1181.692121	768.5999756
1182.244306	770.7999878
1182.796434	764.0
1183.348504	768.0
1183.900518	768.4000244
1184.452475	766.2000122
1185.004375	770.0
1185.556218	770.7999878
1186.108004	771.5999756
1186.659733	772.7999878
1187.211405	768.4000244
1187.76302	769.7999878
1188.314578	762.5999756
1188.866079	767.5999756
1189.417523	767.0
1189.96891	769.2000122
1190.520241	776.0
1191.071514	771.0
1191.622731	774.4000244
1192.17389	770.5999756
1192.724993	768.2000122
1193.276039	777.7999878
1193.827027	774.5999756
1194.377959	767.4000244
1194.928834	766.5999756
1195.479653	775.2000122
1196.030414	768.0
1196.581118	769.0
1197.131766	767.7999878
1197.682356	771.4000244
1198.23289	768.2000122
1198.783367	764.5999756
1199.333786	765.5999756
1199.88415	768.5999756
1200.434456	772.2000122
1200.984705	777.4000244
1201.534898	776.5999756
1202.085033	769.4000244
1202.635112	764.0
1203.185134	765.7999878
1203.735099	774.2000122
1204.285007	766.0
1204.834859	772.4000244
1205.384653	769.7999878
1205.934391	772.5999756
1206.484072	770.4000244
1207.033696	769.7999878
1207.583263	775.0
1208.132774	766.5999756
1208.682228	768.2000122
1209.231624	770.4000244
1209.780965	769.0
1210.330248	776.5999756
1210.879474	771.0
1211.428644	765.2000122
1211.977757	765.7999878
1212.526813	769.0
1213.075813	765.5999756
1213.624755	771.4000244
1214.173641	769.4000244
1214.72247	771.5999756
1215.271242	769.0
1215.819958	767.7999878
1216.368617	769.5999756
1216.917219	765.0
1217.465764	769.0
1218.014253	777.2000122
1218.562685	767.7999878
1219.11106	770.2000122
1219.659378	775.2000122
1220.20764	771.5999756
1220.755845	770.5999756
1221.303993	776.5999756
1221.852085	773.7999878
1222.400119	770.7999878
1222.948097	773.5999756
1223.496019	770.4000244
1224.043883	770.5999756
1224.591691	766.0
1225.139443	770.4000244
1225.687137	772.2000122
1226.234775	769.7999878
1226.782357	768.2000122
1227.329881	770.7999878
1227.877349	767.5999756
1228.42476	767.5999756
1228.972115	769.5999756
1229.519413	766.0
1230.066654	770.5999756
1230.613839	771.4000244
1231.160967	768.2000122
1231.708038	769.5999756
1232.255053	772.2000122
1232.802011	771.4000244
1233.348912	771.5999756
1233.895757	767.5999756
1234.442545	767.0
1234.989277	767.4000244
1235.535951	771.2000122
1236.08257	769.0
1236.629131	769.5999756
1237.175636	770.0
1237.722085	765.7999878
1238.268477	772.5999756
1238.814812	770.2000122
1239.361091	769.5999756
1239.907313	771.5999756
1240.453478	771.4000244
1240.999587	768.2000122
1241.54564	767.2000122
1242.091636	773.4000244
1242.637575	763.7999878
1243.183457	773.7999878
1243.729284	780.0
1244.275053	777.5999756
1244.820766	771.5999756
1245.366423	775.2000122
1245.912022	772.2000122
1246.457566	768.5999756
1247.003053	771.0
1247.548483	761.2000122
1248.093857	774.4000244
1248.639174	772.0
1249.184435	770.4000244
1249.729639	761.2000122
1250.274787	770.2000122
1250.819878	769.4000244
1251.364912	776.7999878
1251.909891	772.7999878
1252.454812	771.2000122
1252.999677	773.2000122
1253.544486	770.4000244
1254.089238	770.4000244
1254.633934	771.5999756
1255.178573	771.7999878
1255.723156	767.5999756
1256.267682	777.0
1256.812152	772.0
1257.356565	779.5999756
1257.900922	781.4000244
1258.445223	771.5999756
1258.989467	780.4000244
1259.533654	782.5999756
1260.077785	789.4000244
1260.62186	779.4000244
1261.165878	796.7999878
1261.70984	792.5999756
1262.253745	790.7999878
1262.797594	802.4000244
1263.341386	792.2000122
1263.885123	791.7999878
1264.428802	783.0
1264.972425	781.0
1265.515992	778.0
1266.059503	783.0
1266.602957	779.5999756
1267.146354	783.0
1267.689696	773.7999878
1268.23298	784.7999878
1268.776209	776.0
1269.319381	784.4000244
1269.862497	780.7999878
1270.405556	779.5999756
1270.948559	782.7999878
1271.491506	777.2000122
1272.034396	778.4000244
1272.57723	782.5999756
1273.120007	777.2000122
1273.662728	776.5999756
1274.205393	779.0
1274.748002	778.4000244
1275.290554	784.4000244
1275.83305	785.5999756
1276.375489	779.7999878
1276.917872	789.0
1277.460199	787.2000122
1278.00247	783.4000244
1278.544684	783.2000122
1279.086842	803.4000244
1279.628943	805.0
1280.170989	821.5999756
1280.712978	840.5999756
1281.25491	897.0
1281.796787	1018.799988
1282.338607	1192.599976
1282.880371	1285.400024
1283.422078	1167.400024
1283.963729	1005.0
1284.505324	897.2000122
1285.046863	837.7999878
1285.588345	812.2000122
1286.129772	807.5999756
1286.671142	790.2000122
1287.212455	791.4000244
1287.753713	786.5999756
1288.294914	788.4000244
1288.836059	783.7999878
1289.377147	784.0
1289.91818	778.0
1290.459156	776.5999756
1291.000076	781.7999878
1291.54094	776.5999756
1292.081747	782.0
1292.622499	777.7999878
1293.163194	775.4000244
1293.703833	773.4000244
1294.244415	779.4000244
1294.784942	783.4000244
1295.325412	780.5999756
1295.865826	782.2000122
1296.406184	777.4000244
1296.946486	773.5999756
1297.486731	774.0
1298.026921	777.0
1298.567054	776.7999878
1299.107131	777.7999878
1299.647152	773.5999756
1300.187116	776.5999756
1300.727025	780.0
1301.266877	771.0
1301.806673	772.0
1302.346413	771.4000244
1302.886097	777.4000244
1303.425725	774.2000122
1303.965297	778.5999756
1304.504812	774.5999756
1305.044272	774.0
1305.583675	767.7999878
1306.123022	773.7999878
1306.662313	775.7999878
1307.201548	772.4000244
1307.740727	777.0
1308.279849	775.0
1308.818916	766.7999878
1309.357926	780.7999878
1309.896881	774.7999878
1310.435779	776.7999878
1310.974621	770.4000244
1311.513407	765.2000122
1312.052137	771.7999878
1312.590811	774.5999756
1313.129429	773.2000122
1313.667991	768.4000244
1314.206497	771.2000122
1314.744946	769.5999756
1315.28334	775.5999756
1315.821678	773.4000244
1316.359959	773.4000244
1316.898184	774.2000122
1317.436354	774.5999756
1317.974467	774.4000244
1318.512525	769.4000244
1319.050526	774.2000122
1319.588471	767.0
1320.12636	776.2000122
1320.664194	766.4000244
1321.201971	768.7999878
1321.739692	771.5999756
1322.277357	774.0
1322.814967	774.0
1323.35252	770.4000244
1323.890017	775.0
1324.427458	768.7999878
1324.964843	775.4000244
1325.502173	766.4000244
1326.039446	772.4000244
1326.576663	765.5999756
1327.113824	779.0
1327.65093	766.0
1328.187979	769.2000122
1328.724972	775.7999878
1329.26191	776.7999878
1329.798791	772.2000122
1330.335617	771.4000244
1330.872386	775.2000122
1331.4091	772.0
1331.945758	763.5999756
1332.48236	773.4000244
1333.018905	773.0
1333.555395	770.2000122
1334.091829	776.7999878
1334.628207	777.0
1335.164529	771.5999756
1335.700796	773.4000244
1336.237006	768.2000122
1336.77316	771.4000244
1337.309259	768.4000244
1337.845301	774.0
1338.381288	769.7999878
1338.917219	773.5999756
1339.453094	768.7999878
1339.988913	776.5999756
1340.524676	768.7999878
1341.060383	776.0
1341.596034	776.4000244
1342.13163	773.0
1342.66717	767.0
1343.202653	768.2000122
1343.738081	774.5999756
1344.273453	769.2000122
1344.80877	775.2000122
1345.34403	770.2000122
1345.879235	771.0
1346.414383	776.5999756
1346.949476	773.4000244
1347.484513	771.4000244
1348.019494	770.7999878
1348.55442	768.7999878
1349.089289	765.5999756
1349.624103	771.4000244
1350.158861	776.4000244
1350.693563	771.5999756
1351.228209	765.5999756
1351.7628	770.4000244
1352.297334	772.0
1352.831813	771.4000244
1353.366236	772.0
1353.900604	773.2000122
1354.434915	779.0
1354.969171	776.0
1355.503371	770.4000244
1356.037515	769.4000244
1356.571604	771.5999756
1357.105636	771.7999878
1357.639613	768.5999756
1358.173535	767.7999878
1358.7074	768.5999756
1359.24121	775.4000244
1359.774964	772.5999756
1360.308662	773.7999878
1360.842304	771.2000122
1361.375891	772.0
1361.909422	781.2000122
1362.442897	770.4000244
1362.976317	765.4000244
1363.50968	777.2000122
1364.042989	772.7999878
1364.576241	773.7999878
1365.109438	784.0
1365.642579	781.2000122
1366.175664	774.5999756
1366.708693	768.0
1367.241667	772.5999756
1367.774585	783.0
1368.307448	776.0
1368.840255	782.0
1369.373006	789.4000244
1369.905701	795.2000122
1370.438341	784.5999756
1370.970925	777.4000244
1371.503454	770.7999878
1372.035926	777.5999756
1372.568344	777.7999878
1373.100705	776.4000244
1373.633011	779.7999878
1374.165261	778.7999878
1374.697456	778.0
1375.229595	779.4000244
1375.761678	782.2000122
1376.293705	776.4000244
1376.825677	782.0
1377.357594	784.7999878
1377.889455	783.5999756
1378.42126	778.0
1378.953009	782.2000122
1379.484703	785.2000122
1380.016342	783.0
1380.547924	783.5999756
1381.079452	789.5999756
1381.610923	793.0
1382.142339	793.7999878
1382.673699	793.2000122
1383.205004	803.4000244
1383.736253	810.4000244
1384.267447	821.5999756
1384.798585	855.4000244
1385.329668	890.2000122
1385.860695	978.0
1386.391666	1184.0
1386.922582	1608.400024
1387.453442	1844.400024
1387.984247	1516.0
1388.514996	1126.400024
1389.04569	935.2000122
1389.576328	866.5999756
1390.10691	831.2000122
1390.637437	817.2000122
1391.167909	801.0
1391.698325	795.0
1392.228685	792.5999756
1392.75899	797.0
1393.28924	784.7999878
1393.819434	783.0
1394.349572	778.2000122
1394.879655	784.7999878
1395.409683	782.7999878
1395.939655	786.4000244
1396.469571	781.0
1396.999432	774.7999878
1397.529237	787.0
1398.058987	785.0
1398.588682	779.7999878
1399.118321	787.4000244
1399.647905	778.4000244
1400.177433	779.7999878
1400.706906	781.2000122
1401.236323	778.4000244
1401.765685	782.7999878
1402.294991	777.7999878
1402.824242	777.5999756
1403.353437	784.4000244
1403.882577	780.4000244
1404.411662	782.5999756
1404.940691	780.4000244
1405.469665	792.2000122
1405.998583	791.5999756
1406.527446	791.2000122
1407.056253	803.2000122
1407.585005	809.2000122
1408.113702	809.5999756
1408.642343	811.4000244
1409.170929	809.2000122
1409.69946	811.2000122
1410.227935	796.7999878
1410.756354	792.2000122
1411.284719	792.2000122
1411.813028	781.4000244
1412.341281	784.2000122
1412.869479	779.0
1413.397622	768.4000244
1413.92571	778.7999878
1414.453742	773.5999756
1414.981718	772.0
1415.50964	790.7999878
1416.037506	772.4000244
1416.565316	770.2000122
1417.093072	777.0
1417.620772	778.2000122
1418.148416	776.4000244
1418.676005	768.5999756
1419.203539	772.4000244
1419.731018	773.0
1420.258441	773.5999756
1420.785809	778.2000122
1421.840379	780.2000122
1422.367582	772.2000122
1422.894728	770.2000122
1423.42182	770.2000122
1423.948856	771.4000244
1424.475837	770.2000122
1425.002762	772.5999756
1425.529633	772.2000122
1426.056448	771.5999756
1426.583207	773.2000122
1427.109912	766.2000122
1427.636561	769.5999756
1428.163155	767.2000122
1428.689694	769.5999756
1429.216177	767.5999756
1429.742605	771.7999878
1430.268978	770.0
1430.795296	768.0
1431.321558	769.0
1431.847765	770.4000244
1432.373917	763.5999756
1432.900014	767.0
1433.426056	772.4000244
1433.952042	763.4000244
1434.477973	767.4000244
1435.003849	768.2000122
1435.529669	766.5999756
1436.055435	770.0
1436.581145	769.2000122
1437.1068	769.7999878
1437.632399	765.5999756
1438.157944	769.5999756
1438.683433	771.0
1439.208868	770.0
1439.734247	765.4000244
1440.25957	772.2000122
1440.784839	764.4000244
1441.310053	769.2000122
1441.835211	763.4000244
1442.360314	765.0
1442.885362	768.4000244
1443.410355	764.4000244
1443.935292	769.0
1444.460175	765.5999756
1444.985002	768.4000244
1445.509774	762.5999756
1446.034491	774.2000122
1446.559153	774.7999878
1447.08376	773.5999756
1447.608312	768.2000122
1448.132808	763.4000244
1448.65725	768.2000122
1449.181636	774.5999756
1449.705967	761.2000122
1450.230243	764.7999878
1450.754464	770.0
1451.27863	767.4000244
1451.802741	770.0
1452.326797	764.4000244
1452.850797	767.5999756
1453.374743	766.5999756
1453.898633	770.2000122
1454.422468	763.7999878
1454.946249	766.4000244
1455.469974	767.4000244
1455.993644	770.4000244
1456.517259	767.5999756
1457.040819	759.7999878
1457.564324	776.4000244
1458.087773	764.5999756
1458.611168	772.4000244
1459.134508	765.0
1459.657793	763.5999756
1460.181022	770.4000244
1460.704197	762.5999756
1461.227316	768.7999878
1461.750381	769.0
1462.27339	762.2000122
1462.796345	775.2000122
1463.319244	775.7999878
1463.842089	767.0
1464.364878	764.4000244
1464.887613	764.4000244
1465.410292	767.7999878
1465.932916	764.7999878
1466.455486	768.0
1466.978	763.4000244
1467.50046	766.0
1468.022864	769.7999878
1468.545214	759.5999756
1469.067508	765.5999756
1469.589748	769.2000122
1470.111932	764.5999756
1470.634062	763.4000244
1471.156136	762.5999756
1471.678156	765.4000244
1472.20012	760.4000244
1472.72203	764.7999878
1473.243885	768.0
1473.765685	770.0
1474.28743	766.7999878
1474.80912	764.0
1475.330755	767.5999756
1475.852335	762.4000244
1476.37386	756.4000244
1476.89533	764.2000122
1477.416745	766.7999878
1477.938106	767.5999756
1478.459411	758.4000244
1478.980662	762.7999878
1479.501857	765.0
1480.022998	764.5999756
1480.544084	766.5999756
1481.065115	764.5999756
1481.586091	762.4000244
1482.107012	758.4000244
1482.627878	763.7999878
1483.14869	761.2000122
1483.669446	767.4000244
1484.190148	766.0
1484.710794	760.5999756
1485.231386	765.7999878
1485.751923	756.7999878
1486.272406	766.2000122
1486.792833	762.0
1487.313205	767.7999878
1487.833523	760.4000244
1488.353786	764.7999878
1488.873994	765.4000244
1489.394147	767.7999878
1489.914245	762.0
1490.434288	767.0
1490.954277	761.0
1491.474211	757.0
1491.99409	761.5999756
1492.513914	763.2000122
1493.033683	760.2000122
1493.553398	767.4000244
1494.073057	762.7999878
1494.592662	761.5999756
1495.112212	758.0
1495.631708	760.7999878
1496.151148	761.0
1496.670534	765.2000122
1497.189865	758.2000122
1497.709141	763.5999756
1498.228362	762.0
1498.747529	763.5999756
1499.266641	759.7999878
1499.785698	769.7999878
1500.3047	766.5999756
1500.823648	761.4000244
1501.34254	767.0
1501.861379	763.7999878
1502.380162	754.7999878
1502.89889	759.7999878
1503.417564	767.2000122
1503.936183	762.0
1504.454748	762.2000122
1504.973257	764.0
1505.491712	763.5999756
1506.010112	761.2000122
1506.528458	763.0
1507.046748	765.0
1507.564984	764.0
1508.083166	762.2000122
1508.601292	763.7999878
1509.119364	760.4000244
1509.637381	760.7999878
1510.155344	765.5999756
1510.673252	766.7999878
1511.191105	759.2000122
1511.708903	765.4000244
1512.226647	763.7999878
1512.744336	764.7999878
1513.261971	765.2000122
1513.77955	761.7999878
1514.297076	765.5999756
1514.814546	761.5999756
1515.331962	762.4000244
1515.849323	765.2000122
1516.366629	760.2000122
1516.883881	760.2000122
1517.401078	764.4000244
1517.918221	762.5999756
1518.435309	756.4000244
1518.952342	764.5999756
1519.469321	763.2000122
1519.986245	759.0
1520.503114	763.7999878
1521.019929	761.0
1521.536689	764.2000122
1522.053395	761.5999756
1522.570046	764.0
1523.086642	762.7999878
1523.603184	762.5999756
1524.119671	763.4000244
1524.636103	760.5999756
1525.152481	761.2000122
1525.668805	762.7999878
1526.185073	759.4000244
1526.701288	763.0
1527.217447	770.5999756
1527.733552	758.4000244
1528.249603	764.7999878
1528.765599	758.7999878
1529.28154	759.5999756
1529.797427	762.0
1530.313259	763.0
1530.829037	764.5999756
1531.34476	761.2000122
1531.860429	766.0
1532.376043	760.7999878
1532.891602	766.0
1533.407107	763.0
1533.922558	757.0
1534.437954	757.2000122
1534.953295	763.4000244
1535.468582	761.0
1535.983815	764.0
1536.498993	760.7999878
1537.014116	761.2000122
1537.529185	756.7999878
1538.044199	759.2000122
1538.559159	767.5999756
1539.074064	763.7999878
1539.588915	763.0
1540.103712	762.4000244
1540.618454	762.0
1541.133141	770.4000244
1541.647774	763.4000244
1542.162353	763.4000244
1542.676877	759.4000244
1543.191346	762.4000244
1543.705761	762.4000244
1544.220122	768.7999878
1544.734428	762.7999878
1545.24868	764.4000244
1545.762877	767.0
1546.27702	766.5999756
1546.791109	765.0
1547.305143	762.7999878
1547.819122	763.4000244
1548.333047	764.4000244
1548.846918	765.5999756
1549.360734	763.5999756
1549.874496	767.7999878
1550.388204	765.7999878
1550.901857	762.5999756
1551.415455	759.2000122
1551.929	758.2000122
1552.442489	764.5999756
1552.955925	762.2000122
1553.469306	759.7999878
1553.982632	758.5999756
1554.495905	763.5999756
1555.009123	762.5999756
1555.522286	764.5999756
1556.035395	763.5999756
1556.54845	761.4000244
1557.06145	766.2000122
1557.574396	764.0
1558.087288	761.4000244
1558.600125	773.4000244
1559.112908	762.5999756
1559.625637	764.0
1560.138311	756.0
1560.650931	761.2000122
1561.163497	759.7999878
1561.676008	762.7999878
1562.188465	764.7999878
1562.700867	763.7999878
1563.213216	763.2000122
1563.725509	763.5999756
1564.237749	761.5999756
1564.749934	762.2000122
1565.262065	759.2000122
1565.774142	763.2000122
1566.286164	763.0
1566.798132	763.0
1567.310046	762.5999756
1567.821906	763.7999878
1568.333711	767.4000244
1568.845462	762.0
1569.357158	760.2000122
1569.868801	759.7999878
1570.380389	768.4000244
1570.891922	763.0
1571.403402	761.5999756
1571.914827	763.0
1572.426198	761.5999756
1572.937515	763.5999756
1573.448777	760.4000244
1573.959985	766.0
1574.471139	758.7999878
1574.982239	771.5999756
1575.493285	758.7999878
1576.004276	766.5999756
1576.515213	761.4000244
1577.026096	759.4000244
1577.536924	757.2000122
1578.047698	757.2000122
1578.558419	763.2000122
1579.069084	760.0
1579.579696	760.7999878
1580.090254	763.2000122
1580.600757	761.0
1581.111206	766.5999756
1581.621601	762.4000244
1582.131941	763.4000244
1582.642228	764.7999878
1583.15246	763.5999756
1583.662638	764.2000122
1584.172762	761.0
1584.682832	763.7999878
1585.192847	758.4000244
1585.702809	760.5999756
1586.212716	761.5999756
1586.722569	767.2000122
1587.232368	761.4000244
1587.742113	760.7999878
1588.251803	765.0
1588.76144	765.0
1589.271022	765.2000122
1589.78055	752.4000244
1590.290024	762.0
1590.799444	768.2000122
1591.30881	756.0
1591.818121	755.2000122
1592.327379	762.7999878
