1042.414189	713.75
1042.980685	720.75
1043.547124	720.5
1044.113505	718.5
1044.679828	714.5
1045.246093	709.25
1045.8123	715.25
1046.378449	713.0
1046.94454	713.25
1047.510573	711.5
1048.076548	713.0
1048.642465	713.25
1049.208325	708.75
1049.774126	714.5
1050.339869	714.75
1050.905555	712.75
1051.471183	705.5
1052.036752	707.5
1052.602264	709.75
1053.167718	713.0
1053.733114	708.0
1054.298452	709.5
1054.863733	711.0
1055.428955	709.75
1055.994119	713.25
1056.559226	713.75
1057.124275	709.0
1057.689266	705.0
1058.254199	705.75
1058.819074	705.5
1059.383891	710.0
1059.94865	707.75
1060.513352	705.5
1061.077996	711.25
1061.642582	709.5
1062.20711	703.75
1062.77158	707.5
1063.335992	708.5
1063.900347	707.75
1064.464643	709.75
1065.028882	707.75
1065.593063	706.5
1066.157187	700.75
1066.721252	708.0
1067.28526	705.75
1067.84921	713.25
1068.413102	704.75
1068.976936	706.0
1069.540713	708.0
1070.104431	717.75
1070.668092	713.0
1071.231696	707.0
1071.795241	708.25
1072.358729	708.75
1072.922159	705.5
1073.485531	708.75
1074.048845	704.0
1074.612102	707.5
1075.175301	709.5
1075.738442	705.0
1076.301525	706.0
1076.864551	705.0
1077.427519	705.25
1077.990429	707.75
1078.553281	706.5
1079.116076	705.75
1079.678813	703.0
1080.241492	708.5
1080.804114	706.75
1081.366678	707.5
1081.929184	704.5
1082.491633	709.75
1083.054024	707.5
1083.616357	703.0
1084.178632	705.75
1084.74085	708.25
1085.30301	704.75
1085.865113	704.75
1086.427158	708.0
1086.989145	709.25
1087.551074	708.5
1088.112946	706.75
1088.67476	709.75
1089.236517	709.0
1089.798216	710.0
1090.359857	702.5
1090.92144	712.25
1091.482966	707.5
1092.044435	705.75
1092.605845	713.5
1093.167199	711.75
1093.728494	706.25
1094.289732	707.75
1094.850912	714.0
1095.412035	720.0
1095.9731	712.0
1096.534107	710.0
1097.095057	719.75
1097.65595	705.75
1098.216784	706.0
1098.777561	704.25
1099.338281	704.75
1099.898943	705.75
1100.459547	708.75
1101.020094	706.75
1101.580584	709.0
1102.141015	709.0
1102.701389	705.75
1103.261706	706.75
1103.821965	713.0
1104.382167	708.0
1104.942311	713.75
1105.502397	707.75
1106.062426	708.5
1106.622398	704.5
1107.182312	706.0
1107.742168	715.5
1108.301967	708.25
1108.861708	705.75
1109.421392	711.5
1109.981019	707.0
1110.540587	707.0
1111.100099	708.25
1111.659553	709.75
1112.218949	710.5
1112.778288	708.5
1113.33757	709.75
1113.896794	706.5
1114.45596	708.75
1115.015069	707.75
1115.574121	703.25
1116.133115	706.75
1116.692052	710.0
1117.250931	710.0
1117.809753	707.25
1118.368517	711.0
1118.927224	707.25
1119.485873	708.0
1120.044465	706.0
1120.603	706.0
1121.161477	709.75
1121.719897	710.75
1122.278259	709.5
1122.836564	705.0
1123.394812	703.25
1123.953002	708.0
1124.511135	705.25
1125.06921	710.5
1125.627228	708.25
1126.185189	712.5
1126.743092	707.5
1127.300938	709.0
1127.858726	710.75
1128.416457	713.5
1128.974131	716.5
1129.531748	716.5
1130.089307	709.25
1130.646808	708.5
1131.204252	712.75
1131.761639	711.5
1132.318969	709.5
1132.876241	709.75
1133.433456	707.5
1133.990614	709.0
1134.547714	709.25
1135.104757	708.5
1135.661743	706.5
1136.218671	709.0
1136.775542	710.25
1137.332356	707.75
1137.889112	712.75
1138.445811	706.5
1139.002453	708.0
1139.559037	704.25
1140.115565	706.5
1140.672035	709.25
1141.228447	706.5
1141.784803	709.5
1142.341101	707.0
1142.897342	710.75
1143.453525	712.0
1144.009651	706.5
1144.565721	708.5
1145.121732	710.0
1145.677687	713.5
1146.233584	712.0
1146.789424	709.25
1147.345207	713.75
1147.900933	710.25
1148.456601	710.25
1149.012212	708.0
1149.567766	711.25
1150.123263	708.75
1150.678702	715.75
1151.234085	712.25
1151.78941	712.0
1152.344678	708.5
1152.899888	708.0
1153.455042	708.5
1154.010138	711.5
1154.565177	706.25
1155.120159	710.25
1155.675084	709.5
1156.229951	711.0
1156.784762	712.0
1157.339515	708.25
1157.894211	712.0
1158.44885	708.75
1159.003432	708.0
1159.557956	711.25
1160.112424	711.0
1160.666834	711.25
1161.221187	712.25
1161.775483	712.75
1162.329722	711.0
1162.883904	710.5
1163.438029	708.0
1163.992096	712.5
1164.546107	712.25
1165.10006	706.25
1165.653956	714.25
1166.207795	712.25
1166.761577	709.0
1167.315302	710.25
1167.86897	715.0
1168.422581	716.0
1168.976134	713.0
1169.529631	708.75
1170.08307	710.5
1170.636453	713.25
1171.189778	714.25
1171.743046	710.5
1172.296257	708.25
1172.849412	709.0
1173.402509	711.5
1173.955549	708.25
1174.508532	712.75
1175.061458	710.5
1175.614327	706.0
1176.167138	708.25
1176.719893	705.75
1177.272591	707.5
1177.825232	714.25
1178.377816	714.0
1178.930342	709.5
1179.482812	711.5
1180.035225	717.0
1180.587581	716.25
1181.139879	708.5
1181.692121	708.0
1182.244306	711.5
1182.796434	712.75
1183.348504	712.25
1183.900518	716.0
1184.452475	715.5
1185.004375	715.75
1185.556218	714.25
1186.108004	711.0
1186.659733	717.25
1187.211405	711.25
1187.76302	711.75
1188.314578	711.25
1188.866079	714.75
1189.417523	715.25
1189.96891	713.25
1190.520241	712.75
1191.071514	712.75
1191.622731	716.0
1192.17389	710.0
1192.724993	717.25
1193.276039	738.75
1193.827027	716.75
1194.377959	710.5
1194.928834	717.75
1195.479653	713.25
1196.030414	713.0
1196.581118	710.5
1197.131766	713.75
1197.682356	710.75
1198.23289	710.75
1198.783367	712.0
1199.333786	716.0
1199.88415	720.75
1200.434456	713.25
1200.984705	716.5
1201.534898	707.75
1202.085033	715.5
1202.635112	713.25
1203.185134	711.5
1203.735099	707.75
1204.285007	712.75
1204.834859	709.0
1205.384653	716.75
1205.934391	715.5
1206.484072	713.5
1207.033696	712.25
1207.583263	715.75
1208.132774	716.25
1208.682228	709.25
1209.231624	712.0
1209.780965	707.0
1210.330248	715.5
1210.879474	711.5
1211.428644	717.25
1211.977757	719.75
1212.526813	715.5
1213.075813	716.5
1213.624755	714.75
1214.173641	713.25
1214.72247	717.25
1215.271242	715.5
1215.819958	719.0
1216.368617	715.25
1216.917219	714.25
1217.465764	716.5
1218.014253	715.25
1218.562685	716.5
1219.11106	713.25
1219.659378	721.0
1220.20764	713.0
1220.755845	716.0
1221.303993	718.5
1221.852085	716.5
1222.400119	717.75
1222.948097	713.25
1223.496019	714.75
1224.043883	719.25
1224.591691	715.0
1225.139443	714.75
1225.687137	716.25
1226.234775	715.25
1226.782357	713.5
1227.329881	719.75
1227.877349	718.5
1228.42476	719.0
1228.972115	714.5
1229.519413	721.25
1230.066654	714.5
1230.613839	714.0
1231.160967	713.0
1231.708038	715.5
1232.255053	718.25
1232.802011	711.0
1233.348912	711.75
1233.895757	722.25
1234.442545	719.5
1234.989277	718.5
1235.535951	714.0
1236.08257	720.25
1236.629131	714.75
1237.175636	723.0
1237.722085	712.25
1238.268477	715.5
1238.814812	712.5
1239.361091	716.25
1239.907313	722.75
1240.453478	716.5
1240.999587	719.75
1241.54564	720.0
1242.091636	715.75
1242.637575	718.25
1243.183457	721.75
1243.729284	714.25
1244.275053	716.0
1244.820766	723.0
1245.366423	721.25
1245.912022	714.5
1246.457566	720.0
1247.003053	721.75
1247.548483	715.25
1248.093857	719.5
1248.639174	717.75
1249.184435	720.75
1249.729639	715.75
1250.274787	719.75
1250.819878	720.25
1251.364912	717.0
1251.909891	718.0
1252.454812	716.75
1252.999677	721.0
1253.544486	718.5
1254.089238	719.0
1254.633934	718.25
1255.178573	714.0
1255.723156	720.5
1256.267682	717.5
1256.812152	718.75
1257.356565	718.0
1257.900922	721.0
1258.445223	719.75
1258.989467	713.0
1259.533654	719.5
1260.077785	729.25
1260.62186	714.25
1261.165878	723.5
1261.70984	723.25
1262.253745	725.5
1262.797594	719.25
1263.341386	723.75
1263.885123	721.0
1264.428802	726.5
1264.972425	724.25
1265.515992	719.25
1266.059503	724.0
1266.602957	718.0
1267.146354	718.5
1267.689696	719.5
1268.23298	721.25
1268.776209	726.25
1269.319381	723.25
1269.862497	723.25
1270.405556	721.75
1270.948559	719.25
1271.491506	725.25
1272.034396	720.0
1272.57723	725.5
1273.120007	714.25
1273.662728	724.0
1274.205393	720.0
1274.748002	718.75
1275.290554	725.25
1275.83305	724.5
1276.375489	722.25
1276.917872	718.25
1277.460199	722.25
1278.00247	718.5
1278.544684	719.0
1279.086842	725.0
1279.628943	724.25
1280.170989	724.0
1280.712978	726.25
1281.25491	722.0
1281.796787	723.75
1282.338607	728.5
1282.880371	734.25
1283.422078	743.0
1283.963729	774.25
1284.505324	812.0
1285.046863	827.75
1285.588345	790.0
1286.129772	752.25
1286.671142	731.75
1287.212455	727.5
1287.753713	723.75
1288.294914	724.5
1288.836059	725.75
1289.377147	724.25
1289.91818	722.75
1290.459156	719.5
1291.000076	726.5
1291.54094	725.5
1292.081747	721.75
1292.622499	725.0
1293.163194	721.25
1293.703833	722.0
1294.244415	719.25
1294.784942	718.75
1295.325412	724.25
1295.865826	721.25
1296.406184	724.25
1296.946486	720.75
1297.486731	723.25
1298.026921	720.0
1298.567054	718.5
1299.107131	718.75
1299.647152	720.5
1300.187116	719.5
1300.727025	718.0
1301.266877	721.25
1301.806673	727.75
1302.346413	721.5
1302.886097	725.0
1303.425725	718.0
1303.965297	724.5
1304.504812	723.25
1305.044272	724.75
1305.583675	722.5
1306.123022	718.25
1306.662313	721.5
1307.201548	721.0
1307.740727	720.5
1308.279849	718.0
1308.818916	723.5
1309.357926	726.75
1309.896881	726.5
1310.435779	724.25
1310.974621	717.5
1311.513407	724.75
1312.052137	717.5
1312.590811	723.0
1313.129429	723.75
1313.667991	721.75
1314.206497	721.75
1314.744946	723.25
1315.28334	720.75
1315.821678	725.0
1316.359959	724.25
1316.898184	726.0
1317.436354	720.25
1317.974467	717.0
1318.512525	724.0
1319.050526	719.25
1319.588471	726.25
1320.12636	727.25
1320.664194	725.25
1321.201971	720.75
1321.739692	717.5
1322.277357	724.75
1322.814967	728.0
1323.35252	718.25
1323.890017	727.75
1324.427458	724.0
1324.964843	721.25
1325.502173	726.5
1326.039446	717.75
1326.576663	723.75
1327.113824	722.25
1327.65093	725.0
1328.187979	723.75
1328.724972	729.25
1329.798791	721.75
1330.335617	722.0
1330.872386	728.25
1331.4091	724.75
1331.945758	725.75
1332.48236	720.75
1333.018905	722.75
1333.555395	728.0
1334.091829	728.0
1334.628207	722.0
1335.164529	723.75
1335.700796	724.5
1336.237006	718.25
1336.77316	729.0
1337.309259	722.25
1337.845301	720.25
1338.381288	724.75
1338.917219	722.25
1339.453094	725.75
1339.988913	727.5
1340.524676	722.25
1341.060383	723.0
1341.596034	727.75
1342.13163	729.75
1342.66717	730.75
1343.202653	723.75
1343.738081	727.5
1344.273453	723.5
1344.80877	715.25
1345.34403	722.25
1345.879235	730.75
1346.414383	724.75
1346.949476	723.75
1347.484513	726.0
1348.019494	728.25
1348.55442	727.75
1349.089289	717.0
1349.624103	723.25
1350.158861	729.5
1350.693563	724.0
1351.228209	721.75
1351.7628	730.75
1352.297334	722.0
1352.831813	724.75
1353.366236	729.0
1353.900604	726.25
1354.434915	723.5
1354.969171	726.0
1355.503371	724.25
1356.037515	724.5
1356.571604	725.25
1357.105636	725.5
1357.639613	722.25
1358.173535	724.5
1358.7074	725.25
1359.24121	729.0
1359.774964	729.0
1360.308662	728.0
1360.842304	726.0
1361.375891	730.0
1361.909422	732.75
1362.442897	726.25
1362.976317	729.5
1363.50968	729.0
1364.042989	724.75
1364.576241	723.5
1365.109438	724.5
1365.642579	726.75
1366.175664	727.75
1366.708693	730.5
1367.241667	726.0
1367.774585	727.5
1368.307448	726.25
1368.840255	733.5
1369.373006	726.5
1369.905701	731.25
1370.438341	729.25
1370.970925	733.75
1371.503454	731.5
1372.035926	727.75
1372.568344	729.5
1373.100705	731.75
1373.633011	731.5
1374.165261	724.5
1374.697456	729.25
1375.229595	724.75
1375.761678	729.5
1376.293705	727.0
1376.825677	732.5
1377.357594	732.0
1377.889455	732.75
1378.42126	732.0
1378.953009	727.75
1379.484703	733.0
1380.016342	731.25
1380.547924	728.75
1381.079452	728.5
1381.610923	730.25
1382.142339	736.0
1382.673699	732.75
1383.205004	729.5
1383.736253	736.0
1384.267447	733.75
1384.798585	734.75
1385.329668	733.75
1385.860695	733.0
1386.391666	743.25
1386.922582	750.5
1387.453442	778.5
1387.984247	864.0
1388.514996	956.0
1389.04569	881.25
1389.576328	785.5
1390.10691	745.0
1390.637437	742.75
1391.167909	735.0
1391.698325	734.0
1392.228685	732.0
1392.75899	734.25
1393.28924	733.75
1393.819434	733.5
1394.349572	730.25
1394.879655	733.5
1395.409683	734.0
1395.939655	735.25
1396.469571	729.25
1396.999432	733.25
1397.529237	731.75
1398.058987	735.5
1398.588682	729.0
1399.118321	735.25
1399.647905	731.0
1400.177433	731.75
1400.706906	731.0
1401.236323	731.75
1401.765685	738.25
1402.294991	730.5
1402.824242	732.25
1403.353437	734.75
1403.882577	731.5
1404.411662	728.5
1404.940691	730.75
1405.469665	734.25
1405.998583	730.75
1406.527446	730.5
1407.056253	735.25
1407.585005	742.0
1408.113702	732.25
1408.642343	735.5
1409.170929	739.5
1409.69946	744.5
1410.227935	739.75
1410.756354	742.0
1411.284719	734.5
1411.813028	741.0
1412.341281	730.5
1412.869479	739.0
1413.397622	735.25
1413.92571	735.75
1414.453742	735.75
1414.981718	735.5
1415.50964	744.25
1416.037506	738.25
1416.565316	732.75
1417.093072	727.75
1417.620772	730.75
1418.148416	736.25
1418.676005	734.25
1419.203539	735.5
1419.731018	734.75
1420.258441	735.0
1420.785809	730.5
1421.313122	731.5
1421.840379	737.25
1422.367582	736.25
1422.894728	737.75
1423.42182	735.5
1423.948856	735.25
1424.475837	735.25
1425.002762	739.0
1425.529633	733.75
1426.056448	736.5
1426.583207	736.5
1427.109912	735.0
1427.636561	736.75
1428.163155	736.75
1428.689694	732.5
1429.216177	735.0
1429.742605	737.5
1430.268978	732.75
1430.795296	733.0
1431.321558	743.0
1431.847765	735.5
1432.373917	737.75
1432.900014	736.25
1433.426056	735.75
1433.952042	739.5
1434.477973	735.25
1435.003849	736.75
1435.529669	734.5
1436.055435	733.5
1436.581145	733.0
1437.1068	727.5
1437.632399	736.5
1438.157944	735.5
1438.683433	737.25
1439.208868	735.5
1439.734247	731.5
1440.25957	737.0
1440.784839	737.25
1441.310053	736.75
1441.835211	735.0
1442.360314	742.75
1442.885362	738.5
1443.410355	734.75
1443.935292	736.25
1444.460175	738.0
1444.985002	736.25
1445.509774	738.0
1446.034491	734.0
1446.559153	741.5
1447.08376	736.25
1447.608312	735.75
1448.132808	743.0
1448.65725	741.25
1449.181636	741.75
1449.705967	732.25
1450.230243	738.75
1450.754464	738.0
1451.27863	735.75
1451.802741	736.25
1452.326797	733.75
1452.850797	743.75
1453.374743	740.0
1453.898633	735.75
1454.422468	735.75
1454.946249	743.75
1455.469974	740.5
1455.993644	733.5
1456.517259	738.0
1457.040819	741.25
1457.564324	735.75
1458.087773	736.0
1458.611168	739.25
1459.134508	739.25
1459.657793	738.25
1460.181022	743.5
1460.704197	735.25
1461.227316	742.25
1461.750381	744.0
1462.27339	747.5
1462.796345	744.5
1463.319244	766.0
1463.842089	743.5
1464.364878	743.75
1464.887613	733.75
1465.410292	741.75
1465.932916	738.5
1466.455486	735.75
1466.978	737.0
1467.50046	741.0
1468.022864	741.5
1468.545214	742.0
1469.067508	741.0
1469.589748	741.75
1470.111932	741.25
1470.634062	739.5
1471.156136	737.25
1471.678156	740.25
1472.20012	738.0
1472.72203	745.0
1473.243885	743.25
1473.765685	742.5
1474.28743	736.25
1474.80912	745.25
1475.330755	740.25
1475.852335	731.25
1476.37386	740.25
1476.89533	741.75
1477.416745	742.0
1477.938106	738.5
1478.459411	741.5
1478.980662	737.25
1479.501857	739.75
1480.022998	734.75
1480.544084	738.75
1481.065115	741.0
1481.586091	737.0
1482.107012	738.25
1482.627878	745.75
1483.14869	740.75
1483.669446	744.0
1484.190148	741.25
1484.710794	743.25
1485.231386	738.25
1485.751923	745.25
1486.272406	744.0
1486.792833	741.0
1487.313205	740.75
1487.833523	740.75
1488.353786	742.5
1488.873994	742.25
1489.394147	739.25
1489.914245	738.5
1490.434288	742.0
1490.954277	744.0
1491.474211	745.75
1491.99409	738.5
1492.513914	743.0
1493.033683	741.5
1493.553398	745.0
1494.073057	739.5
1494.592662	740.5
1495.112212	742.75
1495.631708	739.25
1496.151148	741.25
1496.670534	738.0
1497.189865	739.75
1497.709141	742.25
1498.228362	739.25
1498.747529	746.25
1499.266641	744.0
1499.785698	750.0
1500.3047	751.0
1500.823648	738.25
1501.34254	745.25
1501.861379	742.25
1502.380162	746.5
1502.89889	747.25
1503.417564	747.25
1503.936183	742.25
1504.454748	753.25
1504.973257	745.75
1505.491712	745.0
1506.010112	742.75
1506.528458	746.0
1507.046748	751.25
1507.564984	746.0
1508.083166	740.5
1508.601292	743.75
1509.119364	744.0
1509.637381	745.25
1510.155344	744.25
1510.673252	758.5
1511.191105	748.75
1511.708903	742.25
1512.226647	743.75
1512.744336	749.75
1513.261971	745.25
1513.77955	744.75
1514.297076	744.0
1514.814546	741.5
1515.331962	749.0
1515.849323	748.0
1516.366629	747.25
1516.883881	738.75
1517.401078	743.0
1517.918221	744.5
1518.435309	749.75
1518.952342	748.25
1519.469321	750.75
1519.986245	747.75
1520.503114	746.25
1521.019929	743.0
1521.536689	745.0
1522.053395	749.25
1522.570046	746.25
1523.086642	751.25
1523.603184	750.5
1524.119671	749.5
1524.636103	743.75
1525.152481	747.25
1525.668805	750.0
1526.185073	757.25
1526.701288	749.5
1527.217447	745.75
1527.733552	748.0
1528.249603	743.5
1528.765599	746.0
1529.28154	742.5
1529.797427	750.75
1530.313259	750.25
1530.829037	747.75
1531.34476	744.5
1531.860429	748.75
1532.376043	748.5
1532.891602	748.25
1533.407107	743.5
1533.922558	747.25
1534.437954	750.5
1534.953295	748.5
1535.468582	746.25
1535.983815	748.0
1536.498993	746.0
1537.014116	746.5
1537.529185	746.75
1538.044199	747.25
1538.559159	750.25
1539.074064	744.25
1539.588915	749.5
1540.103712	751.0
1540.618454	748.25
1541.133141	749.75
1541.647774	747.75
1542.162353	750.5
1542.676877	749.75
1543.191346	751.75
1543.705761	741.75
1544.220122	756.0
1544.734428	744.0
1545.24868	750.5
1545.762877	745.75
1546.27702	752.0
1546.791109	755.5
1547.305143	753.25
1547.819122	753.75
1548.333047	755.5
1548.846918	746.0
1549.360734	750.25
1549.874496	749.5
1550.388204	748.5
1550.901857	753.25
1551.415455	749.25
1551.929	750.75
1552.442489	753.5
1552.955925	754.25
1553.469306	752.25
1553.982632	746.0
1554.495905	752.75
1555.009123	751.25
1555.522286	748.5
1556.035395	751.0
1556.54845	752.75
1557.06145	759.25
1557.574396	757.75
1558.087288	750.75
1558.600125	756.0
1559.112908	748.75
1559.625637	751.25
1560.138311	758.75
1560.650931	751.0
1561.163497	748.75
1561.676008	754.25
1562.188465	754.75
1562.700867	749.25
1563.213216	762.25
1563.725509	749.5
1564.237749	752.0
1564.749934	757.0
1565.262065	755.5
1565.774142	755.5
1566.286164	756.0
1566.798132	763.5
1567.310046	752.0
1567.821906	759.75
1568.333711	752.75
1568.845462	752.75
1569.357158	774.75
1570.380389	755.5
1570.891922	749.5
1571.403402	751.25
1571.914827	753.25
1572.426198	756.75
1572.937515	754.5
1573.448777	759.0
1573.959985	757.5
1574.471139	750.75
1574.982239	754.5
1575.493285	757.75
1576.004276	754.5
1576.515213	752.25
1577.026096	760.0
1577.536924	755.5
1578.047698	763.5
1578.558419	758.25
1579.069084	763.25
1579.579696	753.5
1580.090254	754.5
1580.600757	756.75
1581.111206	757.75
1581.621601	756.75
1582.131941	756.75
1582.642228	755.5
1583.15246	757.0
1583.662638	765.5
1584.172762	760.0
1584.682832	758.25
1585.192847	752.0
1585.702809	756.25
1586.212716	761.25
1586.722569	753.5
1587.232368	759.75
1587.742113	755.5
1588.251803	756.75
1588.76144	756.5
1589.271022	755.5
1589.78055	754.5
1590.290024	755.25
1590.799444	757.25
1591.30881	751.5
1591.818121	758.5
1592.327379	757.25
