1042.414189	687.5
1042.980685	684.25
1043.547124	685.75
1044.113505	684.5
1044.679828	682.0
1045.246093	685.25
1045.8123	683.0
1046.378449	679.25
1046.94454	684.25
1047.510573	680.0
1048.076548	683.25
1048.642465	679.75
1049.208325	682.0
1049.774126	681.5
1050.339869	680.25
1050.905555	679.25
1051.471183	681.0
1052.036752	678.0
1052.602264	681.75
1053.167718	680.25
1053.733114	681.0
1054.298452	679.25
1054.863733	680.75
1055.428955	683.5
1055.994119	681.5
1056.559226	682.0
1057.124275	683.25
1057.689266	679.75
1058.254199	681.25
1058.819074	679.5
1059.383891	679.5
1059.94865	683.25
1060.513352	681.0
1061.077996	683.75
1061.642582	687.5
1062.20711	682.0
1062.77158	685.75
1063.335992	682.75
1063.900347	686.25
1064.464643	689.0
1065.028882	690.5
1065.593063	686.5
1066.157187	692.25
1066.721252	691.5
1067.28526	694.75
1067.84921	696.5
1068.413102	699.0
1068.976936	695.75
1069.540713	704.25
1070.104431	710.0
1070.668092	703.0
1071.231696	706.75
1071.795241	704.0
1072.358729	712.5
1072.922159	714.5
1073.485531	716.75
1074.048845	716.75
1074.612102	723.5
1075.175301	728.5
1075.738442	732.0
1076.301525	737.25
1076.864551	738.25
1077.427519	751.5
1077.990429	756.0
1078.553281	762.5
1079.116076	773.25
1079.678813	775.25
1080.241492	787.25
1080.804114	801.25
1081.366678	807.25
1081.929184	821.75
1082.491633	841.25
1083.054024	844.75
1083.616357	871.75
1084.178632	885.25
1084.74085	910.5
1085.30301	917.25
1085.865113	952.0
1086.427158	966.75
1086.989145	983.25
1087.551074	1010.5
1088.112946	1037.5
1088.67476	1038.75
1089.236517	1094.5
1089.798216	1106.0
1090.359857	1127.5
1090.92144	1145.75
1091.482966	1161.0
1092.044435	1180.0
1092.605845	1193.0
1093.167199	1206.75
1093.728494	1214.75
1094.289732	1197.5
1094.850912	1191.75
1095.412035	1201.5
1095.9731	1172.5
1096.534107	1136.0
1097.095057	1130.75
1097.65595	1101.0
1098.216784	1055.25
1098.777561	1029.25
1099.338281	1005.75
1099.898943	979.75
1100.459547	958.75
1101.020094	927.0
1101.580584	907.5
1102.141015	889.5
1102.701389	859.0
1103.261706	849.75
1103.821965	831.25
1104.382167	814.0
1104.942311	807.0
1105.502397	792.75
1106.062426	780.0
1106.622398	770.5
1107.182312	761.5
1107.742168	746.25
1108.301967	750.0
1108.861708	736.5
1109.421392	731.5
1109.981019	725.75
1110.540587	718.5
1111.100099	718.0
1111.659553	713.5
1112.218949	706.75
1112.778288	711.5
1113.33757	702.25
1113.896794	699.75
1114.45596	701.5
1115.015069	694.75
1115.574121	693.25
1116.133115	692.0
1116.692052	686.75
1117.250931	685.25
1117.809753	683.75
1118.368517	684.75
1118.927224	682.0
1119.485873	686.25
1120.044465	676.75
1120.603	677.0
1121.161477	677.5
1121.719897	678.25
1122.278259	678.75
1122.836564	677.0
1123.394812	681.5
1123.953002	675.75
1124.511135	678.0
1125.06921	674.0
1125.627228	676.25
1126.185189	680.0
1126.743092	683.75
1127.300938	683.5
1127.858726	684.5
1128.416457	689.75
1128.974131	694.0
1129.531748	691.75
1130.089307	693.0
1130.646808	685.5
1131.204252	682.5
1131.761639	674.75
1132.318969	676.0
1132.876241	672.0
1133.433456	673.25
1133.990614	669.5
1134.547714	667.5
1135.104757	669.75
1135.661743	668.5
1136.218671	670.75
1136.775542	669.0
1137.332356	668.25
1137.889112	665.75
1138.445811	668.0
1139.002453	669.75
1139.559037	665.0
1140.115565	668.75
1140.672035	667.75
1141.228447	666.75
1141.784803	665.25
1142.341101	666.25
1142.897342	667.5
1143.453525	666.25
1144.009651	668.0
1144.565721	670.25
1145.121732	667.75
1145.677687	669.75
1146.233584	666.5
1146.789424	667.75
1147.345207	668.5
1147.900933	664.75
1148.456601	665.5
1149.012212	664.5
1149.567766	665.75
1150.123263	667.75
1150.678702	662.75
1151.234085	668.25
1151.78941	663.25
1152.344678	664.0
1152.899888	665.75
1153.455042	665.75
1154.010138	665.0
1154.565177	668.5
1155.120159	667.25
1155.675084	666.75
1156.229951	662.0
1156.784762	667.25
1157.339515	666.5
1157.894211	664.5
1158.44885	665.25
1159.003432	667.0
1159.557956	668.25
1160.112424	666.5
1160.666834	669.25
1161.221187	671.5
1161.775483	667.5
1162.329722	666.25
1162.883904	666.0
1163.438029	666.0
1163.992096	667.0
1164.546107	666.0
1165.10006	665.75
1165.653956	663.75
1166.207795	661.0
1166.761577	663.25
1167.315302	662.0
1167.86897	665.0
1168.422581	663.25
1168.976134	661.25
1169.529631	665.25
1170.08307	662.5
1170.636453	664.5
1171.189778	666.25
1171.743046	663.0
1172.296257	663.25
1172.849412	664.75
1173.402509	664.5
1173.955549	664.5
1174.508532	664.5
1175.061458	665.25
1175.614327	664.25
1176.167138	663.25
1176.719893	663.25
1177.272591	664.5
1177.825232	665.25
1178.377816	660.5
1178.930342	662.0
1179.482812	663.0
1180.035225	663.75
1180.587581	663.0
1181.139879	662.75
1181.692121	667.0
1182.244306	663.5
1182.796434	664.75
1183.348504	660.5
1183.900518	664.75
1184.452475	662.5
1185.004375	665.5
1185.556218	662.5
1186.108004	661.75
1186.659733	666.5
1187.211405	665.5
1187.76302	664.5
1188.314578	663.0
1188.866079	666.0
1189.417523	663.5
1189.96891	668.0
1190.520241	661.5
1191.071514	662.5
1191.622731	665.75
1192.17389	660.5
1192.724993	663.0
1193.276039	682.0
1193.827027	662.5
1194.377959	664.5
1194.928834	663.5
1195.479653	662.75
1196.030414	664.5
1196.581118	663.25
1197.131766	660.5
1197.682356	661.25
1198.23289	661.75
1198.783367	664.5
1199.333786	663.0
1199.88415	663.75
1200.434456	662.5
1200.984705	663.5
1201.534898	664.0
1202.085033	665.0
1202.635112	663.0
1203.185134	663.25
1203.735099	664.5
1204.285007	664.25
1204.834859	662.0
1205.384653	662.25
1205.934391	661.5
1206.484072	663.0
1207.033696	664.0
1207.583263	664.0
1208.132774	659.25
1208.682228	664.25
1209.231624	663.25
1209.780965	665.75
1210.330248	661.25
1210.879474	664.25
1211.428644	662.0
1211.977757	665.0
1212.526813	663.5
1213.075813	665.25
1213.624755	663.25
1214.173641	662.75
1214.72247	664.75
1215.271242	663.5
1215.819958	661.75
1216.368617	662.25
1216.917219	664.0
1217.465764	665.75
1218.014253	662.25
1218.562685	664.75
1219.11106	661.0
1219.659378	662.0
1220.20764	664.75
1220.755845	663.75
1221.303993	665.5
1221.852085	661.0
1222.400119	659.75
1222.948097	665.25
1223.496019	664.75
1224.043883	663.5
1224.591691	663.75
1225.139443	663.25
1225.687137	662.25
1226.234775	664.0
1226.782357	661.5
1227.329881	663.25
1227.877349	662.5
1228.42476	664.25
1228.972115	664.75
1229.519413	661.75
1230.066654	665.75
1230.613839	663.25
1231.160967	663.0
1231.708038	662.5
1232.255053	666.5
1232.802011	663.75
1233.348912	670.5
1234.989277	663.0
1235.535951	664.0
1236.08257	663.0
1236.629131	663.5
1237.175636	664.0
1237.722085	661.5
1238.268477	665.0
1238.814812	663.0
1239.361091	664.25
1239.907313	662.75
1240.453478	664.75
1240.999587	664.25
1241.54564	663.5
1242.091636	663.0
1242.637575	667.0
1243.183457	664.75
1243.729284	664.25
1244.275053	663.75
1244.820766	664.25
1245.366423	664.75
1245.912022	661.75
1246.457566	666.25
1247.003053	664.5
1247.548483	663.5
1248.093857	664.75
1248.639174	663.25
1249.184435	665.25
1249.729639	665.75
1250.274787	661.75
1250.819878	664.75
1251.364912	662.25
1251.909891	663.75
1252.454812	668.5
1252.999677	663.75
1253.544486	665.0
1254.089238	665.0
1254.633934	664.75
1255.178573	664.5
1255.723156	663.75
1256.267682	661.75
1256.812152	664.75
1257.356565	667.5
1257.900922	662.5
1258.445223	662.75
1258.989467	666.0
1259.533654	666.0
1260.077785	678.25
1260.62186	664.75
1261.165878	663.25
1261.70984	667.25
1262.253745	666.5
1262.797594	666.25
1263.341386	670.25
1263.885123	670.5
1264.428802	672.5
1264.972425	673.5
1265.515992	670.25
1266.059503	671.75
1266.602957	667.25
1267.146354	666.0
1267.689696	664.25
1268.23298	664.75
1268.776209	663.5
1269.319381	664.75
1269.862497	667.0
1270.405556	666.25
1270.948559	663.0
1271.491506	668.75
1272.034396	663.75
1272.57723	666.5
1273.120007	666.75
1273.662728	665.25
1274.205393	667.75
1274.748002	661.25
1275.290554	669.25
1275.83305	665.75
1276.375489	668.0
1276.917872	667.0
1277.460199	665.0
1278.00247	667.25
1278.544684	668.75
1279.086842	667.75
1279.628943	668.5
1280.170989	670.0
1280.712978	669.25
1281.25491	670.0
1281.796787	674.0
1282.338607	675.75
1282.880371	687.0
1283.422078	701.5
1283.963729	730.75
1284.505324	780.5
1285.046863	816.25
1285.588345	766.75
1286.129772	712.75
1286.671142	683.25
1287.212455	674.25
1287.753713	671.75
1288.294914	666.5
1288.836059	670.0
1289.377147	668.5
1289.91818	668.0
1290.459156	666.0
1291.000076	669.0
1291.54094	668.5
1292.081747	667.75
1292.622499	665.25
1293.163194	665.25
1293.703833	664.5
1294.244415	666.25
1294.784942	667.0
1295.325412	664.5
1295.865826	664.75
1296.406184	664.5
1296.946486	662.75
1297.486731	665.75
1298.026921	665.75
1298.567054	665.0
1299.107131	664.5
1299.647152	661.0
1300.187116	666.0
1300.727025	665.0
1301.266877	664.25
1301.806673	663.5
1302.346413	664.0
1302.886097	665.5
1303.425725	664.75
1303.965297	664.25
1304.504812	662.75
1305.044272	666.25
1305.583675	664.0
1306.123022	666.25
1306.662313	663.0
1307.201548	662.0
1307.740727	663.25
1308.279849	667.0
1308.818916	663.5
1309.357926	663.25
1309.896881	661.5
1310.435779	663.75
1310.974621	666.0
1311.513407	666.0
1312.052137	665.0
1312.590811	665.25
1313.129429	662.75
1313.667991	662.25
1314.206497	663.25
1314.744946	662.75
1315.28334	662.75
1315.821678	662.25
1316.359959	665.25
1316.898184	665.5
1317.436354	662.25
1317.974467	666.25
1318.512525	665.0
1319.050526	663.25
1319.588471	664.5
1320.12636	665.5
1320.664194	663.75
1321.201971	664.5
1321.739692	664.5
1322.277357	664.25
1322.814967	662.75
1323.35252	662.75
1323.890017	670.0
1324.427458	662.5
1324.964843	661.75
1325.502173	664.25
1326.039446	664.75
1326.576663	665.75
1327.113824	665.5
1327.65093	669.0
1328.187979	665.5
1328.724972	664.75
1329.26191	665.75
1329.798791	663.5
1330.335617	664.75
1330.872386	664.5
1331.4091	666.0
1331.945758	666.5
1332.48236	665.0
1333.018905	666.0
1333.555395	665.25
1334.091829	665.25
1334.628207	666.25
1335.164529	665.5
1335.700796	664.0
1336.237006	663.75
1336.77316	665.0
1337.309259	665.25
1337.845301	662.5
1338.381288	662.75
1338.917219	661.5
1339.453094	666.0
1339.988913	666.5
1340.524676	663.5
1341.060383	664.0
1341.596034	665.0
1342.13163	663.75
1342.66717	666.75
1343.202653	666.0
1343.738081	662.75
1344.273453	667.0
1344.80877	667.25
1345.34403	662.25
1345.879235	663.25
1346.414383	663.0
1346.949476	664.5
1347.484513	662.25
1348.019494	663.0
1348.55442	662.75
1349.089289	662.75
1349.624103	665.5
1350.158861	664.25
1350.693563	663.5
1351.228209	662.0
1351.7628	662.75
1352.297334	663.75
1352.831813	662.75
1353.366236	666.0
1353.900604	666.5
1354.434915	664.75
1354.969171	664.75
1355.503371	664.5
1356.037515	661.5
1356.571604	662.5
1357.105636	665.75
1357.639613	662.5
1358.173535	665.5
1358.7074	666.25
1359.24121	665.0
1359.774964	663.5
1360.308662	667.25
1360.842304	662.5
1361.375891	664.0
1361.909422	660.75
1362.442897	665.5
1362.976317	665.25
1363.50968	663.25
1364.042989	665.75
1364.576241	665.25
1365.109438	666.75
1365.642579	666.75
1366.175664	666.25
1366.708693	667.0
1367.241667	667.75
1367.774585	668.25
1368.307448	668.0
1368.840255	667.0
1369.373006	664.75
1369.905701	665.5
1370.438341	671.25
1370.970925	663.75
1371.503454	664.75
1372.035926	663.75
1372.568344	665.0
1373.100705	666.0
1373.633011	666.0
1374.165261	664.0
1374.697456	667.0
1375.229595	666.5
1375.761678	666.5
1376.293705	663.5
1376.825677	669.75
1377.357594	668.5
1377.889455	666.5
1378.42126	665.25
1378.953009	669.75
1379.484703	668.75
1380.016342	669.25
1380.547924	669.25
1381.079452	670.5
1381.610923	672.0
1382.142339	669.25
1382.673699	673.5
1383.205004	674.0
1383.736253	674.5
1384.267447	673.25
1384.798585	676.0
1385.329668	675.0
1385.860695	681.25
1386.391666	685.25
1386.922582	704.75
1387.453442	740.5
1387.984247	843.5
1388.514996	966.0
1389.04569	887.0
1389.576328	742.75
1390.10691	693.25
1390.637437	679.75
1391.167909	675.75
1391.698325	668.25
1392.228685	670.0
1392.75899	668.25
1393.28924	669.0
1393.819434	671.0
1394.349572	664.5
1394.879655	666.0
1395.409683	666.5
1395.939655	665.75
1396.469571	666.75
1396.999432	667.25
1397.529237	664.25
1398.058987	666.0
1398.588682	666.5
1399.118321	667.5
1399.647905	665.25
1400.177433	666.0
1400.706906	668.75
1401.236323	667.25
1401.765685	667.75
1402.294991	667.5
1402.824242	668.0
1403.353437	664.5
1403.882577	666.0
1404.411662	666.5
1404.940691	665.25
1405.469665	668.25
1405.998583	667.5
1406.527446	665.0
1407.056253	668.75
1407.585005	669.25
1408.113702	669.0
1408.642343	676.0
1409.170929	675.25
1409.69946	679.0
1410.227935	684.5
1410.756354	676.5
1411.284719	670.25
1411.813028	669.0
1412.341281	668.75
1412.869479	667.75
1413.397622	666.0
1413.92571	667.0
1414.453742	668.0
1414.981718	663.75
1415.50964	674.0
1416.037506	665.75
1416.565316	662.75
1417.093072	664.0
1417.620772	663.25
1418.148416	665.25
1418.676005	667.25
1419.203539	666.0
1419.731018	666.25
1420.258441	665.25
1420.785809	666.0
1421.313122	665.75
1421.840379	664.25
1422.367582	666.25
1422.894728	669.0
1423.42182	667.25
1423.948856	663.75
1424.475837	664.0
1425.002762	663.0
1425.529633	666.75
1426.056448	668.25
1426.583207	665.25
1427.109912	662.0
1427.636561	667.5
1428.163155	666.0
1428.689694	662.25
1429.216177	665.5
1429.742605	663.75
1430.268978	665.5
1430.795296	662.25
1431.321558	667.0
1431.847765	664.25
1432.373917	669.5
1432.900014	664.0
1433.426056	664.0
1433.952042	667.75
1434.477973	665.5
1435.003849	665.75
1435.529669	665.25
1436.055435	662.0
1436.581145	663.5
1437.1068	663.5
1437.632399	665.0
1438.157944	662.75
1438.683433	664.0
1439.208868	665.0
1439.734247	666.75
1440.25957	666.25
1440.784839	668.0
1441.310053	664.0
1441.835211	666.5
1442.360314	665.5
1442.885362	667.75
1443.410355	663.75
1443.935292	668.25
1444.460175	668.25
1444.985002	669.5
1445.509774	671.75
1446.034491	669.25
1446.559153	669.75
1447.08376	672.0
1447.608312	669.0
1448.132808	668.25
1448.65725	669.25
1449.181636	668.5
1449.705967	667.25
1450.230243	667.0
1450.754464	668.25
1451.27863	669.5
1451.802741	665.75
1452.326797	666.5
1452.850797	668.75
1453.374743	667.5
1453.898633	663.75
1454.422468	664.75
1454.946249	665.0
1455.469974	665.0
1455.993644	664.0
1456.517259	664.0
1457.040819	666.25
1457.564324	666.25
1458.087773	666.0
1458.611168	667.25
1459.134508	663.5
1459.657793	665.25
1460.181022	667.0
1460.704197	666.25
1461.227316	670.0
1461.750381	666.5
1462.27339	664.75
1462.796345	669.75
1463.319244	677.0
1463.842089	669.75
1464.364878	667.5
1464.887613	667.5
1465.410292	667.25
1465.932916	663.0
1466.455486	662.0
1466.978	663.75
1467.50046	665.0
1468.022864	663.5
1468.545214	664.0
1469.067508	664.25
1469.589748	663.0
1470.111932	666.5
1470.634062	663.0
1471.156136	664.25
1471.678156	662.75
1472.20012	664.5
1472.72203	665.25
1473.243885	663.25
1473.765685	666.5
1474.28743	665.5
1474.80912	663.5
1475.330755	666.25
1475.852335	665.25
1476.37386	665.75
1476.89533	666.75
1477.416745	664.0
1477.938106	664.75
1478.459411	664.25
1478.980662	665.25
1479.501857	664.0
1480.022998	664.0
1480.544084	664.25
1481.065115	664.75
1481.586091	663.25
1482.107012	666.75
1482.627878	666.5
1483.14869	662.0
1483.669446	665.75
1484.190148	666.0
1484.710794	664.5
1485.231386	662.75
1485.751923	667.5
1486.272406	666.25
1486.792833	662.25
1487.313205	663.25
1487.833523	663.75
1488.353786	665.0
1488.873994	663.25
1489.394147	664.5
1489.914245	662.5
1490.434288	664.25
1490.954277	661.75
1491.474211	665.25
1491.99409	664.75
1492.513914	663.75
1493.033683	662.5
1493.553398	665.75
1494.073057	665.25
1494.592662	662.5
1495.112212	660.75
1495.631708	665.25
1496.151148	665.5
1496.670534	664.25
1497.189865	664.25
1497.709141	662.75
1498.228362	664.75
1498.747529	667.25
1499.266641	662.75
1499.785698	673.5
1500.3047	664.25
1500.823648	660.5
1501.34254	661.5
1501.861379	664.0
1502.380162	665.0
1502.89889	665.5
1503.417564	664.75
1503.936183	665.5
1504.454748	664.75
1504.973257	661.5
1505.491712	663.25
1506.010112	664.25
1506.528458	665.0
1507.046748	664.0
1507.564984	664.5
1508.083166	663.0
1508.601292	664.0
1509.119364	661.75
1509.637381	664.25
1510.155344	662.25
1510.673252	673.0
1511.191105	664.0
1511.708903	664.0
1512.226647	664.0
1512.744336	664.75
1513.261971	663.75
1513.77955	662.75
1514.297076	663.25
1514.814546	666.0
1515.331962	662.25
1515.849323	664.25
1516.366629	661.25
1516.883881	665.25
1517.401078	662.75
1517.918221	661.5
1518.435309	665.75
1518.952342	665.0
1519.469321	664.75
1519.986245	665.0
1520.503114	663.0
1521.019929	666.0
1521.536689	662.75
1522.053395	664.0
1522.570046	665.25
1523.086642	666.75
1523.603184	664.25
1524.119671	663.5
1524.636103	666.5
1525.152481	662.75
1525.668805	666.5
1526.185073	670.25
1526.701288	670.75
1527.217447	664.75
1527.733552	664.25
1528.249603	663.0
1528.765599	660.75
1529.28154	663.5
1529.797427	663.0
1530.313259	661.0
1530.829037	662.75
1531.34476	665.0
1531.860429	664.25
1532.376043	662.75
1532.891602	663.75
1533.407107	666.0
1533.922558	662.75
1534.437954	661.5
1534.953295	662.25
1535.468582	662.0
1535.983815	664.5
1536.498993	663.25
1537.014116	663.5
1537.529185	662.5
1538.044199	661.5
1538.559159	662.75
1539.074064	661.0
1539.588915	664.5
1540.103712	662.25
1540.618454	663.0
1541.133141	666.5
1541.647774	664.0
1542.162353	663.75
1542.676877	662.75
1543.191346	663.0
1543.705761	665.5
1544.220122	662.0
1544.734428	664.0
1545.24868	664.5
1545.762877	664.0
1546.27702	662.75
1546.791109	662.75
1547.305143	663.5
1547.819122	663.0
1548.333047	665.0
1548.846918	661.5
1549.360734	661.5
1549.874496	667.0
1550.388204	664.5
1550.901857	660.75
1551.415455	662.0
1551.929	662.0
1552.442489	661.75
1552.955925	661.5
1553.469306	664.75
1553.982632	663.5
1554.495905	662.75
1555.009123	663.25
1555.522286	663.25
1556.035395	664.5
1556.54845	662.75
1557.06145	664.0
1557.574396	663.0
1558.087288	660.5
1558.600125	661.25
1559.112908	661.75
1559.625637	663.25
1560.138311	663.25
1560.650931	663.25
1561.163497	663.0
1561.676008	664.25
1562.188465	666.5
1562.700867	660.75
1563.213216	666.0
1563.725509	663.5
1564.237749	663.25
1564.749934	663.75
1565.262065	664.75
1565.774142	662.5
1566.286164	664.5
1566.798132	662.0
1567.310046	664.5
1567.821906	662.75
1568.333711	661.5
1568.845462	662.0
1569.357158	662.75
1569.868801	661.75
1570.380389	664.25
1570.891922	662.0
1571.403402	662.0
1571.914827	662.75
1572.426198	663.75
1572.937515	661.0
1573.448777	663.0
1573.959985	663.5
1574.471139	663.75
1574.982239	661.5
1575.493285	666.0
1576.004276	662.0
1576.515213	661.75
1577.026096	665.75
1577.536924	662.25
1578.047698	661.75
1578.558419	665.5
1579.069084	663.25
1579.579696	663.0
1580.090254	664.25
1580.600757	664.5
1581.111206	662.75
1581.621601	665.75
1582.131941	662.75
1582.642228	666.5
1583.15246	662.0
1583.662638	661.25
1584.172762	663.75
1584.682832	664.25
1585.192847	659.75
1585.702809	662.25
1586.212716	663.5
1586.722569	662.0
1587.232368	662.75
1587.742113	662.75
1588.251803	663.25
1588.76144	663.25
1589.271022	663.0
1589.78055	662.0
1590.290024	665.0
1590.799444	663.25
1591.30881	664.0
1591.818121	661.75
1592.327379	660.75
