1042.414189	690.5
1042.980685	688.5
1043.547124	686.5
1044.113505	688.0
1044.679828	687.75
1045.246093	685.0
1045.8123	681.25
1046.378449	679.75
1046.94454	682.0
1047.510573	685.25
1048.076548	682.75
1048.642465	680.25
1049.208325	679.25
1049.774126	680.5
1050.339869	681.5
1050.905555	681.5
1051.471183	680.5
1052.036752	677.75
1052.602264	684.0
1053.167718	678.5
1053.733114	676.5
1054.298452	674.5
1054.863733	680.0
1055.428955	678.0
1055.994119	676.25
1056.559226	677.0
1057.124275	674.0
1057.689266	678.0
1058.254199	676.75
1058.819074	674.0
1059.383891	677.0
1059.94865	677.0
1060.513352	675.75
1061.077996	675.0
1061.642582	675.0
1062.20711	675.75
1062.77158	676.25
1063.335992	676.25
1063.900347	676.75
1064.464643	672.75
1065.028882	675.25
1065.593063	675.0
1066.157187	674.0
1066.721252	674.75
1067.28526	676.5
1067.84921	672.5
1068.413102	677.25
1068.976936	675.75
1069.540713	676.75
1070.104431	685.0
1070.668092	676.5
1071.231696	678.25
1071.795241	674.75
1072.358729	673.25
1072.922159	673.0
1073.485531	676.5
1074.048845	676.25
1074.612102	679.0
1075.175301	671.5
1075.738442	679.5
1076.301525	676.75
1076.864551	679.25
1077.427519	678.0
1077.990429	674.5
1078.553281	680.25
1079.116076	679.5
1079.678813	681.75
1080.241492	679.25
1080.804114	684.5
1081.366678	682.25
1081.929184	681.5
1082.491633	684.5
1083.054024	683.25
1083.616357	686.75
1084.178632	685.25
1084.74085	690.0
1085.30301	691.25
1085.865113	697.75
1086.427158	695.0
1086.989145	698.0
1087.551074	693.0
1088.112946	696.25
1088.67476	696.5
1089.236517	701.0
1089.798216	703.0
1090.359857	705.25
1090.92144	704.75
1091.482966	708.0
1092.044435	712.25
1092.605845	710.0
1093.167199	710.25
1093.728494	707.5
1094.289732	710.25
1094.850912	704.25
1095.412035	715.0
1095.9731	704.0
1096.534107	698.0
1097.095057	708.5
1097.65595	695.25
1098.216784	696.0
1098.777561	692.75
1099.338281	693.5
1099.898943	690.25
1100.459547	690.25
1101.020094	686.25
1101.580584	689.0
1102.141015	683.75
1102.701389	683.75
1103.261706	681.25
1103.821965	680.5
1104.382167	683.0
1104.942311	678.5
1105.502397	677.25
1106.062426	682.25
1106.622398	678.0
1107.182312	675.0
1107.742168	678.0
1108.301967	675.25
1108.861708	675.5
1109.421392	675.0
1109.981019	675.25
1110.540587	673.5
1111.100099	677.0
1111.659553	670.75
1112.218949	675.75
1112.778288	674.0
1113.33757	673.25
1113.896794	673.75
1114.45596	674.5
1115.015069	671.75
1115.574121	673.75
1116.133115	672.5
1116.692052	674.75
1117.250931	677.5
1117.809753	669.75
1118.368517	669.75
1118.927224	672.25
1119.485873	670.5
1120.044465	673.5
1120.603	672.75
1121.161477	672.5
1121.719897	669.75
1122.278259	671.75
1122.836564	670.0
1123.394812	672.75
1123.953002	671.25
1124.511135	674.0
1125.06921	672.25
1125.627228	675.25
1126.185189	667.5
1126.743092	672.25
1127.300938	669.75
1127.858726	673.5
1128.416457	672.75
1128.974131	674.75
1129.531748	670.25
1130.089307	671.0
1130.646808	673.75
1131.204252	668.0
1131.761639	673.25
1132.318969	672.25
1132.876241	671.0
1133.433456	671.25
1133.990614	671.5
1134.547714	674.25
1135.104757	670.75
1135.661743	671.5
1136.218671	671.0
1136.775542	669.0
1137.332356	671.5
1137.889112	670.25
1138.445811	669.25
1139.002453	670.5
1139.559037	671.0
1140.115565	672.75
1140.672035	672.75
1141.228447	668.0
1141.784803	671.75
1142.341101	669.5
1142.897342	669.25
1143.453525	673.5
1144.009651	671.25
1144.565721	669.75
1145.121732	672.5
1145.677687	670.75
1146.233584	673.0
1146.789424	666.75
1147.345207	670.0
1147.900933	672.75
1148.456601	670.0
1149.012212	669.75
1149.567766	671.0
1150.123263	674.0
1150.678702	672.75
1151.234085	672.5
1151.78941	675.0
1152.344678	676.5
1152.899888	673.5
1153.455042	672.0
1154.010138	669.0
1154.565177	670.75
1155.120159	670.0
1155.675084	671.0
1156.229951	670.25
1156.784762	673.75
1157.339515	671.75
1157.894211	674.75
1158.44885	669.5
1159.003432	669.5
1159.557956	668.0
1160.112424	672.0
1160.666834	670.5
1161.221187	670.5
1161.775483	672.75
1162.329722	671.75
1162.883904	672.75
1163.438029	669.5
1163.992096	670.75
1164.546107	667.25
1165.10006	671.0
1165.653956	671.0
1166.207795	670.0
1166.761577	668.75
1167.315302	672.0
1167.86897	667.0
1168.422581	672.5
1168.976134	668.0
1169.529631	671.0
1170.08307	674.5
1170.636453	670.5
1171.189778	669.5
1171.743046	671.0
1172.296257	671.75
1172.849412	671.75
1173.402509	672.75
1173.955549	671.75
1174.508532	670.0
1175.061458	672.25
1175.614327	668.5
1176.167138	672.0
1176.719893	670.25
1177.272591	669.25
1177.825232	670.25
1178.377816	671.25
1178.930342	672.75
1179.482812	671.75
1180.035225	670.25
1180.587581	672.25
1181.139879	668.75
1181.692121	666.25
1182.244306	671.5
1182.796434	668.0
1183.348504	670.5
1183.900518	669.25
1184.452475	676.0
1185.004375	671.5
1185.556218	673.0
1186.108004	671.0
1186.659733	671.75
1187.211405	671.0
1187.76302	667.5
1188.314578	673.0
1188.866079	674.25
1189.417523	672.25
1189.96891	673.0
1190.520241	673.25
1191.071514	671.0
1191.622731	674.75
1192.17389	669.75
1192.724993	669.0
1193.276039	694.75
1193.827027	669.5
1194.377959	670.75
1194.928834	672.5
1195.479653	672.0
1196.030414	671.5
1196.581118	673.25
1197.131766	669.5
1197.682356	671.25
1198.23289	669.5
1198.783367	670.0
1199.333786	669.0
1199.88415	671.5
1200.434456	668.25
1200.984705	673.0
1201.534898	673.25
1202.085033	669.75
1202.635112	670.5
1203.185134	671.0
1203.735099	671.5
1204.285007	672.5
1204.834859	674.75
1205.384653	673.0
1205.934391	671.25
1206.484072	671.5
1207.033696	672.0
1207.583263	673.5
1208.132774	673.25
1208.682228	669.0
1209.231624	673.75
1209.780965	670.75
1210.330248	671.75
1210.879474	669.25
1211.428644	674.0
1211.977757	674.0
1212.526813	671.25
1213.075813	673.75
1213.624755	668.5
1214.173641	669.5
1214.72247	674.0
1215.271242	669.25
1215.819958	673.0
1216.368617	671.25
1216.917219	670.25
1217.465764	673.5
1218.014253	673.25
1218.562685	668.75
1219.11106	672.75
1219.659378	674.75
1220.20764	675.25
1220.755845	671.0
1221.303993	670.5
1221.852085	675.5
1222.400119	672.25
1222.948097	671.25
1223.496019	675.0
1224.043883	674.75
1224.591691	672.5
1225.139443	671.5
1225.687137	672.75
1226.234775	674.75
1226.782357	672.5
1227.329881	671.25
1227.877349	673.75
1228.42476	670.75
1228.972115	674.0
1229.519413	676.25
1230.066654	674.25
1230.613839	672.0
1231.160967	670.5
1231.708038	673.25
1232.255053	670.25
1232.802011	673.25
1233.348912	671.5
1233.895757	674.5
1234.442545	674.0
1234.989277	673.5
1235.535951	673.75
1236.08257	674.25
1236.629131	672.0
1237.175636	673.25
1237.722085	674.5
1238.268477	673.5
1238.814812	675.75
1239.361091	677.0
1239.907313	672.75
1240.453478	672.5
1240.999587	675.25
1241.54564	673.75
1242.091636	676.0
1242.637575	674.75
1243.183457	673.75
1243.729284	676.5
1244.275053	676.5
1244.820766	673.75
1245.366423	671.0
1245.912022	673.25
1246.457566	673.5
1247.003053	675.0
1247.548483	671.0
1248.093857	678.0
1248.639174	674.0
1249.184435	676.75
1249.729639	674.0
1250.274787	677.25
1250.819878	674.0
1251.364912	676.25
1251.909891	674.0
1252.454812	674.75
1252.999677	675.5
1253.544486	674.5
1254.089238	677.5
1254.633934	679.5
1255.178573	678.0
1255.723156	676.0
1256.267682	675.25
1256.812152	671.75
1257.356565	675.0
1257.900922	676.0
1258.445223	679.75
1258.989467	679.75
1259.533654	677.5
1260.077785	698.5
1260.62186	678.5
1261.165878	682.25
1261.70984	683.5
1262.253745	687.0
1262.797594	691.0
1263.341386	699.25
1263.885123	698.75
1264.428802	701.25
1264.972425	700.0
1265.515992	695.25
1266.059503	689.0
1266.602957	684.5
1267.146354	683.25
1267.689696	679.0
1268.23298	679.0
1268.776209	676.0
1269.319381	682.75
1269.862497	676.75
1270.405556	676.25
1270.948559	679.25
1271.491506	681.0
1272.034396	677.0
1272.57723	682.5
1273.120007	678.0
1273.662728	678.25
1274.205393	680.25
1274.748002	674.75
1275.290554	678.0
1275.83305	682.25
1276.375489	681.75
1276.917872	679.5
1277.460199	681.5
1278.00247	682.0
1278.544684	681.75
1279.086842	682.75
1279.628943	687.75
1280.170989	689.0
1280.712978	697.0
1281.25491	705.0
1281.796787	725.5
1282.338607	757.25
1282.880371	825.0
1283.422078	935.25
1283.963729	1059.5
1284.505324	1112.5
1285.046863	1005.5
1285.588345	848.25
1286.129772	757.0
1286.671142	719.75
1287.212455	701.5
1287.753713	697.0
1288.294914	688.5
1288.836059	683.75
1289.377147	682.25
1289.91818	683.0
1290.459156	685.5
1291.000076	680.5
1291.54094	682.25
1292.081747	681.5
1292.622499	678.5
1293.163194	680.25
1293.703833	678.0
1294.244415	676.25
1294.784942	681.5
1295.325412	680.25
1295.865826	676.5
1296.406184	677.75
1296.946486	678.0
1297.486731	678.75
1298.026921	677.25
1298.567054	680.75
1299.107131	672.75
1299.647152	677.5
1300.187116	678.75
1300.727025	676.0
1301.266877	679.75
1301.806673	675.75
1302.346413	671.75
1302.886097	676.5
1303.425725	676.0
1303.965297	675.25
1304.504812	679.5
1305.044272	678.0
1305.583675	675.5
1306.123022	676.25
1306.662313	674.25
1307.201548	673.5
1307.740727	674.75
1308.279849	678.0
1308.818916	676.0
1309.357926	673.75
1309.896881	677.0
1310.435779	674.0
1310.974621	672.5
1311.513407	673.0
1312.052137	672.0
1312.590811	673.0
1313.129429	678.0
1313.667991	674.75
1314.206497	675.25
1314.744946	674.0
1315.28334	677.75
1315.821678	674.5
1316.359959	669.25
1316.898184	675.75
1317.436354	675.75
1317.974467	677.0
1318.512525	674.5
1319.050526	674.5
1319.588471	673.75
1320.12636	672.75
1320.664194	674.25
1321.201971	672.75
1321.739692	672.75
1322.277357	676.0
1322.814967	674.5
1323.35252	672.25
1323.890017	678.0
1324.427458	673.25
1324.964843	675.0
1325.502173	674.25
1326.039446	671.75
1326.576663	674.0
1327.113824	674.5
1327.65093	672.0
1328.187979	673.5
1328.724972	671.75
1329.26191	673.25
1329.798791	673.0
1330.335617	674.5
1330.872386	676.25
1331.4091	673.0
1331.945758	674.25
1332.48236	670.25
1333.018905	673.25
1333.555395	675.75
1334.091829	674.75
1334.628207	675.0
1335.164529	671.75
1335.700796	672.75
1336.237006	672.5
1336.77316	667.5
1337.309259	674.5
1337.845301	674.25
1338.381288	672.75
1338.917219	676.0
1339.453094	671.5
1339.988913	671.25
1340.524676	671.0
1341.060383	674.25
1341.596034	674.25
1342.13163	675.25
1342.66717	670.0
1343.202653	676.25
1343.738081	675.0
1344.273453	675.0
1344.80877	670.75
1345.34403	675.0
1345.879235	674.25
1346.414383	672.75
1346.949476	676.75
1347.484513	677.5
1348.019494	676.25
1348.55442	674.75
1349.089289	672.25
1349.624103	672.25
1350.158861	677.5
1350.693563	676.25
1351.228209	674.0
1351.7628	672.75
1352.297334	674.5
1352.831813	672.25
1353.366236	677.0
1353.900604	673.0
1354.434915	675.5
1354.969171	677.0
1355.503371	676.5
1356.037515	677.5
1356.571604	673.25
1357.105636	673.25
1357.639613	676.25
1358.173535	674.75
1358.7074	679.0
1359.24121	674.75
1359.774964	670.75
1360.308662	673.25
1360.842304	675.75
1361.375891	674.5
1361.909422	676.75
1362.442897	677.5
1362.976317	675.25
1363.50968	677.5
1364.042989	677.0
1364.576241	675.0
1365.109438	674.0
1365.642579	676.75
1366.175664	678.25
1366.708693	676.25
1367.241667	675.25
1367.774585	679.0
1368.307448	679.25
1368.840255	676.5
1369.373006	684.5
1369.905701	691.25
1370.438341	692.0
1370.970925	687.75
1371.503454	675.5
1372.035926	679.75
1372.568344	677.5
1373.100705	678.25
1373.633011	677.75
1374.165261	675.0
1374.697456	676.5
1375.229595	676.5
1375.761678	680.0
1376.293705	680.75
1376.825677	677.25
1377.357594	683.25
1377.889455	681.75
1378.42126	681.25
1378.953009	684.25
1379.484703	680.0
1380.016342	682.5
1380.547924	679.75
1381.079452	684.75
1381.610923	688.25
1382.142339	687.0
1382.673699	690.75
1383.205004	691.75
1383.736253	693.5
1384.267447	699.25
1384.798585	700.75
1385.329668	714.5
1385.860695	729.25
1386.391666	779.5
1386.922582	872.0
1387.453442	1122.75
1387.984247	1524.5
1388.514996	1570.0
1389.04569	1124.25
1389.576328	837.75
1390.10691	748.75
1390.637437	725.0
1391.167909	703.25
1391.698325	698.0
1392.228685	689.5
1392.75899	685.25
1393.28924	687.5
1393.819434	686.0
1394.349572	686.75
1394.879655	680.5
1395.409683	682.75
1395.939655	684.5
1396.469571	681.25
1396.999432	680.75
1397.529237	682.5
1398.058987	681.75
1398.588682	677.0
1399.118321	679.75
1399.647905	678.25
1400.177433	679.75
1400.706906	680.5
1401.236323	677.25
1401.765685	681.75
1402.294991	679.0
1402.824242	678.5
1403.353437	679.25
1403.882577	677.25
1404.411662	680.5
1404.940691	678.0
1405.469665	682.25
1405.998583	680.75
1406.527446	682.25
1407.056253	686.0
1407.585005	691.75
1408.113702	694.5
1408.642343	705.0
1409.170929	720.25
1409.69946	721.25
1410.227935	716.5
1410.756354	705.25
1411.284719	692.0
1411.813028	683.75
1412.341281	683.25
1412.869479	680.25
1413.397622	678.75
1413.92571	680.25
1414.453742	677.75
1414.981718	676.25
1415.50964	684.5
1416.037506	676.25
1416.565316	681.25
1417.093072	675.25
1417.620772	671.5
1418.148416	676.25
1418.676005	673.75
1419.203539	672.5
1419.731018	674.0
1420.258441	673.5
1420.785809	673.0
1421.313122	671.75
1421.840379	675.75
1422.367582	674.25
1422.894728	676.5
1423.42182	675.75
1423.948856	672.5
1424.475837	671.25
1425.002762	674.5
1425.529633	674.25
1426.056448	674.25
1426.583207	674.5
1427.109912	677.25
1427.636561	674.25
1428.163155	669.25
1428.689694	673.75
1429.216177	671.75
1429.742605	671.5
1430.268978	670.5
1430.795296	671.5
1431.321558	673.75
1431.847765	671.5
1432.373917	671.5
1432.900014	671.25
1433.426056	670.0
1433.952042	671.0
1434.477973	671.5
1435.003849	672.75
1435.529669	671.5
1436.055435	671.0
1436.581145	671.0
1437.1068	668.75
1437.632399	670.25
1438.157944	668.75
1438.683433	671.0
1439.208868	669.75
1439.734247	669.75
1440.25957	673.5
1440.784839	672.75
1441.310053	673.0
1441.835211	673.0
1442.360314	672.0
1442.885362	671.25
1443.410355	671.0
1443.935292	670.0
1444.460175	671.75
1444.985002	669.0
1445.509774	673.5
1446.034491	671.25
1446.559153	670.5
1447.08376	671.25
1447.608312	674.0
1448.132808	669.75
1448.65725	668.25
1449.181636	672.25
1449.705967	671.0
1450.230243	671.25
1450.754464	673.5
1451.27863	672.5
1451.802741	670.75
1452.326797	669.0
1452.850797	672.25
1453.374743	673.25
1453.898633	668.75
1454.422468	668.0
1454.946249	669.0
1455.469974	668.25
1455.993644	669.0
1456.517259	671.25
1457.040819	673.25
1457.564324	669.25
1458.087773	670.0
1458.611168	668.25
1459.134508	669.5
1459.657793	674.25
1460.181022	668.5
1460.704197	668.0
1461.227316	672.75
1461.750381	670.75
1462.27339	672.5
1462.796345	678.5
1463.842089	676.5
1464.364878	669.5
1464.887613	669.25
1465.410292	669.0
1465.932916	670.5
1466.455486	668.75
1466.978	672.25
1467.50046	669.75
1468.022864	667.25
1468.545214	667.75
1469.067508	668.25
1469.589748	668.5
1470.111932	671.5
1470.634062	671.25
1471.156136	669.5
1471.678156	672.25
1472.20012	669.0
1472.72203	672.0
1473.243885	669.0
1473.765685	672.0
1474.28743	672.5
1474.80912	667.0
1475.330755	669.0
1475.852335	666.5
1476.37386	669.25
1476.89533	667.75
1477.416745	665.25
1477.938106	667.75
1478.459411	668.5
1478.980662	667.75
1479.501857	667.0
1480.022998	669.25
1480.544084	668.75
1481.065115	669.0
1481.586091	667.25
1482.107012	670.0
1482.627878	670.5
1483.14869	668.25
1483.669446	669.75
1484.190148	668.25
1484.710794	668.25
1485.231386	670.5
1485.751923	670.0
1486.272406	668.0
1486.792833	667.75
1487.313205	667.5
1487.833523	668.0
1488.353786	667.0
1488.873994	670.0
1489.394147	668.25
1489.914245	667.75
1490.434288	669.25
1490.954277	668.0
1491.474211	667.0
1491.99409	665.75
1492.513914	666.25
1493.033683	666.25
1493.553398	668.75
1494.073057	670.5
1494.592662	667.0
1495.112212	665.75
1495.631708	666.0
1496.151148	666.0
1496.670534	666.75
1497.189865	667.5
1497.709141	668.75
1498.228362	672.25
1498.747529	668.25
1499.266641	669.0
1499.785698	674.75
1500.3047	667.0
1500.823648	669.5
1501.34254	667.25
1501.861379	668.75
1502.380162	672.0
1502.89889	668.5
1503.417564	668.25
1503.936183	668.5
1504.454748	667.0
1504.973257	667.0
1505.491712	667.0
1506.010112	668.25
1506.528458	669.0
1507.046748	668.25
1507.564984	670.0
1508.083166	671.0
1508.601292	667.0
1509.119364	671.5
1509.637381	667.75
1510.155344	668.5
1510.673252	677.5
1511.191105	668.0
1511.708903	665.0
1512.226647	667.5
1512.744336	668.0
1513.261971	669.25
1513.77955	668.75
1514.297076	667.25
1514.814546	666.25
1515.331962	673.0
1515.849323	669.75
1516.366629	668.5
1516.883881	669.25
1517.401078	664.5
1517.918221	666.25
1518.435309	668.0
1518.952342	664.5
1519.469321	669.0
1519.986245	667.25
1520.503114	667.5
1521.019929	670.75
1521.536689	668.75
1522.053395	668.25
1522.570046	669.0
1523.086642	670.0
1523.603184	668.75
1524.119671	668.25
1524.636103	665.75
1525.152481	670.5
1525.668805	670.0
1526.185073	684.5
1526.701288	677.25
1527.217447	671.75
1527.733552	668.25
1528.249603	669.25
1528.765599	668.5
1529.28154	669.5
1529.797427	669.5
1530.313259	668.0
1530.829037	669.25
1531.34476	665.25
1531.860429	669.75
1532.376043	667.25
1532.891602	668.5
1533.407107	668.75
1533.922558	669.0
1534.437954	665.25
1534.953295	667.75
1535.468582	669.5
1535.983815	665.0
1536.498993	669.0
1537.014116	665.5
1537.529185	669.25
1538.044199	666.75
1538.559159	671.25
1539.074064	667.0
1539.588915	669.0
1540.103712	672.0
1540.618454	669.75
1541.133141	667.0
1541.647774	667.0
1542.162353	667.0
1542.676877	667.25
1543.191346	665.25
1543.705761	668.75
1544.220122	670.25
1544.734428	668.5
1545.24868	665.25
1545.762877	668.25
1546.27702	665.75
1546.791109	667.0
1547.305143	667.0
1547.819122	667.25
1548.333047	670.0
1548.846918	666.75
1549.360734	671.5
1549.874496	667.5
1550.388204	668.0
1550.901857	669.0
1551.415455	667.0
1551.929	669.25
1552.442489	670.75
1552.955925	667.0
1553.469306	667.5
1553.982632	668.5
1554.495905	666.75
1555.009123	668.25
1555.522286	665.0
1556.035395	671.25
1556.54845	668.25
1557.06145	667.5
1557.574396	671.0
1558.087288	667.5
1558.600125	666.5
1559.112908	665.75
1559.625637	668.0
1560.138311	667.5
1560.650931	669.0
1561.163497	668.25
1561.676008	668.25
1562.188465	670.0
1562.700867	671.5
1563.213216	670.5
1563.725509	669.75
1564.237749	669.25
1564.749934	669.25
1565.262065	667.5
1565.774142	669.5
1566.286164	668.5
1566.798132	668.75
1567.310046	668.5
1567.821906	667.75
1568.333711	672.0
1568.845462	669.25
1569.357158	668.75
1569.868801	670.5
1570.380389	669.25
1570.891922	665.25
1571.403402	671.25
1571.914827	670.5
1572.426198	668.75
1572.937515	671.0
1573.448777	667.25
1573.959985	667.0
1574.471139	667.25
1574.982239	670.5
1575.493285	668.5
1576.004276	666.5
1576.515213	669.25
1577.026096	669.25
1577.536924	672.0
1578.047698	666.25
1578.558419	667.5
1579.069084	665.5
1579.579696	668.5
1580.090254	668.0
1580.600757	669.5
1581.111206	666.5
1581.621601	669.25
1582.131941	669.0
1582.642228	668.5
1583.15246	666.75
1583.662638	668.0
1584.172762	665.75
1584.682832	667.25
1585.192847	668.5
1585.702809	668.0
1586.212716	668.25
1586.722569	665.5
1587.232368	668.5
1587.742113	666.0
1588.251803	668.75
1588.76144	667.25
1589.271022	668.5
1589.78055	668.75
1590.290024	668.0
1590.799444	668.25
1591.30881	667.0
1591.818121	669.75
1592.327379	666.25
