1042.414189	702.25
1042.980685	694.25
1043.547124	694.5
1044.113505	690.5
1044.679828	691.0
1045.246093	686.25
1045.8123	690.0
1046.378449	687.5
1046.94454	682.75
1047.510573	684.75
1048.076548	682.75
1048.642465	678.25
1049.208325	683.75
1049.774126	676.5
1050.339869	680.25
1050.905555	681.0
1051.471183	682.0
1052.036752	680.25
1052.602264	679.25
1053.167718	680.5
1053.733114	681.0
1054.298452	678.0
1054.863733	679.0
1055.428955	678.5
1055.994119	674.75
1056.559226	678.0
1057.124275	676.5
1057.689266	676.0
1058.254199	671.25
1058.819074	673.5
1059.383891	678.75
1059.94865	674.25
1060.513352	671.75
1061.077996	670.75
1061.642582	674.5
1062.20711	674.5
1062.77158	673.0
1063.335992	669.5
1063.900347	674.25
1064.464643	673.75
1065.028882	672.0
1065.593063	673.5
1066.157187	674.0
1066.721252	670.5
1067.28526	672.75
1067.84921	670.75
1068.413102	669.0
1068.976936	672.25
1069.540713	672.25
1070.104431	678.0
1070.668092	672.5
1071.231696	669.75
1071.795241	670.75
1072.358729	672.25
1072.922159	671.0
1073.485531	670.0
1074.048845	669.5
1074.612102	671.25
1075.175301	666.25
1075.738442	670.75
1076.301525	669.75
1076.864551	674.25
1077.427519	669.75
1077.990429	671.0
1078.553281	671.25
1079.116076	672.0
1079.678813	672.0
1080.241492	670.0
1080.804114	669.0
1081.366678	666.5
1081.929184	670.0
1082.491633	673.5
1083.054024	670.5
1083.616357	671.0
1084.178632	670.25
1084.74085	671.75
1085.30301	671.5
1085.865113	671.5
1086.427158	669.0
1086.989145	671.0
1087.551074	673.0
1088.112946	670.25
1088.67476	671.25
1089.236517	672.75
1089.798216	671.25
1090.359857	670.25
1090.92144	674.0
1091.482966	669.0
1092.044435	671.25
1092.605845	670.0
1093.167199	674.25
1093.728494	671.5
1094.289732	668.25
1094.850912	671.5
1095.412035	675.75
1095.9731	669.5
1096.534107	672.75
1097.095057	676.5
1097.65595	669.0
1098.216784	669.25
1098.777561	669.5
1099.338281	671.25
1099.898943	668.0
1100.459547	669.0
1101.020094	671.5
1101.580584	669.75
1102.141015	668.75
1102.701389	669.75
1103.261706	666.75
1103.821965	671.0
1104.382167	667.5
1104.942311	672.0
1105.502397	669.75
1106.062426	670.25
1106.622398	667.25
1107.182312	670.25
1107.742168	669.75
1108.301967	673.75
1108.861708	669.0
1109.421392	672.75
1109.981019	671.5
1110.540587	670.0
1111.100099	668.5
1111.659553	666.75
1112.218949	669.25
1112.778288	669.75
1113.33757	667.0
1113.896794	671.75
1114.45596	670.0
1115.015069	668.5
1115.574121	668.0
1116.133115	669.5
1116.692052	669.5
1117.250931	670.75
1117.809753	670.0
1118.368517	669.25
1118.927224	672.75
1119.485873	670.0
1120.044465	671.75
1120.603	668.5
1121.161477	669.25
1121.719897	671.25
1122.278259	667.75
1122.836564	669.75
1123.394812	669.25
1123.953002	670.25
1124.511135	672.25
1125.06921	674.25
1125.627228	673.25
1126.185189	671.25
1126.743092	672.75
1127.300938	677.0
1127.858726	682.25
1128.416457	676.5
1128.974131	687.25
1129.531748	685.5
1130.089307	679.0
1130.646808	683.75
1131.204252	676.5
1131.761639	673.5
1132.318969	673.25
1132.876241	671.75
1133.433456	670.0
1133.990614	674.0
1134.547714	668.0
1135.104757	671.25
1135.661743	668.0
1136.218671	671.75
1136.775542	669.75
1137.332356	668.5
1137.889112	670.5
1138.445811	670.75
1139.002453	668.75
1139.559037	668.25
1140.115565	667.25
1140.672035	666.25
1141.228447	667.75
1141.784803	671.25
1142.341101	670.25
1142.897342	667.5
1143.453525	670.0
1144.009651	667.25
1144.565721	667.5
1145.121732	670.0
1145.677687	665.75
1146.233584	667.0
1146.789424	668.5
1147.345207	670.75
1147.900933	670.25
1148.456601	667.25
1149.012212	669.75
1149.567766	669.75
1150.123263	668.75
1150.678702	670.25
1151.234085	667.75
1151.78941	667.75
1152.344678	669.75
1152.899888	668.25
1153.455042	669.0
1154.010138	668.0
1154.565177	671.0
1155.120159	667.25
1155.675084	669.75
1156.229951	670.0
1156.784762	669.0
1157.339515	671.25
1157.894211	667.75
1158.44885	666.75
1159.003432	669.75
1159.557956	671.25
1160.112424	667.0
1160.666834	670.75
1161.221187	669.75
1161.775483	669.75
1162.329722	669.0
1162.883904	669.75
1163.438029	667.75
1163.992096	668.75
1164.546107	670.75
1165.10006	668.5
1165.653956	669.5
1166.207795	668.5
1166.761577	671.25
1167.315302	669.0
1167.86897	669.0
1168.422581	667.5
1168.976134	668.25
1169.529631	671.5
1170.08307	670.25
1170.636453	666.25
1171.189778	668.75
1171.743046	665.25
1172.296257	669.5
1172.849412	669.75
1173.402509	667.0
1173.955549	667.5
1174.508532	666.25
1175.061458	666.0
1175.614327	666.5
1176.167138	667.25
1176.719893	666.25
1177.272591	666.75
1177.825232	667.25
1178.377816	668.75
1178.930342	665.75
1179.482812	668.0
1180.035225	667.5
1180.587581	667.5
1181.139879	670.25
1181.692121	667.5
1182.244306	669.0
1182.796434	667.0
1183.348504	666.25
1183.900518	665.0
1184.452475	669.75
1185.004375	665.5
1185.556218	666.25
1186.108004	672.0
1186.659733	672.0
1187.211405	669.5
1187.76302	666.75
1188.314578	666.25
1188.866079	668.0
1189.417523	664.5
1189.96891	668.75
1190.520241	666.5
1191.071514	665.75
1191.622731	670.75
1192.17389	665.25
1192.724993	664.25
1193.276039	686.25
1193.827027	666.5
1194.377959	668.5
1194.928834	669.0
1195.479653	668.5
1196.030414	668.0
1196.581118	666.25
1197.131766	664.5
1197.682356	664.5
1198.23289	670.25
1198.783367	669.75
1199.333786	667.0
1199.88415	667.5
1200.434456	666.75
1200.984705	668.5
1201.534898	670.0
1202.085033	668.25
1202.635112	666.25
1203.185134	669.5
1203.735099	667.75
1204.285007	670.25
1204.834859	668.75
1205.384653	665.75
1205.934391	667.75
1206.484072	665.0
1207.033696	667.75
1207.583263	666.5
1208.132774	670.0
1208.682228	665.5
1209.231624	664.0
1209.780965	669.0
1210.330248	671.0
1210.879474	666.75
1211.428644	668.5
1211.977757	668.25
1212.526813	668.25
1213.075813	668.0
1213.624755	668.75
1214.173641	668.25
1214.72247	669.5
1215.271242	669.25
1215.819958	670.5
1216.368617	671.75
1216.917219	670.25
1217.465764	669.5
1218.014253	668.5
1218.562685	666.75
1219.11106	669.0
1219.659378	667.75
1220.20764	669.25
1220.755845	667.25
1221.303993	667.5
1221.852085	667.75
1222.400119	667.75
1222.948097	670.0
1223.496019	667.75
1224.043883	670.25
1224.591691	670.25
1225.139443	668.75
1225.687137	669.0
1226.234775	672.0
1226.782357	668.75
1227.329881	668.5
1227.877349	665.25
1228.42476	667.5
1228.972115	672.5
1229.519413	667.5
1230.066654	668.5
1230.613839	667.5
1231.160967	667.5
1231.708038	672.0
1232.255053	665.25
1232.802011	665.75
1233.348912	669.25
1233.895757	670.25
1234.442545	669.5
1234.989277	669.5
1235.535951	666.25
1236.08257	670.0
1236.629131	668.75
1237.175636	668.0
1237.722085	668.25
1238.268477	669.25
1238.814812	669.75
1239.361091	668.75
1239.907313	670.75
1240.453478	668.75
1240.999587	669.75
1241.54564	670.5
1242.091636	668.25
1242.637575	668.75
1243.183457	668.5
1243.729284	667.5
1244.275053	668.25
1244.820766	669.5
1245.366423	667.75
1245.912022	669.0
1246.457566	670.0
1247.003053	669.75
1247.548483	670.75
1248.093857	670.5
1248.639174	667.75
1249.184435	670.25
1249.729639	669.25
1250.274787	672.5
1250.819878	669.25
1251.364912	671.0
1251.909891	672.5
1252.454812	667.75
1252.999677	668.0
1253.544486	669.5
1254.089238	667.75
1254.633934	670.25
1255.178573	667.25
1255.723156	669.25
1256.267682	671.75
1256.812152	672.5
1257.356565	673.0
1257.900922	674.5
1258.445223	672.75
1258.989467	674.25
1259.533654	678.0
1260.077785	685.5
1260.62186	673.0
1261.165878	680.0
1261.70984	678.0
1262.253745	680.5
1262.797594	684.75
1263.341386	685.25
1263.885123	686.5
1264.428802	691.75
1264.972425	688.5
1265.515992	683.5
1266.059503	683.0
1266.602957	678.25
1267.146354	675.5
1267.689696	676.25
1268.23298	675.5
1268.776209	672.25
1269.319381	675.25
1269.862497	673.75
1270.405556	674.0
1270.948559	669.25
1271.491506	673.0
1272.034396	671.25
1272.57723	672.25
1273.120007	671.75
1273.662728	675.25
1274.205393	670.75
1274.748002	671.0
1275.290554	675.5
1275.83305	671.25
1276.375489	675.75
1276.917872	673.75
1277.460199	679.5
1278.00247	672.25
1278.544684	675.5
1279.086842	680.75
1279.628943	678.5
1280.170989	684.5
1280.712978	686.0
1281.25491	698.0
1281.796787	713.25
1282.338607	751.5
1282.880371	826.0
1283.422078	931.75
1283.963729	1039.0
1284.505324	1071.0
1285.046863	946.5
1285.588345	815.5
1286.129772	737.75
1286.671142	707.25
1287.212455	693.25
1287.753713	685.5
1288.294914	681.0
1288.836059	678.5
1289.377147	676.25
1289.91818	679.75
1290.459156	675.0
1291.000076	671.5
1291.54094	676.0
1292.081747	673.0
1292.622499	674.0
1293.163194	675.75
1293.703833	674.0
1294.244415	676.0
1294.784942	671.5
1295.325412	672.5
1295.865826	674.5
1296.406184	675.0
1296.946486	677.0
1297.486731	669.25
1298.026921	670.25
1298.567054	672.5
1299.107131	670.5
1299.647152	668.75
1300.187116	669.5
1300.727025	673.75
1301.266877	671.25
1301.806673	669.75
1302.346413	670.0
1302.886097	672.0
1303.425725	668.0
1303.965297	671.75
1304.504812	669.5
1305.044272	667.0
1305.583675	673.0
1306.123022	666.75
1306.662313	668.0
1307.201548	667.5
1307.740727	673.0
1308.279849	667.5
1308.818916	671.5
1309.357926	668.75
1309.896881	669.75
1310.435779	672.0
1310.974621	671.0
1311.513407	668.0
1312.052137	669.0
1312.590811	671.25
1313.129429	670.0
1313.667991	668.25
1314.206497	671.5
1314.744946	670.0
1315.28334	667.25
1315.821678	669.75
1316.359959	668.0
1316.898184	670.0
1317.436354	669.0
1317.974467	667.25
1318.512525	671.0
1319.050526	666.75
1319.588471	670.0
1320.12636	669.0
1320.664194	670.25
1321.201971	667.5
1321.739692	670.5
1322.277357	666.75
1322.814967	667.75
1323.35252	670.75
1323.890017	674.75
1324.427458	669.25
1324.964843	669.25
1325.502173	668.75
1326.039446	669.75
1326.576663	670.5
1327.113824	670.0
1327.65093	667.75
1328.187979	668.5
1328.724972	668.5
1329.26191	668.75
1329.798791	666.5
1330.335617	672.0
1330.872386	668.5
1331.4091	672.25
1331.945758	668.5
1332.48236	666.5
1333.018905	670.0
1333.555395	667.75
1334.091829	669.0
1334.628207	668.0
1335.164529	670.25
1335.700796	670.5
1336.237006	665.5
1336.77316	666.0
1337.309259	666.0
1337.845301	669.0
1338.381288	665.0
1338.917219	669.5
1339.453094	670.25
1339.988913	670.0
1340.524676	669.75
1341.060383	668.25
1341.596034	665.75
1342.13163	668.25
1342.66717	668.5
1343.202653	667.25
1343.738081	669.0
1344.273453	671.5
1344.80877	670.5
1345.34403	670.75
1345.879235	668.75
1346.414383	668.25
1346.949476	667.25
1347.484513	671.0
1348.019494	670.5
1348.55442	668.75
1349.089289	667.0
1349.624103	668.5
1350.158861	667.0
1350.693563	669.25
1351.228209	670.25
1351.7628	667.25
1352.297334	671.25
1352.831813	668.0
1353.366236	670.0
1353.900604	670.75
1354.434915	669.25
1354.969171	672.0
1355.503371	668.25
1356.037515	670.5
1356.571604	672.25
1357.105636	669.0
1357.639613	670.75
1358.173535	668.5
1358.7074	670.75
1359.24121	671.75
1359.774964	670.75
1360.308662	667.75
1360.842304	669.25
1361.375891	669.75
1361.909422	674.25
1362.442897	668.75
1362.976317	669.25
1363.50968	671.5
1364.042989	672.25
1364.576241	672.0
1365.109438	671.75
1365.642579	671.25
1366.175664	670.0
1366.708693	673.25
1367.241667	674.25
1367.774585	671.0
1368.307448	671.5
1368.840255	673.0
1369.373006	673.75
1369.905701	686.75
1370.438341	688.25
1370.970925	676.25
1371.503454	675.5
1372.035926	673.0
1372.568344	672.75
1373.100705	673.0
1373.633011	672.25
1374.165261	671.0
1374.697456	675.25
1375.229595	675.0
1375.761678	672.0
1376.293705	670.25
1376.825677	674.5
1377.357594	674.25
1377.889455	676.0
1378.42126	674.75
1378.953009	676.0
1379.484703	676.5
1380.016342	675.0
1380.547924	674.75
1381.079452	682.75
1381.610923	681.0
1382.142339	680.5
1382.673699	682.0
1383.205004	682.25
1383.736253	685.75
1384.267447	688.75
1384.798585	698.0
1385.329668	709.75
1385.860695	733.0
1386.391666	765.25
1386.922582	880.5
1387.453442	1115.0
1387.984247	1500.75
1388.514996	1457.75
1389.04569	1062.25
1389.576328	827.0
1390.10691	737.25
1390.637437	712.75
1391.167909	696.5
1391.698325	696.0
1392.228685	687.25
1392.75899	681.75
1393.28924	680.5
1393.819434	679.75
1394.349572	678.0
1394.879655	678.75
1395.409683	674.75
1395.939655	672.5
1396.469571	678.5
1396.999432	674.25
1397.529237	674.25
1398.058987	674.75
1398.588682	677.75
1399.118321	671.75
1399.647905	673.0
1400.177433	672.25
1400.706906	673.25
1401.236323	673.25
1401.765685	674.0
1402.294991	672.0
1402.824242	675.75
1403.353437	671.0
1403.882577	676.25
1404.411662	675.25
1404.940691	677.5
1405.469665	675.75
1405.998583	675.5
1406.527446	678.25
1407.056253	684.75
1407.585005	684.0
1408.113702	690.5
1408.642343	699.0
1409.170929	709.0
1409.69946	715.0
1410.227935	709.25
1410.756354	701.5
1411.284719	684.5
1411.813028	680.0
1412.341281	675.25
1412.869479	675.0
1413.397622	672.5
1413.92571	672.0
1414.453742	668.0
1414.981718	670.25
1415.50964	681.75
1416.037506	673.75
1416.565316	668.5
1417.093072	670.5
1417.620772	666.75
1418.148416	667.0
1418.676005	666.5
1419.203539	669.0
1419.731018	669.5
1420.258441	671.0
1420.785809	669.0
1421.313122	671.5
1421.840379	668.25
1422.367582	670.0
1422.894728	667.0
1423.42182	668.25
1423.948856	667.75
1424.475837	670.25
1425.002762	669.5
1425.529633	669.25
1426.056448	671.75
1426.583207	668.25
1427.109912	668.25
1427.636561	668.75
1428.163155	667.75
1428.689694	666.25
1429.216177	667.75
1429.742605	665.75
1430.268978	667.0
1430.795296	666.25
1431.321558	667.5
1431.847765	666.5
1432.373917	665.0
1432.900014	667.75
1433.426056	667.0
1433.952042	666.25
1434.477973	667.5
1435.003849	666.0
1435.529669	662.5
1436.055435	666.5
1436.581145	666.25
1437.1068	667.0
1437.632399	666.0
1438.157944	667.0
1438.683433	665.75
1439.208868	667.0
1439.734247	665.25
1440.25957	666.25
1440.784839	667.25
1441.310053	667.0
1441.835211	666.25
1442.360314	665.5
1442.885362	663.25
1443.410355	666.25
1443.935292	665.5
1444.460175	667.5
1444.985002	663.25
1445.509774	663.25
1446.034491	667.25
1446.559153	664.25
1447.08376	665.25
1447.608312	667.75
1448.132808	666.0
1448.65725	665.0
1449.181636	667.75
1449.705967	668.0
1450.230243	665.5
1450.754464	667.0
1451.27863	664.5
1451.802741	665.25
1452.326797	664.75
1452.850797	663.25
1453.374743	666.5
1453.898633	666.0
1454.422468	662.75
1454.946249	668.25
1455.469974	669.25
1455.993644	662.25
1456.517259	668.0
1457.040819	665.75
1457.564324	664.5
1458.087773	665.25
1458.611168	666.5
1459.134508	663.5
1459.657793	667.5
1460.181022	662.5
1460.704197	665.5
1461.227316	664.5
1461.750381	667.5
1462.27339	664.0
1462.796345	671.0
1463.319244	692.25
1463.842089	674.0
1464.364878	664.0
1464.887613	665.0
1465.410292	663.75
1465.932916	662.0
1466.455486	660.0
1466.978	666.0
1467.50046	660.75
1468.022864	665.75
1468.545214	661.5
1469.067508	663.75
1469.589748	663.5
1470.111932	667.5
1470.634062	661.75
1471.156136	665.5
1471.678156	662.5
1472.20012	661.75
1472.72203	666.25
1473.243885	664.0
1473.765685	665.5
1474.28743	664.0
1474.80912	664.75
1475.330755	665.75
1475.852335	665.5
1476.37386	665.0
1476.89533	663.25
1477.416745	664.5
1477.938106	661.0
1478.459411	667.25
1478.980662	661.0
1479.501857	664.25
1480.022998	663.5
1480.544084	662.5
1481.065115	661.75
1481.586091	665.25
1482.107012	664.25
1482.627878	668.0
1483.14869	665.0
1483.669446	665.25
1484.190148	663.5
1484.710794	663.75
1485.231386	666.75
1485.751923	662.25
1486.272406	663.75
1486.792833	665.25
1487.313205	664.0
1487.833523	663.25
1488.353786	661.25
1488.873994	664.0
1489.394147	666.5
1489.914245	663.5
1490.434288	665.75
1490.954277	664.25
1491.474211	666.0
1491.99409	666.25
1492.513914	664.5
1493.033683	665.5
1493.553398	664.5
1494.073057	666.5
1494.592662	664.5
1495.112212	662.25
1495.631708	661.75
1496.151148	664.5
1496.670534	664.5
1497.189865	663.75
1497.709141	664.0
1498.228362	665.75
1498.747529	664.75
1499.266641	665.75
1499.785698	675.75
1500.3047	663.75
1500.823648	664.75
1501.34254	664.0
1501.861379	664.25
1502.380162	662.0
1502.89889	664.25
1503.417564	662.75
1503.936183	666.0
1504.454748	665.75
1504.973257	661.75
1505.491712	664.25
1506.010112	663.25
1506.528458	664.25
1507.046748	664.0
1507.564984	662.0
1508.083166	664.25
1508.601292	664.0
1509.119364	664.0
1509.637381	667.75
1510.155344	665.75
1510.673252	674.5
1511.191105	667.25
1511.708903	665.75
1512.226647	664.25
1512.744336	664.0
1513.261971	664.0
1513.77955	664.0
1514.297076	665.5
1514.814546	662.75
1515.331962	664.25
1515.849323	664.75
1516.366629	663.75
1516.883881	663.0
1517.401078	664.75
1517.918221	662.25
1518.435309	660.5
1518.952342	666.0
1519.469321	665.75
1519.986245	665.75
1520.503114	665.25
1521.019929	661.5
1521.536689	667.0
1522.053395	664.5
1522.570046	665.5
1523.086642	664.75
1523.603184	662.5
1524.119671	665.0
1524.636103	663.5
1525.152481	665.75
1525.668805	667.5
1526.185073	681.75
1526.701288	671.5
1527.217447	662.75
1527.733552	667.5
1528.249603	664.0
1528.765599	666.0
1529.28154	664.25
1529.797427	665.75
1530.313259	668.0
1530.829037	665.0
1531.34476	666.25
1531.860429	663.0
1532.376043	663.25
1532.891602	663.5
1533.407107	662.25
1533.922558	666.0
1534.437954	665.5
1534.953295	662.75
1535.468582	663.0
1535.983815	662.5
1536.498993	664.5
1537.014116	666.5
1537.529185	665.0
1538.044199	662.25
1538.559159	664.5
1539.074064	664.25
1539.588915	662.5
1540.103712	664.0
1540.618454	663.75
1541.133141	663.0
1541.647774	663.75
1542.162353	666.0
1542.676877	664.75
1543.191346	663.5
1543.705761	664.5
1544.220122	663.5
1544.734428	661.25
1545.24868	664.25
1545.762877	665.0
1546.27702	663.0
1546.791109	662.5
1547.305143	666.75
1547.819122	664.5
1548.333047	662.75
1548.846918	664.5
1549.360734	664.5
1549.874496	664.5
1550.388204	664.5
1550.901857	663.0
1551.415455	663.75
1551.929	662.5
1552.442489	665.25
1552.955925	664.5
1553.469306	669.0
1553.982632	662.25
1554.495905	669.0
1555.522286	680.0
1556.035395	661.0
1556.54845	664.25
1557.06145	664.0
1557.574396	665.25
1558.087288	662.5
1558.600125	661.0
1559.112908	661.0
1559.625637	665.5
1560.138311	665.75
1560.650931	658.75
1561.163497	665.75
1561.676008	666.25
1562.188465	667.25
1562.700867	663.75
1563.213216	664.75
1563.725509	667.5
1564.237749	661.5
1564.749934	666.5
1565.262065	666.25
1565.774142	663.5
1566.286164	666.75
1566.798132	665.5
1567.310046	665.0
1567.821906	667.0
1568.333711	664.75
1568.845462	665.5
1569.357158	664.25
1569.868801	662.75
1570.380389	668.0
1570.891922	662.5
1571.403402	664.25
1571.914827	663.25
1572.426198	665.0
1572.937515	662.25
1573.448777	663.75
1573.959985	663.25
1574.471139	665.5
1574.982239	661.5
1575.493285	664.5
1576.004276	662.5
1576.515213	662.5
1577.026096	663.75
1577.536924	663.25
1578.047698	662.75
1578.558419	662.25
1579.069084	662.25
1579.579696	666.25
1580.090254	663.5
1580.600757	664.25
1581.111206	662.25
1581.621601	661.5
1582.131941	668.0
1582.642228	662.75
1583.15246	663.0
1583.662638	663.5
1584.172762	662.0
1584.682832	663.75
1585.192847	663.5
1585.702809	663.0
1586.212716	666.25
1586.722569	663.75
1587.232368	664.75
1587.742113	662.0
1588.251803	663.0
1588.76144	663.5
1589.271022	663.0
1589.78055	663.25
1590.290024	663.5
1590.799444	662.75
1591.30881	664.25
1591.818121	660.0
1592.327379	663.25
