1042.414189	699.75
1042.980685	693.0
1043.547124	697.0
1044.113505	692.25
1044.679828	695.0
1045.246093	687.5
1045.8123	684.75
1046.378449	693.0
1046.94454	686.75
1047.510573	686.75
1048.076548	683.5
1048.642465	686.75
1049.208325	686.0
1049.774126	680.75
1050.339869	682.25
1050.905555	681.5
1051.471183	686.5
1052.036752	679.25
1052.602264	681.25
1053.167718	683.5
1053.733114	679.0
1054.298452	675.0
1054.863733	680.5
1055.428955	678.5
1055.994119	678.25
1056.559226	680.0
1057.124275	675.75
1057.689266	676.25
1058.254199	679.75
1058.819074	682.0
1059.383891	679.0
1059.94865	676.0
1060.513352	679.25
1061.077996	679.25
1061.642582	676.0
1062.20711	680.0
1062.77158	673.5
1063.335992	680.0
1063.900347	677.5
1064.464643	675.75
1065.028882	678.5
1065.593063	675.5
1066.157187	674.0
1066.721252	678.25
1067.28526	677.75
1067.84921	672.75
1068.413102	674.0
1068.976936	678.5
1069.540713	674.5
1070.104431	684.0
1070.668092	678.0
1071.231696	674.0
1071.795241	674.25
1072.358729	677.0
1072.922159	671.75
1073.485531	674.75
1074.048845	676.0
1074.612102	675.5
1075.175301	672.0
1075.738442	675.75
1076.301525	674.75
1076.864551	678.25
1077.427519	678.25
1077.990429	676.25
1078.553281	676.25
1079.116076	676.0
1079.678813	674.75
1080.241492	675.0
1080.804114	675.0
1081.366678	674.75
1081.929184	677.25
1082.491633	678.75
1083.054024	678.0
1083.616357	677.0
1084.178632	673.75
1084.74085	676.0
1085.30301	675.5
1086.427158	685.25
1086.989145	673.5
1087.551074	677.0
1088.112946	675.0
1088.67476	676.0
1089.236517	679.25
1089.798216	671.5
1090.359857	675.5
1090.92144	680.0
1091.482966	672.5
1092.044435	675.25
1092.605845	675.5
1093.167199	672.25
1093.728494	676.75
1094.289732	673.25
1094.850912	674.75
1095.412035	684.25
1095.9731	675.75
1096.534107	676.0
1097.095057	683.75
1097.65595	674.5
1098.216784	677.0
1098.777561	677.75
1099.338281	674.75
1099.898943	674.0
1100.459547	674.0
1101.020094	672.0
1101.580584	674.25
1102.141015	674.0
1102.701389	672.25
1103.261706	673.75
1103.821965	674.25
1104.382167	673.5
1104.942311	675.75
1105.502397	675.0
1106.062426	676.0
1106.622398	675.25
1107.182312	674.0
1107.742168	676.0
1108.301967	672.75
1108.861708	673.0
1109.421392	673.5
1109.981019	671.25
1110.540587	674.25
1111.100099	673.0
1111.659553	674.0
1112.218949	676.75
1112.778288	675.25
1113.33757	670.75
1113.896794	674.25
1114.45596	674.75
1115.015069	673.0
1115.574121	673.25
1116.133115	675.25
1116.692052	672.75
1117.250931	676.75
1117.809753	672.0
1118.368517	675.75
1118.927224	674.0
1119.485873	676.0
1120.044465	676.0
1120.603	674.25
1121.161477	675.25
1121.719897	674.25
1122.278259	671.5
1122.836564	673.25
1123.394812	676.75
1123.953002	673.0
1124.511135	669.75
1125.06921	673.75
1125.627228	676.75
1126.185189	673.0
1126.743092	670.25
1127.300938	673.0
1127.858726	673.5
1128.416457	674.75
1128.974131	672.0
1129.531748	673.0
1130.089307	675.5
1130.646808	672.75
1131.204252	671.0
1131.761639	672.0
1132.318969	671.5
1132.876241	672.5
1133.433456	675.0
1133.990614	671.75
1134.547714	671.75
1135.104757	671.75
1135.661743	677.75
1136.218671	673.0
1136.775542	674.0
1137.332356	673.0
1137.889112	674.75
1138.445811	672.25
1139.002453	674.75
1139.559037	672.75
1140.115565	673.5
1140.672035	671.25
1141.228447	672.25
1141.784803	674.25
1142.341101	673.75
1142.897342	671.5
1143.453525	672.75
1144.009651	673.75
1144.565721	674.5
1145.121732	672.25
1145.677687	671.75
1146.233584	673.0
1146.789424	670.25
1147.345207	674.5
1147.900933	672.25
1148.456601	673.0
1149.012212	674.5
1149.567766	675.0
1150.123263	674.0
1150.678702	674.5
1151.234085	673.75
1151.78941	678.0
1152.344678	670.25
1152.899888	675.75
1153.455042	673.0
1154.010138	675.5
1154.565177	673.0
1155.120159	675.0
1155.675084	673.75
1156.229951	674.0
1156.784762	672.5
1157.339515	675.25
1157.894211	673.75
1158.44885	672.0
1159.003432	676.0
1159.557956	675.25
1160.112424	670.75
1160.666834	673.75
1161.221187	672.5
1161.775483	670.75
1162.329722	671.25
1162.883904	674.75
1163.438029	675.25
1163.992096	672.25
1164.546107	670.5
1165.10006	675.25
1165.653956	676.0
1166.207795	669.25
1166.761577	672.25
1167.315302	671.5
1167.86897	673.25
1168.422581	674.0
1168.976134	675.25
1169.529631	674.25
1170.08307	673.0
1170.636453	673.0
1171.189778	673.75
1171.743046	670.25
1172.296257	675.25
1172.849412	675.25
1173.402509	671.25
1173.955549	676.25
1174.508532	673.75
1175.061458	673.75
1175.614327	675.5
1176.167138	674.25
1176.719893	673.75
1177.272591	671.75
1177.825232	671.25
1178.377816	671.5
1178.930342	674.0
1179.482812	672.5
1180.035225	673.0
1180.587581	675.0
1181.139879	675.5
1181.692121	672.5
1182.244306	678.5
1182.796434	673.75
1183.348504	673.5
1183.900518	672.0
1184.452475	673.0
1185.004375	675.75
1185.556218	677.0
1186.108004	674.5
1186.659733	675.5
1187.211405	672.0
1187.76302	674.0
1188.314578	674.25
1188.866079	676.5
1189.417523	673.25
1189.96891	677.75
1190.520241	672.0
1191.071514	677.0
1191.622731	675.0
1192.17389	673.25
1192.724993	672.0
1193.276039	695.75
1193.827027	673.0
1194.377959	672.75
1194.928834	673.75
1195.479653	674.0
1196.030414	669.0
1196.581118	674.5
1197.131766	671.75
1197.682356	673.0
1198.23289	672.75
1198.783367	671.0
1199.333786	669.5
1199.88415	676.75
1200.434456	672.0
1200.984705	674.5
1201.534898	670.25
1202.085033	675.5
1202.635112	678.75
1203.185134	674.5
1203.735099	670.0
1204.285007	673.0
1204.834859	671.75
1205.384653	675.0
1205.934391	673.25
1206.484072	670.75
1207.033696	673.75
1207.583263	674.25
1208.132774	672.75
1208.682228	672.25
1209.231624	674.25
1209.780965	674.25
1210.330248	671.5
1210.879474	677.25
1211.428644	674.5
1211.977757	673.5
1212.526813	677.0
1213.075813	674.75
1213.624755	675.0
1214.173641	674.25
1214.72247	674.0
1215.271242	676.25
1215.819958	676.75
1216.368617	672.75
1216.917219	675.0
1217.465764	675.0
1218.014253	673.75
1218.562685	670.75
1219.11106	674.0
1219.659378	672.25
1220.20764	676.0
1220.755845	674.75
1221.303993	670.0
1221.852085	671.25
1222.400119	674.5
1222.948097	675.5
1223.496019	676.5
1224.043883	675.5
1224.591691	673.75
1225.139443	675.0
1225.687137	670.25
1226.234775	674.25
1226.782357	677.5
1227.329881	672.75
1227.877349	671.5
1228.42476	674.5
1228.972115	673.0
1229.519413	673.75
1230.066654	673.25
1230.613839	673.5
1231.160967	674.0
1231.708038	676.25
1232.255053	675.25
1232.802011	678.0
1233.348912	675.75
1233.895757	677.25
1234.442545	674.75
1234.989277	674.75
1235.535951	675.75
1236.08257	673.0
1236.629131	673.5
1237.175636	673.5
1237.722085	675.0
1238.268477	677.25
1238.814812	676.5
1239.361091	674.75
1239.907313	675.25
1240.453478	674.0
1240.999587	676.5
1241.54564	676.0
1242.091636	676.0
1242.637575	670.75
1243.183457	675.5
1243.729284	678.0
1244.275053	675.0
1244.820766	691.25
1245.912022	676.75
1246.457566	669.0
1247.003053	676.75
1247.548483	675.75
1248.093857	676.0
1248.639174	672.75
1249.184435	675.5
1249.729639	676.5
1250.274787	675.25
1250.819878	675.5
1251.364912	675.75
1251.909891	673.5
1252.454812	673.25
1252.999677	677.25
1253.544486	676.25
1254.089238	676.5
1254.633934	673.75
1255.178573	676.25
1255.723156	671.75
1256.267682	674.25
1256.812152	676.0
1257.356565	675.25
1257.900922	673.5
1258.445223	675.5
1258.989467	678.0
1259.533654	677.0
1260.077785	691.0
1260.62186	677.75
1261.165878	677.0
1261.70984	676.25
1262.253745	675.25
1262.797594	677.25
1263.341386	682.0
1263.885123	682.25
1264.428802	683.0
1264.972425	684.5
1265.515992	683.75
1266.059503	676.5
1266.602957	679.25
1267.146354	675.75
1267.689696	681.0
1268.23298	677.5
1268.776209	672.0
1269.319381	676.75
1269.862497	673.5
1270.405556	676.0
1270.948559	675.25
1271.491506	676.75
1272.034396	674.0
1272.57723	676.5
1273.120007	677.75
1273.662728	678.5
1274.205393	673.5
1274.748002	678.25
1275.290554	679.5
1275.83305	679.0
1276.375489	675.25
1276.917872	675.0
1277.460199	677.75
1278.00247	677.5
1278.544684	676.75
1279.086842	678.0
1279.628943	677.5
1280.170989	679.25
1280.712978	675.5
1281.25491	683.25
1281.796787	683.5
1282.338607	688.5
1282.880371	704.75
1283.422078	726.5
1283.963729	768.75
1284.505324	800.5
1285.046863	789.5
1285.588345	746.0
1286.129772	701.0
1286.671142	691.75
1287.212455	682.5
1287.753713	683.0
1288.294914	676.5
1288.836059	679.75
1289.377147	675.5
1289.91818	675.5
1290.459156	676.0
1291.000076	676.5
1291.54094	679.75
1292.081747	675.5
1292.622499	673.25
1293.163194	676.75
1293.703833	679.25
1294.244415	677.0
1294.784942	677.75
1295.325412	676.0
1295.865826	675.25
1296.406184	675.5
1296.946486	679.25
1297.486731	673.5
1298.026921	676.5
1298.567054	676.5
1299.107131	674.25
1299.647152	675.75
1300.187116	678.5
1300.727025	673.0
1301.266877	676.25
1301.806673	679.25
1302.346413	674.5
1302.886097	673.75
1303.425725	675.5
1303.965297	677.25
1304.504812	674.25
1305.044272	676.25
1305.583675	676.25
1306.123022	675.75
1306.662313	677.0
1307.201548	676.5
1307.740727	675.75
1308.279849	674.0
1308.818916	675.25
1309.357926	678.5
1309.896881	673.0
1310.435779	675.75
1310.974621	676.0
1311.513407	672.25
1312.052137	673.5
1312.590811	675.5
1313.129429	671.75
1313.667991	679.0
1314.206497	677.75
1314.744946	680.5
1315.28334	675.5
1315.821678	677.25
1316.359959	673.0
1316.898184	673.25
1317.436354	675.75
1317.974467	676.0
1318.512525	677.5
1319.050526	677.75
1319.588471	672.5
1320.12636	675.25
1320.664194	675.25
1321.201971	674.25
1321.739692	677.25
1322.277357	675.0
1322.814967	674.5
1323.35252	674.75
1323.890017	680.5
1324.427458	678.0
1324.964843	675.5
1325.502173	675.25
1326.039446	676.75
1326.576663	674.0
1327.113824	671.75
1327.65093	675.0
1328.187979	676.0
1328.724972	674.25
1329.26191	674.0
1329.798791	675.75
1330.335617	676.5
1330.872386	673.0
1331.4091	675.5
1331.945758	674.75
1332.48236	673.0
1333.018905	676.0
1333.555395	675.5
1334.091829	669.75
1334.628207	676.0
1335.164529	677.75
1335.700796	675.75
1336.237006	673.25
1336.77316	675.0
1337.309259	675.5
1337.845301	677.0
1338.381288	676.0
1338.917219	679.5
1339.453094	673.75
1339.988913	675.25
1340.524676	673.25
1341.060383	671.25
1341.596034	675.5
1342.13163	678.5
1342.66717	678.0
1343.202653	675.5
1343.738081	677.0
1344.273453	674.0
1344.80877	673.25
1345.34403	673.5
1345.879235	673.75
1346.414383	676.5
1346.949476	672.25
1347.484513	677.25
1348.019494	677.75
1348.55442	678.75
1349.089289	676.0
1349.624103	676.75
1350.158861	676.75
1350.693563	675.25
1351.228209	673.5
1351.7628	680.5
1352.297334	675.25
1352.831813	675.25
1353.366236	674.75
1353.900604	671.25
1354.434915	675.75
1354.969171	673.25
1355.503371	673.25
1356.037515	674.25
1356.571604	673.0
1357.105636	677.75
1357.639613	676.0
1358.173535	678.0
1358.7074	674.25
1359.24121	676.75
1359.774964	678.0
1360.308662	677.5
1360.842304	677.75
1361.375891	673.75
1361.909422	679.75
1362.442897	680.25
1362.976317	675.25
1363.50968	672.75
1364.042989	673.0
1364.576241	676.25
1365.109438	679.75
1365.642579	676.5
1366.175664	677.0
1366.708693	676.25
1367.241667	677.75
1367.774585	675.0
1368.307448	673.75
1368.840255	678.5
1369.373006	675.75
1369.905701	678.5
1370.438341	683.0
1370.970925	681.0
1371.503454	678.5
1372.035926	674.25
1372.568344	676.75
1373.100705	676.25
1373.633011	672.5
1374.165261	672.25
1374.697456	674.5
1375.229595	677.25
1375.761678	675.0
1376.293705	675.5
1376.825677	678.25
1377.357594	677.25
1377.889455	676.75
1378.42126	675.0
1378.953009	676.25
1379.484703	679.25
1380.016342	678.0
1380.547924	678.0
1381.079452	676.75
1381.610923	675.75
1382.142339	678.75
1382.673699	676.75
1383.205004	678.0
1383.736253	681.75
1384.267447	678.25
1384.798585	681.0
1385.329668	683.25
1385.860695	687.0
1386.391666	696.0
1386.922582	717.75
1387.453442	772.25
1387.984247	897.75
1388.514996	956.75
1389.04569	830.25
1389.576328	730.0
1390.10691	697.5
1390.637437	690.25
1391.167909	682.75
1391.698325	678.0
1392.228685	681.25
1392.75899	675.5
1393.28924	677.5
1393.819434	680.75
1394.349572	680.0
1394.879655	678.5
1395.409683	681.0
1395.939655	677.75
1396.469571	678.0
1396.999432	678.0
1397.529237	676.75
1398.058987	677.25
1398.588682	678.0
1399.118321	679.5
1399.647905	675.5
1400.177433	674.5
1400.706906	677.25
1401.236323	678.0
1401.765685	678.5
1402.294991	673.25
1402.824242	678.0
1403.353437	675.25
1403.882577	678.5
1404.411662	675.75
1404.940691	680.75
1405.469665	677.75
1405.998583	679.0
1406.527446	678.5
1407.056253	678.0
1407.585005	677.5
1408.113702	681.25
1408.642343	684.75
1409.170929	684.75
1409.69946	689.0
1410.227935	691.25
1410.756354	685.0
1411.284719	680.75
1411.813028	678.25
1412.341281	681.75
1412.869479	674.75
1413.397622	676.75
1413.92571	676.0
1414.453742	677.75
1414.981718	679.5
1415.50964	689.5
1416.037506	673.25
1416.565316	674.75
1417.093072	677.5
1417.620772	674.75
1418.148416	676.25
1418.676005	675.25
1419.203539	674.75
1419.731018	676.0
1420.258441	677.75
1420.785809	676.25
1421.313122	671.25
1421.840379	677.0
1422.367582	676.0
1422.894728	678.75
1423.42182	674.5
1423.948856	676.5
1424.475837	677.5
1425.002762	670.75
1425.529633	675.75
1426.056448	675.5
1426.583207	673.0
1427.109912	678.0
1427.636561	675.25
1428.163155	677.5
1428.689694	677.0
1429.216177	677.75
1429.742605	673.75
1430.268978	675.75
1430.795296	678.5
1431.321558	676.0
1431.847765	674.5
1432.373917	676.75
1432.900014	676.75
1433.426056	676.25
1433.952042	673.25
1434.477973	675.5
1435.003849	674.5
1435.529669	675.25
1436.055435	677.25
1436.581145	677.25
1437.1068	672.0
1437.632399	673.25
1438.157944	674.5
1438.683433	675.5
1439.208868	673.25
1439.734247	676.0
1440.25957	671.0
1440.784839	676.0
1441.310053	676.25
1441.835211	673.75
1442.360314	677.0
1442.885362	674.5
1443.410355	672.0
1443.935292	672.5
1444.460175	675.5
1444.985002	675.75
1445.509774	674.75
1446.034491	679.75
1446.559153	676.0
1447.08376	674.75
1447.608312	674.75
1448.132808	675.25
1448.65725	674.25
1449.181636	677.5
1449.705967	673.0
1450.230243	675.25
1450.754464	677.75
1451.27863	676.75
1451.802741	676.25
1452.326797	674.25
1452.850797	673.5
1453.374743	676.5
1453.898633	676.25
1454.422468	677.0
1454.946249	671.5
1455.469974	674.25
1455.993644	674.75
1456.517259	673.25
1457.040819	674.0
1457.564324	675.75
1458.087773	677.0
1458.611168	672.5
1459.134508	676.0
1459.657793	675.0
1460.181022	675.75
1460.704197	675.25
1461.227316	677.75
1461.750381	675.75
1462.27339	676.25
1462.796345	681.0
1463.319244	694.0
1463.842089	676.75
1464.364878	671.75
1464.887613	676.0
1465.410292	679.0
1465.932916	673.5
1466.455486	673.75
1466.978	674.0
1467.50046	672.75
1468.022864	679.5
1468.545214	676.5
1469.067508	676.5
1469.589748	678.25
1470.111932	678.75
1470.634062	669.0
1471.156136	674.75
1471.678156	677.0
1472.20012	675.5
1472.72203	674.5
1473.243885	675.75
1473.765685	674.25
1474.28743	672.5
1474.80912	678.0
1475.330755	672.5
1475.852335	677.0
1476.37386	677.25
1476.89533	677.0
1477.416745	674.25
1477.938106	675.25
1478.459411	677.25
1478.980662	675.5
1479.501857	674.75
1480.022998	677.25
1480.544084	676.5
1481.065115	673.5
1481.586091	673.75
1482.107012	678.75
1482.627878	674.75
1483.14869	674.25
1483.669446	671.0
1484.190148	674.75
1484.710794	674.0
1485.231386	676.25
1485.751923	674.0
1486.272406	672.75
1486.792833	676.5
1487.313205	678.25
1487.833523	676.75
1488.353786	674.25
1488.873994	674.75
1489.394147	675.0
1489.914245	675.5
1490.434288	677.0
1490.954277	672.25
1491.474211	675.5
1491.99409	674.75
1492.513914	677.0
1493.033683	673.75
1493.553398	674.75
1494.073057	674.75
1494.592662	675.75
1495.112212	675.0
1495.631708	676.5
1496.151148	673.5
1496.670534	676.25
1497.189865	673.75
1497.709141	672.25
1498.228362	675.25
1498.747529	671.5
1499.266641	678.5
1499.785698	683.5
1500.3047	677.5
1500.823648	675.75
1501.34254	674.0
1501.861379	674.75
1502.380162	677.5
1502.89889	674.25
1503.417564	673.5
1503.936183	673.0
1504.454748	676.0
1504.973257	671.75
1505.491712	672.0
1506.010112	674.0
1506.528458	675.5
1507.046748	671.75
1507.564984	672.25
1508.083166	674.5
1508.601292	676.5
1509.119364	675.75
1509.637381	675.0
1510.155344	676.0
1510.673252	683.75
1511.191105	675.75
1511.708903	677.5
1512.226647	674.25
1512.744336	674.5
1513.261971	673.75
1513.77955	674.25
1514.297076	678.75
1514.814546	673.25
1515.331962	677.0
1515.849323	675.0
1516.366629	675.5
1516.883881	674.75
1517.401078	676.25
1517.918221	674.0
1518.435309	674.5
1518.952342	675.25
1519.469321	675.5
1519.986245	675.0
1520.503114	671.0
1521.019929	674.25
1521.536689	673.25
1522.053395	672.75
1522.570046	675.75
1523.086642	676.5
1523.603184	675.5
1524.119671	675.25
1524.636103	673.0
1525.152481	675.75
1525.668805	677.5
1526.185073	692.75
1526.701288	679.0
1527.217447	679.5
1527.733552	673.75
1528.249603	674.5
1528.765599	673.75
1529.28154	676.25
1529.797427	675.75
1530.313259	674.5
1530.829037	674.0
1531.34476	673.0
1531.860429	676.0
1532.376043	677.25
1532.891602	674.25
1533.407107	676.75
1533.922558	676.5
1534.437954	677.5
1534.953295	675.5
1535.468582	674.5
1535.983815	675.5
1536.498993	674.5
1537.014116	673.75
1537.529185	673.5
1538.044199	671.25
1538.559159	675.5
1539.074064	670.75
1539.588915	677.25
1540.103712	674.25
1540.618454	674.0
1541.133141	675.5
1541.647774	671.25
1542.162353	673.75
1542.676877	677.75
1543.191346	673.5
1543.705761	678.0
1544.220122	673.25
1544.734428	674.25
1545.24868	676.75
1545.762877	675.25
1546.27702	673.5
1546.791109	672.25
1547.305143	677.0
1547.819122	677.75
1548.333047	675.75
1548.846918	672.75
1549.360734	674.25
1549.874496	674.5
1550.388204	674.5
1550.901857	674.25
1551.415455	675.25
1551.929	676.0
1552.442489	677.0
1552.955925	670.25
1553.469306	675.5
1553.982632	676.75
1554.495905	675.0
1555.009123	677.5
1555.522286	673.75
1556.035395	678.25
1556.54845	675.0
1557.06145	675.0
1557.574396	678.25
1558.087288	677.75
1558.600125	676.0
1559.112908	676.5
1559.625637	674.75
1560.138311	675.0
1560.650931	676.5
1561.163497	673.75
1561.676008	679.5
1562.188465	677.0
1562.700867	677.25
1563.213216	677.75
1563.725509	677.0
1564.237749	677.5
1564.749934	675.75
1565.262065	675.75
1565.774142	673.5
1566.286164	677.25
1566.798132	677.25
1567.310046	677.0
1567.821906	675.75
1568.333711	676.75
1568.845462	679.75
1569.357158	679.5
1569.868801	675.5
1570.380389	676.0
1570.891922	676.25
1571.403402	675.25
1571.914827	674.0
1572.426198	675.75
1572.937515	674.25
1573.448777	679.0
1573.959985	677.0
1574.471139	675.5
1574.982239	677.75
1575.493285	676.0
1576.004276	674.0
1576.515213	678.0
1577.026096	675.5
1577.536924	672.0
1578.047698	674.25
1578.558419	673.25
1579.069084	676.0
1579.579696	677.5
1580.090254	674.0
1580.600757	675.5
1581.111206	676.0
1581.621601	674.25
1582.131941	673.25
1582.642228	677.0
1583.15246	675.25
1583.662638	677.25
1584.172762	678.75
1584.682832	674.75
1585.192847	675.0
1585.702809	678.25
1586.212716	673.25
1586.722569	676.0
1587.232368	674.75
1587.742113	672.75
1588.251803	675.75
1588.76144	677.0
1589.271022	673.5
1589.78055	674.75
1590.290024	670.5
1590.799444	675.5
1591.30881	671.0
1591.818121	675.5
1592.327379	674.25
