1042.414189	698.5
1042.980685	691.75
1043.547124	692.75
1044.113505	691.25
1044.679828	687.0
1045.246093	687.5
1045.8123	689.25
1046.378449	686.25
1046.94454	686.75
1047.510573	683.25
1048.076548	684.75
1048.642465	683.5
1049.208325	686.75
1049.774126	683.25
1050.339869	680.25
1050.905555	683.5
1051.471183	680.75
1052.036752	679.75
1052.602264	677.5
1053.167718	680.5
1053.733114	676.5
1054.298452	676.75
1054.863733	677.25
1055.428955	677.0
1055.994119	678.25
1056.559226	677.25
1057.124275	676.25
1057.689266	675.0
1058.254199	676.0
1058.819074	676.75
1059.383891	677.75
1059.94865	678.75
1060.513352	676.0
1061.077996	677.5
1061.642582	676.25
1062.20711	675.25
1062.77158	674.25
1063.335992	675.0
1063.900347	675.0
1064.464643	675.75
1065.028882	671.75
1065.593063	677.25
1066.157187	678.0
1066.721252	673.25
1067.28526	672.75
1067.84921	672.0
1068.413102	675.25
1068.976936	674.0
1069.540713	672.75
1070.104431	681.5
1070.668092	673.25
1071.231696	674.75
1071.795241	671.0
1072.358729	675.5
1072.922159	678.5
1073.485531	674.0
1074.048845	673.5
1074.612102	671.5
1075.175301	672.0
1075.738442	674.5
1076.301525	675.75
1076.864551	676.5
1077.427519	672.0
1077.990429	670.0
1078.553281	673.0
1079.116076	673.25
1079.678813	671.5
1080.241492	673.75
1080.804114	673.75
1081.366678	672.0
1081.929184	675.25
1082.491633	678.0
1083.054024	671.25
1083.616357	672.5
1084.178632	673.75
1084.74085	675.25
1085.30301	673.25
1085.865113	674.25
1086.427158	670.5
1086.989145	670.5
1087.551074	674.0
1088.112946	672.5
1088.67476	673.75
1089.236517	676.5
1089.798216	673.25
1090.359857	671.25
1090.92144	674.5
1091.482966	674.0
1092.044435	674.5
1092.605845	675.0
1093.167199	676.5
1093.728494	674.25
1094.289732	674.0
1094.850912	675.0
1095.412035	683.0
1095.9731	673.5
1096.534107	673.5
1097.095057	678.75
1097.65595	672.0
1098.216784	670.0
1098.777561	670.0
1099.338281	671.5
1099.898943	672.25
1100.459547	672.75
1101.020094	671.25
1101.580584	670.0
1102.141015	669.5
1102.701389	670.25
1103.261706	670.75
1103.821965	674.25
1104.382167	672.75
1104.942311	669.5
1105.502397	671.5
1106.062426	672.5
1106.622398	674.5
1107.182312	668.75
1107.742168	672.75
1108.301967	676.75
1108.861708	669.5
1109.421392	671.25
1109.981019	671.25
1110.540587	672.25
1111.100099	675.25
1111.659553	669.75
1112.218949	673.25
1112.778288	671.5
1113.33757	672.5
1113.896794	671.25
1114.45596	671.75
1115.015069	668.25
1115.574121	670.5
1116.133115	671.0
1116.692052	673.0
1117.250931	672.5
1117.809753	673.25
1118.368517	672.25
1118.927224	671.5
1119.485873	670.25
1120.044465	672.25
1120.603	668.75
1121.161477	673.25
1121.719897	671.25
1122.278259	669.0
1122.836564	673.25
1123.394812	672.5
1123.953002	671.5
1124.511135	670.75
1125.06921	674.0
1125.627228	671.75
1126.185189	673.0
1126.743092	670.25
1127.300938	672.5
1127.858726	672.0
1128.416457	668.75
1128.974131	670.5
1129.531748	668.75
1130.089307	671.0
1130.646808	673.5
1131.204252	672.25
1131.761639	672.5
1132.318969	670.0
1132.876241	667.5
1133.433456	668.25
1133.990614	671.0
1134.547714	671.0
1135.104757	671.75
1135.661743	668.75
1136.218671	671.75
1136.775542	669.25
1137.332356	672.5
1137.889112	671.25
1138.445811	669.0
1139.002453	669.0
1139.559037	672.0
1140.115565	668.25
1140.672035	669.75
1141.228447	673.75
1141.784803	673.25
1142.341101	670.0
1142.897342	668.0
1143.453525	666.5
1144.009651	670.5
1144.565721	670.0
1145.121732	670.75
1145.677687	673.25
1146.233584	671.5
1146.789424	670.5
1147.345207	671.5
1147.900933	674.25
1148.456601	672.75
1149.012212	672.0
1149.567766	671.5
1150.123263	674.75
1150.678702	672.0
1151.234085	669.0
1151.78941	671.0
1152.344678	671.75
1152.899888	670.75
1153.455042	673.75
1154.010138	672.5
1154.565177	668.5
1155.120159	671.5
1155.675084	670.0
1156.229951	674.0
1156.784762	672.0
1157.339515	675.5
1157.894211	673.0
1158.44885	671.5
1159.003432	671.75
1159.557956	672.25
1160.112424	673.5
1160.666834	672.75
1161.221187	671.75
1161.775483	672.25
1162.329722	671.0
1162.883904	671.0
1163.438029	670.5
1163.992096	673.0
1164.546107	672.25
1165.10006	673.0
1165.653956	670.75
1166.207795	672.75
1166.761577	670.75
1167.315302	671.75
1167.86897	672.25
1168.422581	671.5
1168.976134	670.5
1169.529631	674.5
1170.08307	673.75
1170.636453	672.5
1171.189778	668.25
1171.743046	672.25
1172.296257	672.25
1172.849412	671.5
1173.402509	674.0
1173.955549	672.25
1174.508532	668.25
1175.061458	667.75
1175.614327	671.75
1176.167138	669.75
1176.719893	673.75
1177.272591	672.25
1177.825232	675.0
1178.377816	670.25
1178.930342	674.25
1179.482812	669.25
1180.035225	670.0
1180.587581	673.5
1181.139879	668.75
1181.692121	672.5
1182.244306	669.5
1182.796434	670.0
1183.348504	672.75
1183.900518	671.5
1184.452475	673.0
1185.004375	673.75
1185.556218	672.25
1186.108004	667.75
1186.659733	672.5
1187.211405	670.75
1187.76302	672.5
1188.314578	670.75
1188.866079	666.75
1189.417523	673.75
1189.96891	669.5
1190.520241	669.75
1191.071514	672.25
1191.622731	672.75
1192.17389	669.5
1192.724993	672.75
1193.276039	690.5
1193.827027	667.25
1194.377959	671.0
1194.928834	670.0
1195.479653	674.75
1196.030414	674.75
1196.581118	670.5
1197.131766	672.0
1197.682356	671.0
1198.23289	673.25
1198.783367	673.0
1199.333786	673.75
1199.88415	670.75
1200.434456	672.0
1200.984705	670.5
1201.534898	674.0
1202.085033	672.75
1202.635112	674.25
1203.185134	674.5
1203.735099	673.0
1204.285007	672.25
1204.834859	671.75
1205.384653	671.25
1205.934391	672.0
1206.484072	671.25
1207.033696	668.75
1207.583263	669.0
1208.132774	670.75
1208.682228	672.75
1209.231624	672.75
1209.780965	671.75
1210.330248	674.0
1210.879474	673.0
1211.428644	673.25
1211.977757	672.5
1212.526813	674.0
1213.075813	673.0
1213.624755	672.25
1214.173641	676.0
1214.72247	673.0
1215.271242	671.75
1215.819958	670.75
1216.368617	671.75
1216.917219	671.25
1217.465764	672.0
1218.014253	673.0
1218.562685	671.25
1219.11106	672.25
1219.659378	672.0
1220.20764	669.25
1220.755845	672.75
1221.303993	672.5
1221.852085	672.0
1222.400119	673.25
1222.948097	671.25
1223.496019	670.25
1224.043883	670.75
1224.591691	672.75
1225.139443	669.5
1225.687137	675.25
1226.234775	672.0
1226.782357	668.75
1227.329881	670.5
1227.877349	671.25
1228.42476	674.0
1228.972115	673.5
1229.519413	671.25
1230.066654	674.25
1230.613839	673.25
1231.160967	673.0
1231.708038	671.25
1232.255053	670.5
1232.802011	674.0
1233.348912	673.0
1233.895757	674.5
1234.442545	672.0
1234.989277	671.75
1235.535951	675.5
1236.08257	673.25
1236.629131	672.5
1237.175636	671.25
1237.722085	671.5
1238.268477	674.0
1238.814812	673.75
1239.361091	673.5
1239.907313	672.25
1240.453478	675.25
1240.999587	673.25
1241.54564	673.75
1242.091636	671.25
1242.637575	673.0
1243.183457	672.25
1243.729284	672.25
1244.275053	669.0
1244.820766	674.5
1245.366423	672.25
1245.912022	671.75
1246.457566	673.75
1247.003053	673.0
1247.548483	673.0
1248.093857	674.25
1248.639174	674.0
1249.184435	675.0
1249.729639	672.25
1250.274787	673.25
1250.819878	673.0
1251.364912	672.25
1251.909891	674.0
1252.454812	672.0
1252.999677	673.0
1253.544486	673.75
1254.089238	670.75
1254.633934	671.75
1255.178573	673.25
1255.723156	671.0
1256.267682	673.5
1256.812152	674.75
1257.356565	673.25
1257.900922	672.0
1258.445223	669.5
1258.989467	675.0
1259.533654	671.25
1260.077785	687.75
1260.62186	674.5
1261.165878	676.25
1261.70984	674.0
1262.253745	676.25
1262.797594	676.25
1263.341386	676.25
1263.885123	678.25
1264.428802	679.25
1264.972425	684.0
1265.515992	673.0
1266.059503	676.0
1266.602957	678.0
1267.146354	675.75
1267.689696	673.0
1268.23298	675.75
1268.776209	675.25
1269.319381	673.75
1269.862497	674.0
1270.405556	672.25
1270.948559	674.25
1271.491506	675.25
1272.034396	673.5
1272.57723	670.5
1273.120007	670.5
1273.662728	671.5
1274.205393	672.75
1274.748002	671.75
1275.290554	672.0
1275.83305	672.25
1276.375489	676.75
1276.917872	675.75
1277.460199	672.5
1278.00247	675.0
1278.544684	674.0
1279.086842	677.5
1279.628943	674.0
1280.170989	675.5
1280.712978	677.0
1281.25491	679.5
1281.796787	680.5
1282.338607	685.25
1282.880371	699.75
1283.422078	727.5
1283.963729	764.0
1284.505324	802.0
1285.046863	781.0
1285.588345	732.25
1286.129772	700.0
1286.671142	684.25
1287.212455	679.75
1287.753713	677.25
1288.294914	677.25
1288.836059	676.0
1289.377147	676.25
1289.91818	674.75
1290.459156	673.75
1291.000076	674.75
1291.54094	673.5
1292.081747	674.5
1292.622499	671.75
1293.163194	671.5
1293.703833	675.5
1294.244415	676.0
1294.784942	671.25
1295.325412	673.0
1295.865826	675.5
1296.406184	675.75
1296.946486	674.75
1297.486731	672.25
1298.026921	673.25
1298.567054	673.5
1299.107131	671.75
1299.647152	673.25
1300.187116	677.75
1300.727025	670.25
1301.266877	675.75
1301.806673	672.5
1302.346413	673.25
1302.886097	670.5
1303.425725	674.0
1303.965297	671.75
1304.504812	672.25
1305.044272	673.5
1305.583675	674.0
1306.123022	672.5
1306.662313	673.0
1307.201548	672.0
1307.740727	673.25
1308.279849	672.0
1308.818916	673.0
1309.357926	671.0
1309.896881	671.5
1310.435779	672.75
1310.974621	676.25
1311.513407	674.25
1312.052137	672.5
1312.590811	673.5
1313.129429	675.25
1313.667991	672.5
1314.206497	674.5
1314.744946	673.0
1315.28334	673.75
1315.821678	672.0
1316.359959	674.25
1316.898184	677.25
1317.436354	672.0
1317.974467	673.5
1318.512525	678.25
1319.050526	672.75
1319.588471	674.25
1320.12636	672.5
1320.664194	671.0
1321.201971	673.25
1321.739692	673.25
1322.277357	672.75
1322.814967	673.25
1323.35252	672.0
1323.890017	676.75
1324.427458	672.75
1324.964843	673.75
1325.502173	672.25
1326.039446	670.5
1326.576663	672.5
1327.113824	671.25
1327.65093	672.5
1328.187979	672.0
1328.724972	674.5
1329.26191	674.25
1329.798791	672.75
1330.335617	675.5
1330.872386	670.75
1331.4091	673.25
1331.945758	673.5
1332.48236	673.5
1333.018905	673.0
1333.555395	673.5
1334.091829	673.5
1334.628207	670.5
1335.164529	673.5
1335.700796	674.75
1336.237006	672.25
1336.77316	673.25
1337.309259	674.75
1337.845301	670.0
1338.381288	675.25
1338.917219	672.0
1339.453094	673.25
1339.988913	670.5
1340.524676	673.75
1341.060383	675.75
1341.596034	671.0
1342.13163	677.75
1342.66717	672.0
1343.202653	674.0
1343.738081	672.25
1344.273453	676.0
1344.80877	673.0
1345.34403	677.75
1345.879235	673.25
1346.414383	673.75
1346.949476	673.75
1347.484513	670.25
1348.019494	670.5
1348.55442	670.0
1349.089289	671.25
1349.624103	674.25
1350.158861	671.75
1350.693563	672.0
1351.228209	673.5
1351.7628	673.25
1352.297334	671.5
1352.831813	671.75
1353.366236	672.25
1353.900604	674.75
1354.434915	668.75
1354.969171	671.75
1355.503371	673.5
1356.037515	674.0
1356.571604	678.0
1357.105636	672.25
1357.639613	673.25
1358.173535	672.25
1358.7074	671.75
1359.24121	674.75
1359.774964	673.5
1360.308662	672.25
1360.842304	672.75
1361.375891	673.0
1361.909422	670.75
1362.442897	675.5
1362.976317	672.75
1363.50968	671.5
1364.042989	674.0
1364.576241	671.0
1365.109438	672.75
1365.642579	673.0
1366.175664	675.0
1366.708693	672.0
1367.241667	671.0
1367.774585	675.5
1368.307448	675.25
1368.840255	677.25
1369.373006	675.75
1369.905701	676.75
1370.438341	677.75
1370.970925	678.75
1371.503454	671.0
1372.035926	674.0
1372.568344	671.0
1373.100705	673.75
1373.633011	672.0
1374.165261	677.0
1374.697456	672.25
1375.229595	674.0
1375.761678	673.0
1376.293705	675.0
1376.825677	674.25
1377.357594	673.25
1377.889455	675.25
1378.42126	676.0
1378.953009	675.5
1379.484703	675.5
1380.016342	675.75
1380.547924	673.75
1381.079452	677.0
1381.610923	675.5
1382.142339	673.75
1382.673699	675.25
1383.205004	676.75
1383.736253	675.5
1384.267447	676.5
1384.798585	680.75
1385.329668	686.0
1385.860695	687.75
1386.391666	693.25
1386.922582	715.25
1387.453442	778.75
1387.984247	891.25
1388.514996	950.5
1389.04569	828.5
1389.576328	727.75
1390.10691	695.5
1390.637437	683.0
1391.167909	681.0
1391.698325	682.0
1392.228685	680.25
1392.75899	679.25
1393.28924	675.75
1393.819434	678.5
1394.349572	673.75
1394.879655	677.25
1395.409683	678.0
1395.939655	674.75
1396.469571	672.25
1396.999432	678.0
1397.529237	675.5
1398.058987	675.5
1398.588682	675.25
1399.118321	675.0
1399.647905	675.25
1400.177433	675.75
1400.706906	676.25
1401.236323	674.5
1401.765685	673.25
1402.294991	673.25
1402.824242	675.5
1403.353437	670.75
1403.882577	671.25
1404.411662	674.25
1404.940691	676.5
1405.469665	675.25
1405.998583	672.75
1406.527446	677.25
1407.056253	678.0
1407.585005	679.25
1408.113702	678.25
1408.642343	681.5
1409.170929	680.25
1409.69946	685.5
1410.227935	690.0
1410.756354	679.0
1411.284719	678.75
1411.813028	676.25
1412.341281	674.5
1412.869479	672.75
1413.397622	673.5
1413.92571	675.0
1414.453742	674.75
1414.981718	674.0
1415.50964	689.0
1416.037506	675.0
1416.565316	672.25
1417.093072	676.0
1417.620772	675.25
1418.148416	671.25
1418.676005	673.25
1419.203539	672.75
1419.731018	671.75
1420.258441	675.25
1420.785809	678.0
1421.313122	679.25
1421.840379	674.25
1422.367582	672.0
1422.894728	672.5
1423.42182	674.25
1423.948856	671.75
1424.475837	675.25
1425.002762	675.75
1425.529633	675.0
1426.056448	676.25
1426.583207	668.75
1427.109912	671.0
1427.636561	674.0
1428.163155	673.0
1428.689694	672.5
1429.216177	674.25
1429.742605	674.5
1430.268978	672.0
1430.795296	675.0
1431.321558	672.0
1431.847765	670.75
1432.373917	671.0
1432.900014	673.0
1433.426056	674.75
1433.952042	671.75
1434.477973	671.5
1435.003849	670.0
1435.529669	672.25
1436.055435	674.5
1436.581145	672.25
1437.1068	670.25
1437.632399	672.5
1438.157944	670.0
1438.683433	674.5
1439.208868	674.25
1439.734247	671.0
1440.25957	672.75
1440.784839	671.25
1441.310053	674.0
1441.835211	672.0
1442.360314	672.5
1442.885362	672.25
1443.410355	671.75
1443.935292	671.0
1444.460175	671.25
1444.985002	671.75
1445.509774	671.75
1446.034491	669.25
1446.559153	672.0
1447.08376	676.75
1447.608312	673.75
1448.132808	676.25
1448.65725	671.5
1449.181636	674.0
1449.705967	672.0
1450.230243	674.25
1450.754464	674.5
1451.27863	674.5
1451.802741	674.0
1452.326797	676.5
1452.850797	673.5
1453.374743	677.0
1453.898633	674.0
1454.422468	675.5
1454.946249	673.0
1455.469974	673.0
1455.993644	670.25
1456.517259	670.75
1457.040819	674.5
1457.564324	672.5
1458.087773	674.25
1458.611168	675.25
1459.134508	674.5
1459.657793	671.75
1460.181022	672.0
1460.704197	673.75
1461.227316	676.5
1461.750381	672.0
1462.27339	671.0
1462.796345	680.5
1463.319244	687.25
1463.842089	676.0
1464.364878	671.25
1464.887613	671.75
1465.410292	674.25
1465.932916	672.25
1466.455486	673.75
1466.978	671.25
1467.50046	675.75
1468.022864	676.25
1468.545214	673.25
1469.067508	672.25
1469.589748	669.5
1470.111932	674.5
1470.634062	672.5
1471.156136	673.0
1471.678156	671.5
1472.20012	673.25
1472.72203	676.5
1473.243885	671.25
1473.765685	671.25
1474.28743	672.75
1474.80912	670.25
1475.330755	669.0
1475.852335	673.0
1476.37386	672.25
1476.89533	670.0
1477.416745	671.75
1477.938106	672.0
1478.459411	671.25
1478.980662	672.75
1479.501857	670.5
1480.022998	673.75
1480.544084	669.25
1481.065115	673.5
1481.586091	671.75
1482.107012	673.0
1482.627878	673.5
1483.14869	670.25
1483.669446	672.75
1484.190148	672.75
1484.710794	672.0
1485.231386	671.5
1485.751923	669.75
1486.272406	675.25
1486.792833	670.75
1487.313205	670.5
1487.833523	668.5
1488.353786	673.25
1488.873994	673.75
1489.394147	671.5
1489.914245	669.75
1490.434288	673.25
1490.954277	671.0
1491.474211	671.25
1491.99409	671.75
1492.513914	673.0
1493.033683	671.75
1493.553398	670.5
1494.073057	672.5
1494.592662	672.0
1495.112212	673.5
1495.631708	672.25
1496.151148	674.5
1496.670534	674.25
1497.189865	673.25
1497.709141	671.75
1498.228362	672.25
1498.747529	675.0
1499.266641	671.0
1499.785698	678.75
1500.3047	674.0
1500.823648	673.0
1501.34254	671.75
1501.861379	671.75
1502.380162	673.0
1502.89889	671.0
1503.417564	671.0
1503.936183	675.25
1504.454748	671.25
1504.973257	672.5
1505.491712	673.0
1506.010112	673.0
1506.528458	672.5
1507.046748	669.25
1507.564984	670.5
1508.083166	674.75
1508.601292	670.25
1509.119364	673.25
1509.637381	673.25
1510.155344	673.25
1510.673252	681.25
1511.191105	671.75
1511.708903	676.25
1512.226647	674.25
1512.744336	673.75
1513.261971	673.25
1513.77955	671.75
1514.297076	672.75
1514.814546	672.25
1515.331962	672.75
1515.849323	672.75
1516.366629	672.75
1516.883881	673.5
1517.401078	674.0
1517.918221	669.75
1518.435309	670.0
1518.952342	669.0
1519.469321	673.5
1519.986245	668.75
1520.503114	672.25
1521.019929	674.5
1521.536689	675.75
1522.053395	672.0
1522.570046	672.75
1523.086642	670.0
1523.603184	670.5
1524.119671	676.25
1524.636103	672.75
1525.152481	672.75
1525.668805	672.5
1526.185073	683.0
1526.701288	677.5
1527.217447	677.75
1527.733552	671.25
1528.249603	673.75
1528.765599	673.75
1529.28154	673.75
1529.797427	673.5
1530.313259	673.5
1530.829037	672.0
1531.34476	670.75
1531.860429	673.0
1532.376043	670.25
1532.891602	672.25
1533.407107	669.0
1533.922558	672.0
1534.437954	670.25
1534.953295	673.75
1535.468582	670.0
1535.983815	674.25
1536.498993	670.75
1537.014116	671.75
1537.529185	675.25
1538.044199	670.25
1538.559159	674.0
1539.074064	672.0
1539.588915	674.25
1540.103712	677.0
1540.618454	669.5
1541.133141	672.25
1541.647774	671.25
1542.162353	673.25
1542.676877	674.5
1543.191346	670.25
1543.705761	675.5
1544.220122	671.25
1544.734428	671.0
1545.24868	677.0
1545.762877	671.0
1546.27702	671.75
1546.791109	672.0
1547.305143	673.5
1547.819122	673.75
1548.333047	674.5
1548.846918	673.5
1549.360734	673.0
1549.874496	673.75
1550.388204	671.25
1550.901857	671.5
1551.415455	676.0
1551.929	676.25
1552.442489	675.25
1552.955925	671.5
1553.469306	674.0
1553.982632	671.5
1554.495905	671.5
1555.009123	671.0
1555.522286	672.5
1556.035395	673.25
1556.54845	672.75
1557.06145	673.25
1557.574396	676.25
1558.087288	668.75
1558.600125	669.25
1559.112908	670.0
1559.625637	671.75
1560.138311	671.5
1560.650931	672.75
1561.163497	672.0
1561.676008	675.0
1562.188465	675.5
1562.700867	676.0
1563.213216	676.0
1563.725509	672.0
1564.237749	674.75
1564.749934	675.0
1565.262065	672.75
1565.774142	670.75
1566.286164	676.5
1566.798132	674.75
1567.310046	674.0
1567.821906	676.5
1568.333711	673.75
1568.845462	673.25
1569.357158	675.75
1569.868801	674.75
1570.380389	674.0
1570.891922	673.0
1571.403402	674.25
1571.914827	672.5
1572.426198	670.75
1572.937515	670.0
1573.448777	670.75
1573.959985	672.25
1574.471139	671.0
1574.982239	673.25
1575.493285	676.0
1576.004276	671.25
1576.515213	670.5
1577.026096	674.25
1577.536924	672.0
1578.047698	670.75
1578.558419	669.75
1579.069084	668.75
1579.579696	673.25
1580.090254	675.0
1580.600757	691.5
1581.621601	693.0
1582.131941	673.5
1582.642228	674.0
1583.15246	676.25
1583.662638	673.5
1584.172762	671.25
1584.682832	672.5
1585.192847	673.75
1586.722569	675.75
1587.232368	670.0
1587.742113	673.0
1588.251803	672.5
1588.76144	674.5
1589.271022	671.5
1589.78055	674.0
1590.290024	672.0
1590.799444	673.5
1591.30881	672.25
1591.818121	670.75
1592.327379	669.25
