1042.414189	692.5999756
1042.980685	692.0
1043.547124	687.7999878
1044.113505	687.2000122
1044.679828	687.5999756
1045.246093	686.7999878
1045.8123	683.2000122
1046.378449	684.5999756
1046.94454	683.4000244
1047.510573	678.5999756
1048.076548	679.7999878
1048.642465	677.7999878
1049.208325	677.5999756
1049.774126	678.4000244
1050.339869	680.2000122
1050.905555	676.4000244
1051.471183	677.7999878
1052.036752	677.5999756
1052.602264	675.4000244
1053.167718	677.5999756
1053.733114	678.7999878
1054.298452	674.7999878
1054.863733	674.4000244
1055.428955	673.7999878
1055.994119	676.7999878
1056.559226	674.5999756
1057.124275	675.2000122
1057.689266	675.2000122
1058.254199	674.2000122
1058.819074	675.2000122
1059.383891	668.5999756
1059.94865	673.4000244
1060.513352	671.0
1061.077996	675.0
1061.642582	671.5999756
1062.20711	676.4000244
1062.77158	672.5999756
1063.335992	672.7999878
1063.900347	670.4000244
1064.464643	671.7999878
1065.028882	671.7999878
1065.593063	673.4000244
1066.157187	672.0
1066.721252	669.7999878
1067.28526	670.0
1067.84921	675.7999878
1068.413102	670.4000244
1068.976936	671.7999878
1069.540713	671.5999756
1070.104431	676.0
1070.668092	671.2000122
1071.231696	669.2000122
1071.795241	671.2000122
1072.358729	670.2000122
1072.922159	672.2000122
1073.485531	672.5999756
1074.048845	670.5999756
1074.612102	671.4000244
1075.175301	674.0
1075.738442	669.2000122
1076.301525	672.7999878
1076.864551	672.4000244
1077.427519	672.2000122
1077.990429	672.0
1078.553281	669.5999756
1079.116076	669.0
1079.678813	671.4000244
1080.241492	670.5999756
1080.804114	669.5999756
1081.366678	672.2000122
1081.929184	669.2000122
1082.491633	674.2000122
1083.054024	673.4000244
1083.616357	674.2000122
1084.178632	671.7999878
1084.74085	672.5999756
1085.30301	669.7999878
1085.865113	671.5999756
1086.427158	672.7999878
1086.989145	670.2000122
1087.551074	672.4000244
1088.112946	671.5999756
1088.67476	671.7999878
1089.236517	670.5999756
1089.798216	672.0
1090.359857	675.0
1090.92144	672.7999878
1091.482966	673.7999878
1092.044435	671.0
1092.605845	673.2000122
1093.167199	670.7999878
1093.728494	669.7999878
1094.289732	670.4000244
1094.850912	674.0
1095.412035	679.7999878
1095.9731	670.0
1096.534107	672.5999756
1097.095057	675.2000122
1097.65595	669.7999878
1098.216784	671.2000122
1098.777561	670.4000244
1099.338281	672.2000122
1099.898943	669.5999756
1100.459547	670.4000244
1101.020094	670.5999756
1101.580584	671.0
1102.141015	669.7999878
1102.701389	671.5999756
1103.261706	670.5999756
1103.821965	671.4000244
1104.382167	668.4000244
1104.942311	669.7999878
1105.502397	669.4000244
1106.062426	671.4000244
1106.622398	671.4000244
1107.182312	670.2000122
1107.742168	667.7999878
1108.301967	669.7999878
1108.861708	668.2000122
1109.421392	668.4000244
1109.981019	668.0
1110.540587	669.4000244
1111.100099	669.0
1111.659553	669.4000244
1112.218949	670.2000122
1112.778288	672.2000122
1113.33757	668.4000244
1113.896794	668.7999878
1114.45596	666.4000244
1115.015069	667.7999878
1115.574121	667.4000244
1116.133115	667.5999756
1116.692052	670.2000122
1117.250931	668.0
1117.809753	668.2000122
1118.368517	668.5999756
1118.927224	666.5999756
1119.485873	669.4000244
1120.044465	666.4000244
1120.603	667.7999878
1121.161477	668.7999878
1121.719897	669.5999756
1122.278259	669.0
1122.836564	669.4000244
1123.394812	667.7999878
1123.953002	668.0
1124.511135	668.4000244
1125.06921	668.7999878
1125.627228	669.5999756
1126.185189	670.5999756
1126.743092	669.0
1127.300938	669.4000244
1127.858726	669.5999756
1128.416457	666.2000122
1128.974131	670.4000244
1129.531748	670.0
1130.089307	668.2000122
1130.646808	664.7999878
1131.204252	671.5999756
1131.761639	665.4000244
1132.318969	668.2000122
1132.876241	669.2000122
1133.433456	669.0
1133.990614	666.7999878
1134.547714	669.2000122
1135.104757	667.7999878
1135.661743	666.4000244
1136.218671	668.4000244
1136.775542	670.4000244
1137.332356	669.2000122
1137.889112	667.0
1138.445811	669.5999756
1139.002453	668.0
1139.559037	664.5999756
1140.115565	669.7999878
1140.672035	667.5999756
1141.228447	665.5999756
1141.784803	669.7999878
1142.341101	668.2000122
1142.897342	665.4000244
1143.453525	668.0
1144.009651	664.7999878
1144.565721	670.0
1145.121732	666.5999756
1145.677687	669.2000122
1146.233584	667.7999878
1146.789424	666.4000244
1147.345207	668.4000244
1147.900933	667.4000244
1148.456601	667.5999756
1149.012212	667.5999756
1149.567766	668.7999878
1150.123263	665.7999878
1150.678702	666.4000244
1151.234085	669.0
1151.78941	668.2000122
1152.344678	670.7999878
1152.899888	667.7999878
1153.455042	670.5999756
1154.010138	668.7999878
1154.565177	667.0
1155.120159	666.7999878
1155.675084	670.4000244
1156.229951	666.7999878
1156.784762	669.4000244
1157.339515	667.7999878
1157.894211	669.2000122
1158.44885	666.0
1159.003432	667.0
1159.557956	670.2000122
1160.112424	668.0
1160.666834	666.7999878
1161.221187	666.7999878
1161.775483	665.2000122
1162.329722	667.5999756
1162.883904	667.7999878
1163.438029	667.4000244
1163.992096	669.7999878
1164.546107	664.2000122
1165.10006	667.5999756
1165.653956	665.7999878
1166.207795	668.0
1166.761577	668.2000122
1167.315302	671.0
1167.86897	668.4000244
1168.422581	669.5999756
1168.976134	666.0
1169.529631	666.4000244
1170.08307	671.2000122
1170.636453	666.5999756
1171.189778	668.4000244
1171.743046	669.5999756
1172.296257	669.0
1172.849412	666.4000244
1173.402509	668.0
1173.955549	666.5999756
1174.508532	667.2000122
1175.061458	668.4000244
1175.614327	667.7999878
1176.167138	669.4000244
1176.719893	668.0
1177.272591	670.5999756
1177.825232	664.2000122
1178.377816	670.7999878
1178.930342	670.5999756
1179.482812	668.7999878
1180.035225	668.7999878
1180.587581	671.4000244
1181.139879	963.2000122
1181.692121	743.2000122
1182.244306	666.5999756
1182.796434	671.2000122
1183.348504	669.5999756
1183.900518	666.4000244
1184.452475	670.0
1185.004375	666.5999756
1185.556218	667.2000122
1186.108004	666.2000122
1186.659733	670.5999756
1187.211405	669.2000122
1187.76302	668.0
1188.314578	667.2000122
1188.866079	668.2000122
1189.417523	668.4000244
1189.96891	667.0
1190.520241	665.7999878
1191.071514	664.7999878
1191.622731	668.7999878
1192.17389	672.5999756
1192.724993	668.2000122
1193.276039	682.7999878
1193.827027	670.4000244
1194.377959	667.2000122
1194.928834	668.5999756
1195.479653	669.2000122
1196.030414	670.5999756
1196.581118	668.4000244
1197.131766	668.5999756
1197.682356	669.2000122
1198.23289	668.7999878
1198.783367	667.0
1199.333786	668.0
1199.88415	671.0
1200.434456	666.4000244
1200.984705	668.4000244
1201.534898	668.7999878
1202.085033	669.4000244
1202.635112	669.2000122
1203.185134	666.2000122
1203.735099	669.0
1204.285007	668.7999878
1204.834859	670.0
1205.384653	669.2000122
1205.934391	669.2000122
1206.484072	667.5999756
1207.033696	667.5999756
1207.583263	668.4000244
1208.132774	668.4000244
1208.682228	665.5999756
1209.231624	668.7999878
1209.780965	667.0
1210.330248	668.5999756
1210.879474	670.2000122
1211.428644	667.5999756
1211.977757	668.2000122
1212.526813	670.4000244
1213.075813	666.5999756
1213.624755	668.7999878
1214.173641	670.0
1214.72247	667.4000244
1215.271242	669.0
1215.819958	668.5999756
1216.368617	669.7999878
1216.917219	668.0
1217.465764	669.4000244
1218.014253	665.4000244
1218.562685	668.5999756
1219.11106	668.7999878
1219.659378	668.5999756
1220.20764	669.2000122
1220.755845	666.2000122
1221.303993	669.2000122
1221.852085	667.5999756
1222.400119	667.5999756
1222.948097	668.5999756
1223.496019	669.0
1224.043883	668.4000244
1224.591691	669.0
1225.139443	668.2000122
1225.687137	667.5999756
1226.234775	668.2000122
1226.782357	666.4000244
1227.329881	669.7999878
1227.877349	669.0
1228.42476	670.4000244
1228.972115	667.7999878
1229.519413	668.4000244
1230.066654	668.7999878
1230.613839	667.5999756
1231.160967	668.5999756
1231.708038	668.2000122
1232.255053	668.5999756
1232.802011	669.2000122
1233.348912	669.4000244
1233.895757	667.0
1234.442545	668.7999878
1234.989277	671.5999756
1235.535951	669.7999878
1236.08257	670.5999756
1236.629131	670.5999756
1237.175636	669.5999756
1237.722085	667.5999756
1238.268477	669.4000244
1238.814812	672.2000122
1239.361091	671.5999756
1239.907313	669.2000122
1240.453478	670.0
1240.999587	669.0
1241.54564	668.4000244
1242.091636	669.0
1242.637575	672.5999756
1243.183457	670.5999756
1243.729284	670.7999878
1244.275053	669.7999878
1244.820766	668.7999878
1245.366423	668.5999756
1245.912022	673.2000122
1246.457566	671.4000244
1247.003053	672.5999756
1247.548483	670.2000122
1248.093857	672.5999756
1248.639174	669.4000244
1249.184435	670.0
1249.729639	668.7999878
1250.274787	670.2000122
1250.819878	668.7999878
1251.364912	670.7999878
1251.909891	668.4000244
1252.454812	671.7999878
1252.999677	670.4000244
1253.544486	673.5999756
1254.089238	671.0
1254.633934	672.0
1255.178573	674.2000122
1255.723156	671.0
1256.267682	671.7999878
1256.812152	672.2000122
1257.356565	674.0
1257.900922	672.2000122
1258.445223	675.7999878
1258.989467	674.4000244
1259.533654	678.5999756
1260.077785	685.0
1260.62186	679.7999878
1261.165878	677.7999878
1261.70984	679.2000122
1262.253745	685.0
1262.797594	688.0
1263.341386	691.7999878
1263.885123	696.2000122
1264.428802	692.0
1264.972425	690.7999878
1265.515992	682.5999756
1266.059503	686.0
1266.602957	679.4000244
1267.146354	675.5999756
1267.689696	673.5999756
1268.23298	676.0
1268.776209	673.4000244
1269.319381	674.7999878
1269.862497	677.4000244
1270.405556	674.7999878
1270.948559	678.2000122
1271.491506	672.4000244
1272.034396	675.4000244
1272.57723	675.2000122
1273.120007	675.4000244
1273.662728	675.4000244
1274.205393	674.2000122
1274.748002	673.5999756
1275.290554	677.0
1275.83305	676.0
1276.375489	676.4000244
1276.917872	674.2000122
1277.460199	678.2000122
1278.00247	675.4000244
1278.544684	680.0
1279.086842	681.0
1279.628943	683.4000244
1280.170989	687.4000244
1280.712978	690.7999878
1281.25491	702.5999756
1281.796787	742.4000244
1282.338607	785.4000244
1282.880371	883.2000122
1283.422078	991.5999756
1283.963729	1009.400024
1284.505324	944.7999878
1285.046863	840.4000244
1285.588345	757.4000244
1286.129772	716.4000244
1286.671142	697.7999878
1287.212455	689.5999756
1287.753713	685.0
1288.294914	679.5999756
1288.836059	677.0
1289.377147	678.2000122
1289.91818	676.5999756
1290.459156	674.4000244
1291.000076	675.0
1291.54094	675.4000244
1292.081747	676.4000244
1292.622499	673.0
1293.163194	675.2000122
1293.703833	676.5999756
1294.244415	673.0
1294.784942	676.0
1295.325412	671.5999756
1295.865826	673.5999756
1296.406184	673.2000122
1296.946486	671.7999878
1297.486731	673.5999756
1298.026921	671.7999878
1298.567054	671.7999878
1299.107131	673.2000122
1299.647152	673.5999756
1300.187116	672.5999756
1300.727025	675.4000244
1301.266877	669.5999756
1301.806673	672.4000244
1302.346413	675.2000122
1302.886097	674.4000244
1303.425725	673.2000122
1303.965297	669.2000122
1304.504812	673.7999878
1305.044272	672.7999878
1305.583675	671.5999756
1306.123022	670.7999878
1306.662313	672.5999756
1307.201548	671.5999756
1307.740727	668.4000244
1308.279849	672.5999756
1308.818916	672.5999756
1309.357926	672.2000122
1309.896881	671.4000244
1310.435779	670.0
1310.974621	670.4000244
1311.513407	669.7999878
1312.052137	672.5999756
1312.590811	672.4000244
1313.129429	669.4000244
1313.667991	670.5999756
1314.206497	671.5999756
1314.744946	671.4000244
1315.28334	670.2000122
1315.821678	668.7999878
1316.359959	670.2000122
1316.898184	670.5999756
1317.436354	671.5999756
1317.974467	669.7999878
1318.512525	669.0
1319.050526	673.2000122
1319.588471	672.2000122
1320.12636	671.0
1320.664194	671.2000122
1321.201971	670.4000244
1321.739692	671.5999756
1322.277357	669.7999878
1322.814967	668.5999756
1323.35252	672.2000122
1323.890017	677.0
1324.427458	670.5999756
1324.964843	670.2000122
1325.502173	670.0
1326.039446	674.2000122
1326.576663	671.7999878
1327.113824	671.2000122
1327.65093	672.5999756
1328.187979	674.2000122
1328.724972	672.2000122
1329.26191	672.5999756
1329.798791	671.0
1330.335617	670.0
1330.872386	670.2000122
1331.4091	669.5999756
1331.945758	672.2000122
1332.48236	669.7999878
1333.018905	671.0
1333.555395	677.7999878
1334.091829	671.7999878
1334.628207	669.2000122
1335.164529	672.0
1335.700796	672.5999756
1336.237006	670.5999756
1336.77316	670.2000122
1337.309259	672.0
1337.845301	670.4000244
1338.381288	673.2000122
1338.917219	671.7999878
1339.453094	672.4000244
1339.988913	673.4000244
1340.524676	673.5999756
1341.060383	671.5999756
1341.596034	671.0
1342.13163	671.2000122
1342.66717	673.2000122
1343.202653	670.0
1343.738081	671.2000122
1344.273453	672.2000122
1344.80877	672.2000122
1345.34403	673.2000122
1345.879235	671.2000122
1346.414383	669.7999878
1346.949476	674.2000122
1347.484513	669.2000122
1348.019494	672.0
1348.55442	669.4000244
1349.089289	672.0
1349.624103	671.7999878
1350.158861	670.4000244
1350.693563	670.4000244
1351.228209	672.7999878
1351.7628	673.0
1352.297334	671.2000122
1352.831813	674.4000244
1353.366236	670.5999756
1353.900604	671.5999756
1354.434915	674.7999878
1354.969171	672.4000244
1355.503371	669.5999756
1356.037515	669.2000122
1356.571604	669.7999878
1357.105636	670.5999756
1357.639613	669.7999878
1358.173535	674.0
1358.7074	671.7999878
1359.24121	674.2000122
1359.774964	673.5999756
1360.308662	669.7999878
1360.842304	667.2000122
1361.375891	673.4000244
1361.909422	670.0
1362.442897	669.7999878
1362.976317	673.0
1363.50968	673.4000244
1364.042989	669.0
1364.576241	674.5999756
1365.109438	678.0
1365.642579	672.5999756
1366.175664	675.4000244
1366.708693	674.0
1367.241667	672.4000244
1367.774585	667.5999756
1368.307448	675.2000122
1368.840255	677.2000122
1369.373006	679.7999878
1369.905701	685.7999878
1370.438341	685.0
1370.970925	676.2000122
1371.503454	674.4000244
1372.035926	673.4000244
1372.568344	672.4000244
1373.100705	677.2000122
1373.633011	671.2000122
1374.165261	676.4000244
1374.697456	674.5999756
1375.229595	677.5999756
1375.761678	674.4000244
1376.293705	678.5999756
1376.825677	674.5999756
1377.357594	677.2000122
1377.889455	678.5999756
1378.42126	678.0
1378.953009	677.0
1379.484703	679.2000122
1380.016342	679.7999878
1380.547924	678.2000122
1381.079452	679.0
1381.610923	679.0
1382.142339	683.0
1382.673699	685.4000244
1383.205004	687.5999756
1383.736253	689.4000244
1384.267447	697.7999878
1384.798585	708.0
1385.329668	716.7999878
1385.860695	745.4000244
1386.391666	802.5999756
1386.922582	955.5999756
1387.453442	1244.599976
1387.984247	1460.199951
1388.514996	1230.199951
1389.04569	933.2000122
1389.576328	777.7999878
1390.10691	727.4000244
1390.637437	710.2000122
1391.167909	694.5999756
1391.698325	695.2000122
1392.228685	686.4000244
1392.75899	687.7999878
1393.28924	680.4000244
1393.819434	682.2000122
1394.349572	680.5999756
1394.879655	679.2000122
1395.409683	678.4000244
1395.939655	676.5999756
1396.469571	677.0
1396.999432	678.0
1397.529237	677.5999756
1398.058987	673.7999878
1398.588682	675.7999878
1399.118321	676.2000122
1399.647905	675.2000122
1400.177433	672.7999878
1400.706906	676.4000244
1401.236323	680.0
1401.765685	674.0
1402.294991	675.2000122
1402.824242	677.0
1403.353437	676.5999756
1403.882577	674.7999878
1404.411662	678.4000244
1404.940691	680.7999878
1405.469665	679.7999878
1405.998583	682.4000244
1406.527446	681.0
1407.056253	685.4000244
1407.585005	687.2000122
1408.113702	696.0
1408.642343	702.5999756
1409.170929	705.0
1409.69946	711.7999878
1410.227935	705.5999756
1410.756354	697.4000244
1411.284719	687.2000122
1411.813028	681.4000244
1412.341281	678.0
1412.869479	674.2000122
1413.397622	673.2000122
1413.92571	674.4000244
1414.453742	676.0
1414.981718	673.2000122
1415.50964	683.4000244
1416.037506	674.0
1416.565316	673.4000244
1417.093072	673.0
1417.620772	670.0
1418.148416	671.7999878
1418.676005	670.4000244
1419.203539	675.0
1419.731018	673.2000122
1420.258441	672.0
1420.785809	672.4000244
1421.313122	670.0
1421.840379	670.0
1422.367582	670.2000122
1422.894728	673.7999878
1423.42182	671.2000122
1423.948856	671.4000244
1424.475837	671.0
1425.002762	672.2000122
1425.529633	672.4000244
1426.056448	670.4000244
1426.583207	671.5999756
1427.109912	669.2000122
1427.636561	669.2000122
1428.163155	672.7999878
1428.689694	668.7999878
1429.216177	671.4000244
1429.742605	672.0
1430.268978	670.4000244
1430.795296	668.7999878
1431.321558	671.5999756
1431.847765	669.7999878
1432.373917	671.4000244
1432.900014	668.4000244
1433.426056	673.2000122
1433.952042	669.5999756
1434.477973	669.7999878
1435.003849	668.2000122
1435.529669	667.4000244
1436.055435	671.2000122
1436.581145	669.5999756
1437.1068	666.7999878
1437.632399	669.2000122
1438.157944	668.0
1438.683433	670.5999756
1439.208868	666.0
1439.734247	672.5999756
1440.25957	668.7999878
1440.784839	669.5999756
1441.310053	666.7999878
1441.835211	668.2000122
1442.360314	669.7999878
1442.885362	669.7999878
1443.410355	669.2000122
1443.935292	669.5999756
1444.460175	668.4000244
1444.985002	669.5999756
1445.509774	670.5999756
1446.034491	667.2000122
1446.559153	666.0
1447.08376	668.4000244
1447.608312	670.5999756
1448.132808	668.0
1448.65725	667.0
1449.181636	670.2000122
1449.705967	668.4000244
1450.230243	667.5999756
1450.754464	669.2000122
1451.27863	669.2000122
1451.802741	668.0
1452.326797	667.7999878
1452.850797	666.2000122
1453.374743	665.5999756
1453.898633	666.4000244
1454.422468	669.2000122
1454.946249	665.7999878
1455.469974	665.0
1455.993644	667.4000244
1456.517259	666.0
1457.040819	668.5999756
1457.564324	668.4000244
1458.087773	667.4000244
1458.611168	668.4000244
1459.134508	669.0
1459.657793	667.0
1460.181022	668.7999878
1460.704197	671.0
1461.227316	671.0
1461.750381	669.0
1462.27339	665.4000244
1462.796345	675.0
1463.319244	693.7999878
1463.842089	675.5999756
1464.364878	667.4000244
1464.887613	667.0
1465.410292	666.2000122
1465.932916	666.4000244
1466.455486	666.7999878
1466.978	668.2000122
1467.50046	667.5999756
1468.022864	664.5999756
1468.545214	668.5999756
1469.067508	667.4000244
1469.589748	667.0
1470.111932	668.5999756
1470.634062	666.4000244
1471.156136	669.0
1471.678156	665.5999756
1472.20012	666.7999878
1472.72203	667.5999756
1473.243885	665.0
1473.765685	669.2000122
1474.28743	667.7999878
1474.80912	668.5999756
1475.330755	668.5999756
1475.852335	669.4000244
1476.37386	663.2000122
1476.89533	664.0
1477.416745	665.0
1477.938106	664.5999756
1478.459411	667.4000244
1480.022998	670.0
1480.544084	665.7999878
1481.065115	669.2000122
1481.586091	665.0
1482.107012	667.0
1482.627878	668.4000244
1483.14869	670.0
1483.669446	667.4000244
1484.190148	665.5999756
1484.710794	669.2000122
1485.231386	667.0
1485.751923	668.0
1486.272406	667.7999878
1486.792833	665.0
1487.313205	668.0
1487.833523	668.2000122
1488.353786	667.2000122
1488.873994	669.2000122
1489.394147	668.4000244
1489.914245	667.5999756
1490.434288	665.2000122
1490.954277	666.7999878
1491.474211	666.5999756
1491.99409	664.5999756
1492.513914	668.0
1493.033683	667.4000244
1493.553398	667.7999878
1494.073057	665.0
1494.592662	668.7999878
1495.112212	667.0
1495.631708	668.0
1496.151148	669.7999878
1496.670534	669.2000122
1497.189865	668.5999756
1497.709141	667.4000244
1498.228362	666.2000122
1498.747529	666.0
1499.266641	664.2000122
1499.785698	672.4000244
1500.3047	667.4000244
1500.823648	665.5999756
1501.34254	667.7999878
1501.861379	667.0
1502.380162	667.4000244
1502.89889	667.7999878
1503.417564	667.0
1503.936183	666.7999878
1504.454748	668.0
1504.973257	668.4000244
1505.491712	666.0
1506.010112	667.5999756
1506.528458	667.0
1507.046748	667.2000122
1507.564984	666.4000244
1508.083166	668.5999756
1508.601292	668.4000244
1509.119364	666.4000244
1509.637381	665.7999878
1510.155344	665.4000244
1510.673252	674.2000122
1511.191105	665.2000122
1511.708903	668.7999878
1512.226647	668.0
1512.744336	664.4000244
1513.261971	665.7999878
1513.77955	667.5999756
1514.297076	666.7999878
1514.814546	669.5999756
1515.331962	666.5999756
1515.849323	666.5999756
1516.366629	664.7999878
1516.883881	669.4000244
1517.401078	668.0
1517.918221	665.2000122
1518.435309	670.4000244
1518.952342	667.2000122
1519.469321	666.4000244
1519.986245	665.4000244
1520.503114	666.2000122
1521.019929	669.2000122
1521.536689	667.0
1522.053395	666.5999756
1522.570046	665.2000122
1523.086642	668.5999756
1523.603184	666.7999878
1524.119671	665.7999878
1524.636103	669.2000122
1525.152481	668.0
1525.668805	671.2000122
1526.185073	685.7999878
1526.701288	679.2000122
1527.217447	667.5999756
1527.733552	666.2000122
1528.249603	666.0
1528.765599	670.4000244
1529.28154	667.4000244
1529.797427	669.4000244
1530.313259	668.4000244
1530.829037	664.4000244
1531.34476	665.5999756
1531.860429	667.5999756
1532.376043	670.0
1532.891602	666.7999878
1533.407107	666.5999756
1533.922558	667.4000244
1534.437954	664.5999756
1534.953295	668.2000122
1535.468582	665.0
1535.983815	669.2000122
1536.498993	666.5999756
1537.014116	665.4000244
1537.529185	667.2000122
1538.044199	666.4000244
1538.559159	666.5999756
1539.074064	663.2000122
1539.588915	670.2000122
1540.103712	666.5999756
1540.618454	669.2000122
1541.133141	667.7999878
1541.647774	664.4000244
1542.162353	668.5999756
1542.676877	666.0
1543.191346	665.5999756
1543.705761	671.0
1544.220122	670.0
1544.734428	669.2000122
1545.24868	670.5999756
1545.762877	666.5999756
1546.27702	671.5999756
1546.791109	667.0
1547.305143	667.2000122
1547.819122	666.2000122
1548.333047	668.2000122
1548.846918	666.2000122
1549.360734	670.0
1549.874496	669.4000244
1550.388204	667.2000122
1550.901857	666.5999756
1551.415455	670.2000122
1551.929	667.2000122
1552.442489	667.5999756
1552.955925	665.4000244
1553.469306	667.4000244
1553.982632	667.4000244
1554.495905	666.0
1555.009123	669.7999878
1555.522286	666.7999878
1556.035395	667.0
1556.54845	668.2000122
1557.06145	669.7999878
1557.574396	665.4000244
1558.087288	668.2000122
1558.600125	668.7999878
1559.112908	666.5999756
1559.625637	665.4000244
1560.138311	668.4000244
1560.650931	669.4000244
1561.163497	671.7999878
1561.676008	665.2000122
1562.188465	668.5999756
1562.700867	668.5999756
1563.213216	668.7999878
1563.725509	668.5999756
1564.237749	672.0
1564.749934	672.4000244
1565.262065	667.5999756
1565.774142	670.2000122
1566.286164	671.4000244
1566.798132	668.0
1567.310046	673.7999878
1567.821906	668.0
1568.333711	670.0
1568.845462	670.4000244
1569.357158	669.0
1569.868801	669.7999878
1570.380389	666.4000244
1570.891922	663.2000122
1571.403402	664.4000244
1571.914827	667.7999878
1572.426198	663.5999756
1572.937515	667.0
1573.448777	666.4000244
1573.959985	668.0
1574.471139	668.2000122
1574.982239	665.5999756
1575.493285	668.5999756
1576.004276	669.0
1576.515213	666.5999756
1577.026096	667.7999878
1577.536924	667.2000122
1578.047698	667.2000122
1578.558419	663.7999878
1579.069084	669.2000122
1579.579696	668.7999878
1580.090254	668.4000244
1580.600757	669.5999756
1581.111206	667.4000244
1581.621601	667.5999756
1582.131941	666.7999878
1582.642228	667.4000244
1583.15246	665.4000244
1583.662638	664.5999756
1584.172762	669.4000244
1584.682832	667.2000122
1585.192847	666.5999756
1585.702809	668.2000122
1586.212716	670.0
1586.722569	668.2000122
1587.232368	666.4000244
1587.742113	668.0
1588.251803	668.5999756
1588.76144	666.0
1589.271022	665.7999878
1589.78055	667.5999756
1590.290024	665.0
1590.799444	668.4000244
1591.30881	665.2000122
1591.818121	667.5999756
1592.327379	668.7999878
