1042.414189	692.5999756
1042.980685	691.5999756
1043.547124	694.7999878
1044.113505	691.5999756
1044.679828	693.4000244
1045.246093	688.7999878
1045.8123	686.4000244
1046.378449	686.5999756
1046.94454	686.2000122
1047.510573	686.7999878
1048.076548	684.5999756
1048.642465	680.0
1049.208325	683.0
1049.774126	678.4000244
1050.339869	678.5999756
1050.905555	684.0
1051.471183	682.0
1052.036752	679.5999756
1052.602264	679.5999756
1053.167718	679.0
1053.733114	678.7999878
1054.298452	680.2000122
1054.863733	678.0
1055.428955	677.7999878
1055.994119	677.5999756
1056.559226	678.0
1057.124275	677.4000244
1057.689266	676.4000244
1058.254199	676.0
1058.819074	674.2000122
1059.383891	677.2000122
1059.94865	676.0
1060.513352	675.0
1061.077996	679.0
1061.642582	673.0
1062.20711	675.2000122
1062.77158	676.4000244
1063.335992	678.0
1063.900347	674.4000244
1064.464643	677.5999756
1065.028882	674.4000244
1065.593063	677.5999756
1066.157187	674.2000122
1066.721252	675.7999878
1067.28526	673.7999878
1067.84921	676.2000122
1068.413102	672.2000122
1068.976936	676.2000122
1069.540713	674.2000122
1070.104431	678.5999756
1070.668092	672.0
1071.231696	674.5999756
1071.795241	676.0
1072.358729	675.0
1072.922159	674.0
1073.485531	673.0
1074.048845	673.5999756
1074.612102	674.2000122
1075.175301	673.5999756
1075.738442	675.5999756
1076.301525	672.7999878
1076.864551	672.0
1077.427519	672.2000122
1077.990429	675.5999756
1078.553281	679.0
1079.116076	675.0
1079.678813	678.2000122
1080.241492	675.7999878
1080.804114	673.7999878
1081.366678	675.0
1081.929184	676.0
1082.491633	677.7999878
1083.054024	676.2000122
1083.616357	674.2000122
1084.178632	672.5999756
1084.74085	673.4000244
1085.30301	674.4000244
1085.865113	678.2000122
1086.427158	676.4000244
1086.989145	676.0
1087.551074	676.2000122
1088.112946	675.0
1088.67476	678.4000244
1089.236517	675.0
1089.798216	673.4000244
1090.359857	675.7999878
1090.92144	676.5999756
1091.482966	674.5999756
1092.044435	676.4000244
1092.605845	674.5999756
1093.167199	676.4000244
1093.728494	676.4000244
1094.289732	675.5999756
1094.850912	671.5999756
1095.412035	679.7999878
1095.9731	673.4000244
1096.534107	677.4000244
1097.095057	678.2000122
1097.65595	675.7999878
1098.216784	675.7999878
1098.777561	673.5999756
1099.338281	673.0
1099.898943	671.0
1100.459547	674.5999756
1101.020094	671.4000244
1101.580584	670.7999878
1102.141015	676.2000122
1102.701389	673.7999878
1103.261706	675.0
1103.821965	673.2000122
1104.382167	672.2000122
1104.942311	673.4000244
1105.502397	671.2000122
1106.062426	672.2000122
1106.622398	671.7999878
1107.182312	675.0
1107.742168	672.2000122
1108.301967	671.4000244
1108.861708	673.0
1109.421392	672.2000122
1109.981019	673.4000244
1110.540587	672.7999878
1111.100099	671.5999756
1111.659553	673.2000122
1112.218949	669.7999878
1112.778288	673.0
1113.33757	668.5999756
1113.896794	670.5999756
1114.45596	673.0
1115.015069	672.2000122
1115.574121	669.4000244
1116.133115	672.2000122
1116.692052	671.7999878
1117.250931	674.5999756
1117.809753	673.7999878
1118.368517	671.5999756
1118.927224	670.4000244
1119.485873	671.2000122
1120.044465	673.0
1120.603	671.2000122
1121.161477	670.7999878
1121.719897	669.7999878
1122.278259	671.4000244
1122.836564	671.2000122
1123.394812	669.2000122
1123.953002	668.7999878
1124.511135	672.0
1125.06921	673.0
1125.627228	673.0
1126.185189	672.2000122
1126.743092	669.7999878
1127.300938	672.0
1127.858726	670.2000122
1128.416457	674.2000122
1128.974131	671.0
1129.531748	673.2000122
1130.089307	671.0
1130.646808	676.7999878
1131.204252	672.5999756
1131.761639	673.5999756
1132.318969	668.5999756
1132.876241	670.7999878
1133.433456	669.4000244
1133.990614	671.2000122
1134.547714	671.5999756
1135.104757	671.4000244
1135.661743	671.4000244
1136.218671	671.7999878
1136.775542	670.5999756
1137.332356	669.2000122
1137.889112	672.4000244
1138.445811	670.7999878
1139.002453	674.7999878
1139.559037	674.0
1140.115565	673.0
1140.672035	674.5999756
1141.228447	671.7999878
1141.784803	673.5999756
1142.341101	674.0
1142.897342	671.4000244
1143.453525	669.5999756
1144.009651	670.5999756
1144.565721	672.7999878
1145.121732	671.2000122
1145.677687	670.7999878
1146.233584	673.5999756
1146.789424	674.4000244
1147.345207	673.2000122
1147.900933	671.5999756
1148.456601	672.0
1149.012212	673.4000244
1149.567766	672.5999756
1150.123263	671.2000122
1150.678702	672.0
1151.234085	672.7999878
1151.78941	670.4000244
1152.344678	670.5999756
1152.899888	670.5999756
1153.455042	671.7999878
1154.010138	674.0
1154.565177	671.4000244
1155.120159	671.4000244
1155.675084	668.5999756
1156.229951	671.2000122
1156.784762	672.7999878
1157.339515	672.0
1157.894211	671.5999756
1158.44885	674.0
1159.003432	672.4000244
1159.557956	672.0
1160.112424	673.4000244
1160.666834	672.4000244
1161.221187	670.5999756
1161.775483	671.7999878
1162.329722	671.4000244
1162.883904	669.0
1163.438029	670.7999878
1163.992096	674.2000122
1164.546107	673.4000244
1165.10006	675.4000244
1165.653956	670.2000122
1166.207795	670.7999878
1166.761577	670.0
1167.315302	672.5999756
1167.86897	669.7999878
1168.422581	671.2000122
1168.976134	672.0
1169.529631	669.4000244
1170.08307	667.7999878
1170.636453	672.4000244
1171.189778	671.0
1171.743046	671.5999756
1172.296257	670.7999878
1172.849412	672.5999756
1173.402509	673.2000122
1173.955549	673.0
1174.508532	672.0
1175.061458	671.2000122
1175.614327	666.0
1176.167138	671.5999756
1176.719893	672.2000122
1177.272591	670.7999878
1177.825232	672.5999756
1178.377816	670.7999878
1178.930342	670.7999878
1179.482812	671.5999756
1180.035225	671.5999756
1180.587581	671.2000122
1181.139879	670.4000244
1181.692121	670.4000244
1182.244306	669.0
1182.796434	672.2000122
1183.348504	669.4000244
1183.900518	671.7999878
1184.452475	671.5999756
1185.004375	671.5999756
1185.556218	671.7999878
1186.108004	672.0
1186.659733	673.2000122
1187.211405	669.5999756
1187.76302	672.4000244
1188.314578	672.2000122
1188.866079	669.5999756
1189.417523	673.0
1189.96891	672.2000122
1190.520241	671.2000122
1191.071514	673.0
1191.622731	674.0
1192.17389	672.5999756
1192.724993	676.2000122
1193.276039	688.5999756
1193.827027	670.5999756
1194.377959	671.4000244
1194.928834	671.5999756
1195.479653	671.7999878
1196.030414	669.5999756
1196.581118	670.5999756
1197.131766	668.7999878
1197.682356	670.4000244
1198.23289	675.2000122
1198.783367	671.4000244
1199.333786	670.0
1199.88415	671.5999756
1200.434456	673.2000122
1200.984705	670.2000122
1201.534898	672.2000122
1202.085033	673.0
1202.635112	675.2000122
1203.185134	673.4000244
1203.735099	672.7999878
1204.285007	674.0
1204.834859	672.2000122
1205.384653	671.0
1205.934391	673.0
1206.484072	670.5999756
1207.033696	672.7999878
1207.583263	673.0
1208.132774	675.0
1208.682228	672.7999878
1209.231624	669.4000244
1209.780965	670.2000122
1210.330248	670.7999878
1210.879474	670.7999878
1211.428644	671.0
1211.977757	672.0
1212.526813	673.4000244
1213.075813	673.2000122
1213.624755	670.7999878
1214.173641	671.4000244
1214.72247	673.0
1215.271242	669.7999878
1215.819958	673.2000122
1216.368617	675.2000122
1216.917219	672.7999878
1217.465764	671.4000244
1218.014253	673.4000244
1218.562685	673.4000244
1219.11106	671.5999756
1219.659378	672.5999756
1220.20764	671.5999756
1220.755845	668.7999878
1221.303993	670.0
1221.852085	672.4000244
1222.400119	672.0
1222.948097	673.4000244
1223.496019	673.0
1224.043883	673.7999878
1224.591691	673.0
1225.139443	671.7999878
1225.687137	672.4000244
1226.234775	673.4000244
1226.782357	672.2000122
1227.329881	674.5999756
1227.877349	675.5999756
1228.42476	673.7999878
1228.972115	672.0
1229.519413	671.7999878
1230.066654	673.0
1230.613839	672.7999878
1231.160967	673.7999878
1231.708038	671.7999878
1232.255053	675.2000122
1232.802011	674.7999878
1233.348912	671.7999878
1233.895757	674.7999878
1234.442545	673.5999756
1234.989277	672.7999878
1235.535951	672.7999878
1236.08257	675.2000122
1236.629131	673.5999756
1237.175636	673.5999756
1237.722085	672.4000244
1238.268477	671.7999878
1238.814812	674.2000122
1239.361091	675.5999756
1239.907313	672.5999756
1240.453478	672.5999756
1240.999587	673.7999878
1241.54564	675.4000244
1242.091636	674.2000122
1242.637575	676.4000244
1243.183457	671.4000244
1243.729284	671.5999756
1244.275053	673.4000244
1244.820766	677.5999756
1245.366423	676.4000244
1245.912022	676.2000122
1246.457566	675.7999878
1247.003053	675.0
1247.548483	671.4000244
1248.093857	675.2000122
1248.639174	676.4000244
1249.184435	673.0
1249.729639	674.7999878
1250.274787	673.2000122
1250.819878	674.0
1251.364912	672.4000244
1251.909891	676.0
1252.454812	672.5999756
1252.999677	673.7999878
1253.544486	676.4000244
1254.089238	673.4000244
1254.633934	674.7999878
1255.178573	679.2000122
1255.723156	673.0
1256.267682	676.7999878
1256.812152	675.4000244
1257.356565	675.2000122
1257.900922	678.4000244
1258.445223	676.4000244
1258.989467	677.0
1259.533654	678.7999878
1260.077785	690.2000122
1260.62186	682.7999878
1261.165878	684.0
1261.70984	685.0
1262.253745	689.4000244
1262.797594	696.5999756
1263.341386	700.0
1263.885123	701.4000244
1264.428802	694.4000244
1264.972425	688.5999756
1265.515992	689.7999878
1266.059503	686.2000122
1266.602957	683.4000244
1267.146354	680.0
1267.689696	677.4000244
1268.23298	680.0
1268.776209	681.7999878
1269.319381	677.2000122
1269.862497	681.5999756
1270.405556	680.2000122
1270.948559	678.2000122
1271.491506	677.5999756
1272.034396	677.4000244
1272.57723	678.2000122
1273.120007	677.5999756
1273.662728	680.7999878
1274.205393	679.0
1274.748002	679.0
1275.290554	678.0
1275.83305	682.7999878
1276.375489	682.0
1276.917872	681.0
1277.460199	678.4000244
1278.00247	686.2000122
1278.544684	684.0
1279.086842	688.2000122
1279.628943	689.7999878
1280.170989	692.2000122
1280.712978	704.2000122
1281.25491	715.5999756
1281.796787	749.5999756
1282.338607	818.0
1282.880371	935.5999756
1283.422078	1048.800049
1283.963729	1052.0
1284.505324	950.2000122
1285.046863	828.4000244
1285.588345	760.7999878
1286.129772	723.2000122
1286.671142	703.0
1287.212455	696.2000122
1287.753713	689.5999756
1288.294914	688.4000244
1288.836059	684.2000122
1289.377147	684.7999878
1289.91818	678.0
1290.459156	682.2000122
1291.000076	681.7999878
1291.54094	679.5999756
1292.081747	678.7999878
1292.622499	678.0
1293.163194	679.7999878
1293.703833	676.2000122
1294.244415	677.5999756
1294.784942	677.4000244
1295.325412	675.7999878
1295.865826	678.4000244
1296.406184	679.2000122
1296.946486	677.2000122
1297.486731	677.5999756
1298.026921	673.5999756
1298.567054	678.4000244
1299.107131	677.5999756
1299.647152	678.2000122
1300.187116	675.5999756
1300.727025	675.2000122
1301.266877	675.7999878
1301.806673	675.5999756
1302.346413	678.2000122
1302.886097	676.5999756
1303.425725	675.0
1303.965297	677.2000122
1304.504812	676.7999878
1305.044272	675.2000122
1305.583675	676.2000122
1306.123022	676.5999756
1306.662313	674.0
1307.201548	676.4000244
1307.740727	676.7999878
1308.279849	678.7999878
1308.818916	672.5999756
1309.357926	677.2000122
1309.896881	677.0
1310.435779	677.0
1310.974621	677.0
1311.513407	677.7999878
1312.052137	677.4000244
1312.590811	675.7999878
1313.129429	675.5999756
1313.667991	676.7999878
1314.206497	677.7999878
1314.744946	673.5999756
1315.28334	676.5999756
1315.821678	671.4000244
1316.359959	675.5999756
1316.898184	676.0
1317.436354	675.2000122
1317.974467	676.2000122
1318.512525	675.4000244
1319.050526	674.7999878
1319.588471	674.5999756
1320.12636	672.7999878
1320.664194	672.7999878
1321.201971	675.0
1321.739692	673.5999756
1322.277357	676.2000122
1322.814967	676.5999756
1323.35252	674.7999878
1323.890017	680.2000122
1324.427458	675.0
1324.964843	678.2000122
1325.502173	675.4000244
1326.039446	674.5999756
1326.576663	676.4000244
1327.113824	676.2000122
1327.65093	674.2000122
1328.187979	676.5999756
1328.724972	674.2000122
1329.26191	675.2000122
1329.798791	673.4000244
1330.335617	674.5999756
1330.872386	674.5999756
1331.4091	679.5999756
1331.945758	671.5999756
1332.48236	674.0
1333.018905	672.7999878
1333.555395	677.5999756
1334.091829	675.0
1334.628207	674.5999756
1335.164529	676.5999756
1335.700796	677.7999878
1336.237006	675.4000244
1336.77316	673.5999756
1337.309259	674.0
1337.845301	674.4000244
1338.381288	673.2000122
1338.917219	674.7999878
1339.453094	673.5999756
1339.988913	677.7999878
1340.524676	672.2000122
1341.060383	676.2000122
1341.596034	674.0
1342.13163	673.4000244
1342.66717	675.4000244
1343.202653	676.5999756
1343.738081	672.4000244
1344.273453	673.2000122
1344.80877	675.7999878
1345.34403	674.4000244
1345.879235	672.4000244
1346.414383	671.7999878
1346.949476	673.0
1347.484513	678.2000122
1348.019494	672.5999756
1348.55442	673.5999756
1349.089289	674.7999878
1349.624103	674.5999756
1350.158861	674.7999878
1350.693563	671.0
1351.228209	674.7999878
1351.7628	678.4000244
1352.297334	673.0
1352.831813	674.2000122
1353.366236	676.5999756
1353.900604	677.5999756
1354.434915	675.5999756
1354.969171	676.2000122
1355.503371	674.2000122
1356.037515	675.7999878
1356.571604	674.5999756
1357.105636	676.4000244
1357.639613	676.7999878
1358.173535	675.2000122
1358.7074	677.7999878
1359.24121	678.0
1359.774964	679.4000244
1360.308662	674.2000122
1360.842304	674.4000244
1361.375891	679.2000122
1361.909422	676.2000122
1362.442897	678.5999756
1362.976317	674.7999878
1363.50968	675.5999756
1364.042989	676.4000244
1364.576241	676.2000122
1365.109438	678.5999756
1365.642579	679.5999756
1366.175664	679.4000244
1366.708693	676.4000244
1367.241667	676.4000244
1367.774585	679.4000244
1368.307448	678.7999878
1368.840255	678.2000122
1369.373006	683.4000244
1369.905701	691.4000244
1370.438341	687.4000244
1370.970925	681.0
1371.503454	677.4000244
1372.035926	680.7999878
1372.568344	674.5999756
1373.100705	676.4000244
1373.633011	679.5999756
1374.165261	677.5999756
1374.697456	681.4000244
1375.229595	679.2000122
1375.761678	676.0
1376.293705	680.5999756
1376.825677	681.4000244
1377.357594	679.7999878
1377.889455	683.0
1378.42126	680.0
1378.953009	683.0
1379.484703	682.7999878
1380.016342	682.5999756
1380.547924	683.0
1381.079452	684.4000244
1381.610923	686.5999756
1382.142339	688.5999756
1382.673699	690.4000244
1383.205004	694.7999878
1383.736253	697.4000244
1384.267447	697.4000244
1384.798585	716.2000122
1385.329668	728.7999878
1385.860695	764.5999756
1386.391666	826.0
1386.922582	1011.200012
1387.453442	1351.800049
1387.984247	1541.199951
1388.514996	1251.199951
1389.04569	921.2000122
1389.576328	788.0
1390.10691	732.0
1390.637437	719.7999878
1391.167909	704.2000122
1391.698325	698.0
1392.228685	692.5999756
1392.75899	688.0
1393.28924	686.4000244
1393.819434	686.4000244
1394.349572	685.4000244
1394.879655	684.7999878
1395.409683	685.0
1395.939655	682.7999878
1396.469571	681.0
1396.999432	682.4000244
1397.529237	679.2000122
1398.058987	683.4000244
1398.588682	680.2000122
1399.118321	680.7999878
1399.647905	678.2000122
1400.177433	681.5999756
1400.706906	679.5999756
1401.236323	681.5999756
1401.765685	681.7999878
1402.294991	678.4000244
1402.824242	677.4000244
1403.353437	681.4000244
1403.882577	680.7999878
1404.411662	684.5999756
1404.940691	683.4000244
1405.469665	683.4000244
1405.998583	686.5999756
1406.527446	688.5999756
1407.056253	690.4000244
1407.585005	694.7999878
1408.113702	700.7999878
1408.642343	711.2000122
1409.170929	717.4000244
1409.69946	719.5999756
1410.227935	713.0
1410.756354	701.7999878
1411.284719	688.5999756
1411.813028	686.7999878
1412.341281	682.7999878
1412.869479	679.0
1413.397622	679.2000122
1413.92571	681.7999878
1414.453742	677.7999878
1414.981718	676.5999756
1415.50964	687.7999878
1416.037506	676.5999756
1416.565316	678.0
1417.093072	676.5999756
1417.620772	677.4000244
1418.676005	685.2000122
1419.203539	674.2000122
1419.731018	673.7999878
1420.258441	675.4000244
1420.785809	674.4000244
1421.313122	676.0
1421.840379	674.4000244
1422.367582	672.2000122
1422.894728	676.0
1423.42182	677.0
1423.948856	676.4000244
1424.475837	672.7999878
1425.002762	678.2000122
1425.529633	675.4000244
1426.056448	673.4000244
1426.583207	674.4000244
1427.109912	675.5999756
1427.636561	670.7999878
1428.163155	675.2000122
1428.689694	673.7999878
1429.216177	669.5999756
1429.742605	673.7999878
1430.268978	674.2000122
1430.795296	673.2000122
1431.321558	672.4000244
1431.847765	671.7999878
1432.373917	672.4000244
1432.900014	672.2000122
1433.426056	672.5999756
1433.952042	672.7999878
1434.477973	671.4000244
1435.003849	671.4000244
1435.529669	676.2000122
1436.055435	671.4000244
1436.581145	673.7999878
1437.1068	670.2000122
1437.632399	674.7999878
1438.157944	671.7999878
1438.683433	674.7999878
1439.208868	674.2000122
1439.734247	674.2000122
1440.25957	671.7999878
1440.784839	673.4000244
1441.310053	670.2000122
1441.835211	672.0
1442.360314	672.7999878
1442.885362	672.4000244
1443.410355	675.4000244
1443.935292	674.2000122
1444.460175	674.0
1444.985002	671.7999878
1445.509774	675.7999878
1446.034491	670.4000244
1446.559153	673.2000122
1447.08376	670.7999878
1447.608312	669.5999756
1448.132808	671.7999878
1448.65725	670.5999756
1449.181636	672.4000244
1449.705967	669.2000122
1450.230243	674.2000122
1450.754464	668.7999878
1451.27863	670.5999756
1451.802741	672.2000122
1452.326797	672.0
1452.850797	673.7999878
1453.374743	670.4000244
1453.898633	671.7999878
1454.422468	674.4000244
1454.946249	673.5999756
1455.469974	669.5999756
1455.993644	672.0
1456.517259	673.7999878
1457.040819	673.4000244
1457.564324	669.4000244
1458.087773	674.2000122
1458.611168	670.7999878
1459.134508	671.5999756
1459.657793	671.7999878
1460.181022	672.0
1460.704197	673.0
1461.227316	672.4000244
1461.750381	667.5999756
1462.27339	671.5999756
1462.796345	680.0
1463.319244	698.2000122
1463.842089	676.4000244
1464.364878	672.4000244
1464.887613	669.2000122
1465.410292	670.7999878
1465.932916	671.4000244
1466.455486	667.5999756
1466.978	670.4000244
1467.50046	669.7999878
1468.022864	672.5999756
1468.545214	671.4000244
1469.067508	672.4000244
1469.589748	670.7999878
1470.111932	670.4000244
1470.634062	672.4000244
1471.156136	668.7999878
1471.678156	670.4000244
1472.20012	671.2000122
1472.72203	669.2000122
1473.243885	670.0
1473.765685	671.7999878
1474.28743	672.7999878
1474.80912	669.5999756
1475.330755	671.7999878
1475.852335	669.7999878
1476.37386	672.0
1476.89533	669.7999878
1477.416745	668.7999878
1477.938106	670.0
1478.459411	669.7999878
1478.980662	671.0
1479.501857	669.5999756
1480.022998	669.5999756
1480.544084	670.0
1481.065115	670.2000122
1481.586091	672.4000244
1482.107012	671.7999878
1482.627878	670.4000244
1483.14869	670.2000122
1483.669446	671.0
1484.190148	670.7999878
1484.710794	670.2000122
1485.231386	672.0
1485.751923	670.4000244
1486.272406	672.5999756
1486.792833	670.4000244
1487.313205	670.7999878
1487.833523	669.5999756
1488.353786	670.7999878
1488.873994	670.5999756
1489.394147	670.2000122
1489.914245	671.7999878
1490.434288	668.7999878
1490.954277	669.4000244
1491.474211	672.4000244
1491.99409	670.5999756
1492.513914	671.2000122
1493.033683	671.4000244
1493.553398	669.0
1494.073057	670.2000122
1494.592662	666.7999878
1495.112212	670.2000122
1495.631708	669.7999878
1496.151148	669.0
1496.670534	669.5999756
1497.189865	671.4000244
1497.709141	669.2000122
1498.228362	671.7999878
1498.747529	671.0
1499.266641	670.2000122
1499.785698	675.7999878
1500.3047	669.4000244
1500.823648	669.7999878
1501.34254	667.2000122
1501.861379	669.4000244
1502.380162	668.4000244
1502.89889	667.5999756
1503.417564	667.7999878
1503.936183	671.5999756
1504.454748	671.5999756
1504.973257	671.0
1505.491712	669.4000244
1506.010112	668.2000122
1506.528458	671.4000244
1507.046748	668.4000244
1507.564984	669.2000122
1508.083166	669.0
1508.601292	671.5999756
1509.119364	670.0
1509.637381	670.0
1510.155344	671.2000122
1510.673252	674.7999878
1511.191105	671.5999756
1511.708903	671.0
1512.226647	669.0
1512.744336	673.5999756
1513.261971	667.5999756
1513.77955	669.7999878
1514.297076	670.2000122
1514.814546	674.0
1515.331962	670.2000122
1515.849323	669.5999756
1516.366629	670.4000244
1516.883881	667.7999878
1517.401078	672.5999756
1517.918221	668.4000244
1518.435309	671.2000122
1518.952342	669.7999878
1519.469321	672.2000122
1519.986245	670.5999756
1520.503114	672.4000244
1521.019929	666.5999756
1521.536689	669.2000122
1522.053395	667.7999878
1522.570046	669.7999878
1523.086642	670.7999878
1523.603184	669.7999878
1524.119671	669.5999756
1524.636103	669.7999878
1525.152481	671.7999878
1525.668805	675.0
1526.185073	692.5999756
1526.701288	683.2000122
1527.217447	669.0
1527.733552	671.0
1528.249603	669.4000244
1528.765599	671.2000122
1529.28154	670.7999878
1529.797427	670.2000122
1530.313259	669.5999756
1530.829037	671.7999878
1531.34476	670.0
1531.860429	670.2000122
1532.376043	671.0
1532.891602	671.2000122
1533.407107	671.0
1533.922558	671.0
1534.437954	669.7999878
1534.953295	668.2000122
1535.468582	672.5999756
1535.983815	668.7999878
1536.498993	670.4000244
1537.014116	670.0
1537.529185	669.0
1538.044199	669.4000244
1538.559159	668.0
1539.074064	669.2000122
1539.588915	669.2000122
1540.103712	671.2000122
1540.618454	670.2000122
1541.133141	668.0
1541.647774	671.7999878
1542.162353	667.0
1542.676877	669.0
1543.191346	670.0
1543.705761	669.7999878
1544.220122	671.2000122
1544.734428	670.4000244
1545.24868	670.0
1545.762877	670.4000244
1546.27702	670.0
1546.791109	668.2000122
1547.305143	668.5999756
1547.819122	667.5999756
1548.333047	673.7999878
1548.846918	672.7999878
1549.360734	670.0
1549.874496	669.2000122
1550.388204	671.0
1550.901857	670.4000244
1551.415455	671.5999756
1551.929	666.7999878
1552.442489	671.7999878
1552.955925	668.7999878
1553.469306	669.2000122
1553.982632	672.5999756
1554.495905	671.4000244
1555.009123	671.5999756
1555.522286	667.4000244
1556.035395	671.4000244
1556.54845	672.2000122
1557.06145	668.7999878
1557.574396	668.0
1558.087288	670.0
1558.600125	669.5999756
1559.112908	669.5999756
1559.625637	669.0
1560.138311	671.2000122
1560.650931	671.2000122
1561.163497	672.0
1561.676008	671.2000122
1562.188465	669.0
1562.700867	671.5999756
1563.213216	670.0
1563.725509	672.2000122
1564.237749	672.5999756
1564.749934	672.0
1565.262065	671.7999878
1565.774142	672.4000244
1566.286164	670.4000244
1566.798132	674.7999878
1567.310046	674.2000122
1567.821906	672.2000122
1568.333711	675.2000122
1568.845462	671.5999756
1569.357158	669.0
1569.868801	671.2000122
1570.380389	667.4000244
1570.891922	671.7999878
1571.403402	672.4000244
1571.914827	673.4000244
1572.426198	671.5999756
1572.937515	671.0
1573.448777	669.7999878
1573.959985	669.5999756
1574.471139	671.5999756
1574.982239	672.5999756
1575.493285	669.2000122
1576.004276	672.0
1576.515213	672.0
1577.026096	671.0
1577.536924	671.5999756
1578.047698	668.5999756
1578.558419	671.5999756
1579.069084	669.4000244
1579.579696	669.0
1580.090254	670.4000244
1580.600757	669.0
1581.111206	670.2000122
1581.621601	671.5999756
1582.131941	671.0
1582.642228	670.2000122
1583.15246	669.4000244
1583.662638	669.0
1584.172762	668.7999878
1584.682832	669.4000244
1585.192847	673.7999878
1585.702809	672.2000122
1586.212716	670.4000244
1586.722569	671.0
1587.232368	669.2000122
1587.742113	670.2000122
1588.251803	672.0
1588.76144	671.2000122
1589.271022	665.2000122
1589.78055	668.5999756
1590.290024	669.0
1590.799444	669.7999878
1591.30881	667.2000122
1591.818121	670.2000122
1592.327379	665.2000122
