1042.452273	671.4000244
1043.018714	672.0
1043.585098	668.7999878
1044.151424	668.7999878
1044.717692	671.2000122
1045.283903	670.2000122
1045.850056	669.4000244
1046.416151	670.0
1046.982188	668.0
1047.548167	668.7999878
1048.114089	669.0
1048.679953	670.7999878
1049.24576	669.7999878
1049.811509	670.5999756
1050.3772	669.7999878
1050.942833	668.7999878
1051.508408	670.7999878
1052.073926	668.0
1052.639387	665.0
1053.204789	667.2000122
1053.770134	665.2000122
1054.335421	666.0
1054.900651	667.5999756
1055.465823	666.2000122
1056.030937	665.4000244
1056.595993	664.5999756
1057.160992	665.2000122
1057.725934	665.7999878
1058.290817	666.7999878
1058.855643	667.0
1059.420411	663.4000244
1059.985122	665.4000244
1060.549775	667.4000244
1061.114371	663.7999878
1061.678908	665.0
1062.243389	666.2000122
1062.807811	665.2000122
1063.372176	666.0
1063.936483	666.7999878
1064.500733	664.7999878
1065.064925	667.7999878
1065.62906	664.5999756
1066.193137	667.0
1066.757156	662.5999756
1067.321118	665.0
1067.885022	665.5999756
1068.448869	666.5999756
1069.012658	668.2000122
1069.57639	664.2000122
1070.140063	671.5999756
1070.70368	666.7999878
1071.267239	666.4000244
1071.83074	665.0
1072.394184	664.0
1072.95757	667.5999756
1073.520899	666.2000122
1074.08417	666.7999878
1074.647383	666.0
1075.21054	669.0
1075.773638	667.2000122
1076.336679	668.0
1076.899663	666.2000122
1077.462589	665.7999878
1078.025457	669.0
1078.588268	670.4000244
1079.151022	667.2000122
1079.713718	666.0
1080.276356	668.7999878
1080.838937	667.5999756
1081.401461	665.2000122
1081.963927	670.2000122
1082.526336	668.4000244
1083.088687	667.7999878
1083.650981	669.5999756
1084.213217	673.0
1084.775396	672.2000122
1085.337517	673.4000244
1085.899581	673.4000244
1086.461587	675.7999878
1087.023536	676.2000122
1087.585428	677.4000244
1088.147262	680.4000244
1088.709039	676.4000244
1089.270758	674.5999756
1089.83242	676.0
1090.394024	677.4000244
1090.955571	675.4000244
1091.517061	674.5999756
1092.078493	677.4000244
1092.639868	676.4000244
1093.201185	675.5999756
1093.762445	675.5999756
1094.323648	674.5999756
1094.884793	673.0
1095.445881	679.4000244
1096.006911	677.2000122
1096.567884	673.7999878
1097.1288	680.5999756
1097.689659	672.2000122
1098.25046	670.0
1098.811203	672.2000122
1099.37189	672.5999756
1099.932518	671.2000122
1100.49309	669.5999756
1101.053604	671.2000122
1101.614061	668.4000244
1102.174461	668.5999756
1102.734803	665.7999878
1103.295088	668.7999878
1103.855316	668.4000244
1104.415486	665.7999878
1104.975599	668.0
1105.535655	667.7999878
1106.095653	666.4000244
1106.655594	665.5999756
1107.215478	668.0
1107.775305	667.7999878
1108.335074	666.0
1108.894786	665.4000244
1109.45444	665.5999756
1110.014038	666.0
1110.573578	663.5999756
1111.133061	666.4000244
1111.692486	666.4000244
1112.251854	665.7999878
1112.811165	665.0
1113.370419	667.2000122
1113.929616	666.0
1114.488755	666.5999756
1115.047837	663.4000244
1115.606862	669.4000244
1116.16583	665.0
1116.72474	666.0
1117.283593	664.2000122
1117.842389	663.4000244
1118.401128	664.7999878
1118.959809	663.5999756
1119.518433	662.5999756
1120.077	664.4000244
1120.63551	665.2000122
1121.193963	662.5999756
1121.752358	663.7999878
1122.310697	665.0
1122.868978	666.0
1123.427202	663.5999756
1123.985368	663.4000244
1124.543478	663.2000122
1125.10153	663.7999878
1125.659526	667.7999878
1126.217464	665.7999878
1126.775345	663.2000122
1127.333168	664.4000244
1127.890935	665.0
1128.448644	664.4000244
1129.006297	664.0
1129.563892	662.0
1130.12143	662.4000244
1130.678911	661.7999878
1131.236335	661.7999878
1131.793701	664.0
1132.351011	664.5999756
1132.908263	665.7999878
1133.465458	664.4000244
1134.022597	665.5999756
1134.579678	664.5999756
1135.136702	663.2000122
1135.693669	665.5999756
1136.250578	666.4000244
1136.807431	666.7999878
1137.364227	664.2000122
1137.920965	667.4000244
1138.477647	665.0
1139.034271	663.5999756
1139.590839	664.4000244
1140.147349	665.4000244
1140.703802	667.5999756
1141.260198	663.2000122
1141.816537	664.7999878
1142.37282	665.2000122
1142.929045	663.5999756
1143.485213	666.2000122
1144.041323	663.5999756
1144.597377	664.2000122
1145.153374	666.0
1145.709314	664.7999878
1146.265197	662.7999878
1146.821023	663.2000122
1147.376792	665.4000244
1147.932503	663.7999878
1148.488158	663.5999756
1149.043756	663.0
1149.599297	666.4000244
1150.154781	663.7999878
1150.710207	666.5999756
1151.265577	662.7999878
1151.82089	664.5999756
1152.376146	663.7999878
1152.931345	664.0
1153.486487	665.5999756
1154.041572	666.0
1154.5966	667.5999756
1155.151571	664.4000244
1155.706485	666.2000122
1156.261342	660.7999878
1156.816142	664.2000122
1157.370885	664.0
1157.925572	664.5999756
1158.480201	666.5999756
1159.034774	664.0
1159.589289	662.2000122
1160.143748	666.0
1160.698149	662.5999756
1161.252494	664.7999878
1161.806782	665.5999756
1162.361013	667.7999878
1162.915187	664.4000244
1163.469304	667.2000122
1164.023364	665.0
1164.577368	664.2000122
1165.131314	664.4000244
1165.685204	662.4000244
1166.239036	661.7999878
1166.792812	665.4000244
1167.346531	667.5999756
1167.900193	664.5999756
1168.453798	661.5999756
1169.007347	662.4000244
1169.560838	663.4000244
1170.114273	665.4000244
1170.66765	663.0
1171.220971	665.0
1171.774235	661.7999878
1172.327443	661.5999756
1172.880593	664.4000244
1173.433687	666.2000122
1173.986723	666.2000122
1174.539703	664.4000244
1175.092626	664.7999878
1175.645493	664.4000244
1176.198302	662.4000244
1176.751055	667.5999756
1177.303751	668.0
1177.85639	665.4000244
1178.408972	663.0
1178.961498	661.5999756
1179.513966	664.0
1180.066378	663.2000122
1180.618733	661.7999878
1181.171032	664.5999756
1181.723273	666.0
1182.275458	661.5999756
1182.827586	659.7999878
1183.379657	665.0
1183.931672	662.4000244
1184.48363	666.4000244
1185.035531	663.0
1185.587375	663.7999878
1186.139162	666.2000122
1186.690893	665.2000122
1187.242567	664.5999756
1187.794184	662.4000244
1188.345745	663.0
1188.897249	664.2000122
1189.448696	663.4000244
1190.000086	665.2000122
1190.55142	661.5999756
1191.102697	664.2000122
1191.653918	663.2000122
1192.205081	665.0
1192.756188	662.2000122
1193.307238	678.4000244
1193.858232	663.5999756
1194.409169	662.4000244
1194.960049	663.0
1195.510872	666.0
1196.061639	666.4000244
1196.612349	666.0
1197.163003	663.5999756
1197.713599	663.2000122
1198.264139	665.7999878
1198.814623	664.2000122
1199.36505	666.2000122
1199.91542	662.2000122
1200.465734	666.2000122
1201.01599	664.4000244
1201.566191	662.7999878
1202.116334	664.5999756
1202.666421	661.7999878
1203.216452	663.2000122
1203.766425	665.7999878
1204.316343	666.7999878
1204.866203	663.7999878
1205.416007	665.5999756
1205.965754	664.0
1206.515445	664.5999756
1207.065079	665.2000122
1207.614657	663.0
1208.164177	664.2000122
1208.713642	663.5999756
1209.26305	663.2000122
1209.812401	666.2000122
1210.361695	661.4000244
1210.910933	666.5999756
1211.460115	663.0
1212.00924	664.5999756
1212.558308	664.5999756
1213.10732	666.0
1213.656275	664.4000244
1214.205174	663.7999878
1214.754016	665.0
1215.302801	663.0
1215.85153	664.7999878
1216.400203	665.2000122
1216.948819	664.0
1217.497378	664.0
1218.045881	661.2000122
1218.594327	663.7999878
1219.142717	667.5999756
1219.691051	664.2000122
1220.239327	665.5999756
1220.787548	664.7999878
1221.335712	664.2000122
1221.883819	664.0
1222.43187	661.7999878
1222.979864	663.5999756
1223.527802	663.7999878
1224.075683	668.2000122
1224.623508	665.5999756
1225.171277	663.7999878
1225.718989	667.5999756
1226.266644	664.5999756
1226.814243	665.0
1227.361786	663.4000244
1227.909272	667.2000122
1228.456702	664.7999878
1229.004075	667.0
1229.551392	664.0
1230.098652	663.4000244
1230.645856	664.7999878
1231.193003	664.4000244
1231.740094	664.2000122
1232.287129	663.5999756
1232.834107	664.0
1233.381029	663.5999756
1233.927894	664.2000122
1234.474703	662.4000244
1235.021455	663.7999878
1235.568151	666.4000244
1236.114791	665.5999756
1236.661374	666.2000122
1237.207901	665.2000122
1237.754372	663.7999878
1238.300786	667.4000244
1238.847144	666.0
1239.393445	664.4000244
1239.93969	663.7999878
1240.485879	666.4000244
1241.032011	665.0
1241.578087	665.7999878
1242.124106	666.4000244
1242.67007	665.7999878
1243.215976	662.5999756
1243.761827	665.2000122
1244.307621	663.5999756
1244.853359	668.2000122
1245.39904	668.0
1245.944665	664.7999878
1246.490234	664.0
1247.035746	668.5999756
1247.581203	663.4000244
1248.126602	666.4000244
1248.671946	661.0
1249.217233	663.5999756
1249.762464	667.5999756
1250.307638	666.4000244
1250.852757	668.4000244
1251.397819	667.2000122
1251.942824	666.0
1252.487774	664.0
1253.032667	663.7999878
1253.577503	664.7999878
1254.122284	663.0
1254.667008	665.4000244
1255.211676	667.5999756
1255.756288	663.4000244
1256.300843	665.4000244
1256.845342	667.0
1257.389785	668.2000122
1257.934172	665.0
1258.478502	669.4000244
1259.022776	664.7999878
1259.566994	668.4000244
1260.111156	679.2000122
1260.655261	672.2000122
1261.199311	669.4000244
1261.743304	673.4000244
1262.28724	674.4000244
1262.831121	681.2000122
1263.374945	676.0
1263.918713	674.7999878
1264.462425	677.0
1265.006081	667.5999756
1265.54968	672.4000244
1266.093223	666.0
1266.636711	669.0
1267.180141	668.0
1267.723516	668.4000244
1268.266835	671.0
1268.810097	665.0
1269.353303	667.4000244
1269.896453	666.5999756
1270.439547	668.0
1270.982584	667.0
1271.525566	669.4000244
1272.068491	669.4000244
1272.61136	666.4000244
1273.154173	668.7999878
1273.69693	670.4000244
1274.239631	671.0
1274.782275	667.2000122
1275.324864	668.2000122
1275.867396	669.4000244
1276.409872	667.2000122
1276.952292	670.5999756
1277.494656	669.2000122
1278.036964	670.5999756
1278.579215	673.4000244
1279.121411	672.4000244
1279.66355	675.5999756
1280.205634	680.0
1280.747661	689.5999756
1281.289632	709.5999756
1281.831547	750.5999756
1282.373406	820.0
1282.915209	863.5999756
1283.456955	846.4000244
1283.998646	782.5999756
1284.540281	734.7999878
1285.081859	700.7999878
1285.623381	689.0
1286.164848	681.2000122
1286.706258	680.2000122
1287.247612	672.7999878
1287.788911	672.0
1288.330153	673.0
1288.871339	671.0
1289.412469	668.4000244
1289.953543	669.2000122
1290.494561	665.2000122
1291.035523	668.7999878
1291.576428	668.2000122
1292.117278	667.2000122
1292.658072	666.7999878
1293.19881	665.5999756
1293.739492	668.5999756
1294.280118	669.5999756
1294.820687	664.7999878
1295.361201	665.7999878
1295.901659	666.7999878
1296.442061	667.0
1296.982406	667.7999878
1297.522696	666.0
1298.06293	665.4000244
1298.603108	664.7999878
1299.143229	668.7999878
1299.683295	665.5999756
1300.223305	669.0
1300.763259	665.4000244
1301.303157	664.0
1301.842999	665.7999878
1302.382785	665.2000122
1302.922515	667.4000244
1303.462189	666.4000244
1304.001807	663.2000122
1304.541369	668.5999756
1305.080875	665.7999878
1305.620326	664.2000122
1306.15972	660.7999878
1306.699058	669.0
1307.238341	667.0
1307.777567	664.4000244
1308.316738	668.4000244
1308.855853	664.0
1309.394912	665.0
1309.933915	664.5999756
1310.472862	666.0
1311.011753	665.5999756
1311.550588	663.5999756
1312.089367	663.4000244
1312.62809	663.7999878
1313.166758	666.0
1313.70537	664.0
1314.243925	662.0
1314.782425	664.4000244
1315.320869	664.2000122
1315.859257	664.4000244
1316.397589	679.5999756
1317.474086	665.7999878
1318.012251	665.4000244
1318.55036	665.7999878
1319.088413	663.7999878
1319.62641	664.0
1320.164351	662.7999878
1320.702236	664.0
1321.240066	663.4000244
1321.777839	663.5999756
1322.315557	666.7999878
1322.853219	662.2000122
1323.390826	663.0
1323.928376	670.0
1324.465871	663.5999756
1325.003309	663.5999756
1325.540692	665.4000244
1326.07802	662.5999756
1326.615291	666.4000244
1327.152506	663.5999756
1327.689666	659.2000122
1328.22677	666.5999756
1328.763818	665.4000244
1329.300811	664.2000122
1329.837747	665.4000244
1330.374628	664.5999756
1330.911453	666.0
1331.448222	669.2000122
1331.984936	664.0
1332.521594	664.0
1333.058196	663.5999756
1333.594742	664.4000244
1334.131232	665.2000122
1334.667667	665.5999756
1335.204046	666.4000244
1335.740369	665.5999756
1336.276637	667.5999756
1336.812848	666.2000122
1337.349004	666.7999878
1337.885105	664.0
1338.421149	666.2000122
1338.957138	665.7999878
1339.493071	663.5999756
1340.028949	662.4000244
1340.56477	662.5999756
1341.100536	664.5999756
1341.636246	664.0
1342.171901	663.4000244
1342.7075	664.2000122
1343.243043	664.0
1343.77853	664.0
1344.313962	665.2000122
1344.849338	662.7999878
1345.384659	666.0
1345.919923	665.5999756
1346.455133	664.5999756
1346.990286	663.0
1347.525384	666.5999756
1348.060426	662.2000122
1348.595412	667.2000122
1349.130343	665.7999878
1349.665218	663.5999756
1350.200037	664.5999756
1350.734801	663.7999878
1351.269509	664.4000244
1351.804162	663.5999756
1352.338758	663.5999756
1352.8733	666.0
1353.407785	668.2000122
1353.942215	666.4000244
1354.476589	666.2000122
1355.010908	666.0
1355.545171	665.7999878
1356.079379	667.0
1356.61353	664.2000122
1357.147627	664.4000244
1357.681667	663.0
1358.215652	665.0
1358.749582	665.2000122
1359.283456	666.4000244
1359.817274	666.0
1360.351037	666.7999878
1360.884744	665.0
1361.418395	665.0
1361.951991	666.4000244
1362.485531	665.7999878
1363.019016	666.0
1363.552445	668.0
1364.085819	665.2000122
1364.619137	668.4000244
1365.1524	665.5999756
1365.685607	668.7999878
1366.218758	666.5999756
1366.751854	667.2000122
1367.284894	668.2000122
1367.817879	668.0
1368.350808	670.2000122
1368.883682	668.7999878
1369.4165	672.4000244
1369.949263	677.2000122
1370.48197	668.4000244
1371.014622	666.0
1371.547218	668.0
1372.079758	669.7999878
1372.612244	667.4000244
1373.144673	667.7999878
1373.677047	668.5999756
1374.209366	667.2000122
1374.741629	665.4000244
1375.273836	669.2000122
1375.805989	670.7999878
1376.338085	668.7999878
1376.870126	669.2000122
1377.402112	668.2000122
1377.934042	669.7999878
1378.465917	668.7999878
1378.997736	671.0
1379.5295	672.5999756
1380.061208	667.7999878
1380.592861	672.4000244
1381.124459	675.2000122
1381.656	674.7999878
1382.187487	675.0
1382.718918	678.7999878
1383.250294	679.2000122
1383.781614	683.0
1384.312879	688.7999878
1384.844088	693.7999878
1385.375242	713.2000122
1385.90634	748.5999756
1386.437383	825.0
1386.968371	989.5999756
1387.499303	1080.800049
1388.03018	977.2000122
1388.561001	814.4000244
1389.091767	733.7999878
1389.622478	702.7999878
1390.153133	689.4000244
1390.683733	683.7999878
1391.214277	679.4000244
1391.744766	675.5999756
1392.2752	672.0
1392.805578	677.4000244
1393.335901	671.5999756
1393.866168	674.0
1394.396381	674.7999878
1394.926537	669.7999878
1395.456639	670.5999756
1395.986685	671.5999756
1396.516675	670.0
1397.046611	670.5999756
1397.576491	669.4000244
1398.106315	668.5999756
1398.636084	668.5999756
1399.165798	668.0
1399.695457	669.2000122
1400.22506	669.7999878
1400.754608	670.4000244
1401.284101	669.7999878
1401.813538	668.5999756
1402.34292	670.7999878
1402.872247	668.5999756
1403.401518	668.7999878
1403.930734	667.5999756
1404.459895	670.4000244
1404.989	673.2000122
1405.51805	669.5999756
1406.047045	674.5999756
1406.575984	670.5999756
1407.104869	675.0
1407.633697	681.0
1408.162471	683.7999878
1408.691189	683.2000122
1409.219852	687.0
1409.74846	683.0
1410.277013	677.7999878
1410.80551	675.0
1411.333952	672.0
1411.862339	670.5999756
1412.39067	666.7999878
1412.918946	666.5999756
1413.447167	665.0
1413.975333	667.7999878
1414.503444	667.5999756
1415.031499	666.7999878
1415.559499	676.7999878
1416.087444	665.0
1416.615333	663.7999878
1417.143167	664.2000122
1417.670947	666.0
1418.19867	665.0
1418.726339	666.5999756
1419.253952	666.2000122
1419.781511	664.4000244
1420.309014	667.7999878
1420.836461	666.0
1421.363854	663.7999878
1421.891191	667.4000244
1422.418474	665.4000244
1422.945701	666.7999878
1423.472872	666.0
1423.999989	661.0
1424.52705	662.5999756
1425.054057	665.2000122
1425.581008	663.0
1426.107904	665.0
1426.634745	665.0
1427.16153	665.2000122
1427.688261	666.5999756
1428.214936	664.5999756
1428.741556	663.5999756
1429.268121	663.2000122
1429.794631	663.5999756
1430.321085	663.4000244
1430.847485	662.5999756
1431.373829	665.0
1431.900118	664.5999756
1432.426353	663.0
1432.952532	666.7999878
1433.478655	664.4000244
1434.004724	663.4000244
1434.530738	664.2000122
1435.056696	665.0
1435.5826	662.4000244
1436.108448	664.2000122
1436.634241	662.4000244
1437.159979	663.7999878
1437.685662	664.2000122
1438.21129	662.5999756
1438.736863	660.0
1439.262381	663.4000244
1439.787843	662.4000244
1440.313251	665.2000122
1440.838603	664.5999756
1441.3639	666.5999756
1441.889143	662.0
1442.41433	662.5999756
1442.939462	663.4000244
1443.464539	659.0
1443.989561	664.2000122
1444.514528	661.7999878
1445.03944	661.7999878
1445.564297	665.5999756
1446.089099	660.0
1446.613846	663.2000122
1447.138537	664.7999878
1447.663174	667.5999756
1448.187756	667.4000244
1448.712282	660.0
1449.236754	662.5999756
1449.761171	662.4000244
1450.285532	663.5999756
1450.809839	662.4000244
1451.33409	663.2000122
1451.858287	661.7999878
1452.382428	664.5999756
1452.906515	663.5999756
1453.430546	662.5999756
1453.954523	662.5999756
1454.478444	663.5999756
1455.002311	660.5999756
1455.526123	662.7999878
1456.049879	661.7999878
1456.573581	662.0
1457.097227	663.4000244
1457.620819	662.0
1458.144356	663.5999756
1458.667837	662.5999756
1459.191264	661.7999878
1459.714636	666.4000244
1460.237952	662.5999756
1460.761214	664.5999756
1461.284421	663.4000244
1461.807573	662.0
1462.33067	664.2000122
1462.853712	664.0
1463.376699	663.2000122
1463.899632	663.5999756
1464.422509	663.5999756
1464.945331	663.4000244
1465.468099	665.5999756
1465.990811	663.0
1466.513469	661.0
1467.036071	663.2000122
1467.558619	662.0
1468.081112	661.5999756
1468.60355	666.0
1469.125933	664.7999878
1469.648261	663.7999878
1470.170534	663.4000244
1470.692752	661.7999878
1471.214916	662.0
1471.737024	661.5999756
1472.259078	660.5999756
1472.781077	660.4000244
1473.303021	660.7999878
1473.82491	663.5999756
1474.346744	662.7999878
1474.868523	662.0
1475.390248	662.2000122
1475.911917	662.4000244
1476.433532	660.7999878
1476.955092	660.7999878
1477.476597	664.0
1477.998047	662.5999756
1478.519442	662.5999756
1479.040783	660.0
1479.562068	661.0
1480.083299	663.4000244
1480.604475	660.0
1481.125596	663.2000122
1481.646663	660.7999878
1482.167674	661.5999756
1482.688631	662.0
1483.209533	662.2000122
1483.73038	662.7999878
1484.251172	660.2000122
1484.771909	661.5999756
1485.292592	664.2000122
1485.81322	662.7999878
1486.333793	662.5999756
1486.854311	660.2000122
1487.374775	662.2000122
1487.895183	660.2000122
1488.415537	663.0
1488.935836	660.7999878
1489.456081	662.5999756
1489.97627	661.2000122
1490.496405	662.2000122
1491.016485	662.7999878
1491.536511	657.7999878
1492.056481	661.4000244
1492.576397	663.2000122
1493.096258	661.2000122
1493.616064	661.0
1494.135816	663.0
1494.655513	660.0
1495.175155	659.4000244
1495.694742	662.7999878
1496.214274	662.5999756
1496.733752	660.4000244
1497.253175	660.7999878
1497.772544	662.4000244
1498.291858	661.5999756
1498.811116	662.4000244
1499.330321	659.7999878
1499.84947	669.4000244
1500.368565	661.0
1500.887605	661.2000122
1501.406591	661.5999756
1501.925521	659.4000244
1502.444397	661.2000122
1502.963219	662.7999878
1503.481985	658.7999878
1504.000697	663.5999756
1504.519355	660.2000122
1505.037957	661.0
1505.556505	662.4000244
1506.074999	663.2000122
1506.593437	661.0
1507.111821	660.5999756
1507.63015	663.0
1508.148425	662.5999756
1508.666645	660.4000244
1509.18481	662.4000244
1509.702921	662.0
1510.220977	662.5999756
1510.738979	668.7999878
1511.256925	660.7999878
1511.774817	661.7999878
1512.292655	662.0
1512.810438	661.7999878
1513.328166	662.0
1513.84584	660.4000244
1514.363459	661.5999756
1514.881023	661.2000122
1515.398533	662.0
1515.915988	659.5999756
1516.433389	662.0
1516.950734	661.0
1517.468026	661.7999878
1517.985263	660.4000244
1518.502445	661.2000122
1519.019572	663.7999878
1519.536645	661.5999756
1520.053664	660.2000122
1520.570628	659.4000244
1521.087537	662.4000244
1521.604392	660.5999756
1522.121192	662.0
1522.637937	663.2000122
1523.154628	663.2000122
1523.671265	661.5999756
1524.187847	662.5999756
1524.704374	662.0
1525.220847	661.5999756
1525.737265	663.4000244
1526.253629	662.2000122
1526.769938	662.4000244
1527.286192	662.0
1527.802392	662.7999878
1528.318538	661.5999756
1528.834629	661.7999878
1529.350666	662.5999756
1529.866648	663.2000122
1530.382575	662.0
1530.898448	657.5999756
1531.414266	662.0
1531.93003	660.5999756
1532.44574	660.0
1532.961395	662.4000244
1533.476995	658.5999756
1533.992541	663.0
1534.508033	661.2000122
1535.02347	661.4000244
1535.538852	658.5999756
1536.05418	661.0
1536.569454	660.5999756
1537.084673	659.5999756
1537.599837	661.4000244
1538.114947	661.0
1538.630003	663.0
1539.145004	662.0
1539.659951	664.0
1540.174843	661.2000122
1540.689681	662.7999878
1541.204465	660.5999756
1541.719194	658.2000122
1542.233868	663.5999756
1542.748488	659.7999878
1543.263054	663.4000244
1543.777565	660.5999756
1544.292022	662.7999878
1544.806424	658.4000244
1545.320772	658.5999756
1545.835066	660.4000244
1546.349305	660.2000122
1546.863489	661.7999878
1547.37762	660.5999756
1547.891696	663.4000244
1548.405717	661.7999878
1548.919684	660.2000122
1549.433597	661.4000244
1549.947455	662.4000244
1550.461259	659.7999878
1550.975009	658.2000122
1551.488704	662.0
1552.002345	660.4000244
1552.515931	661.5999756
1553.029463	660.7999878
1553.542941	660.4000244
1554.056364	657.4000244
1554.569733	659.7999878
1555.083048	661.0
1555.596308	660.5999756
1556.109514	660.4000244
1556.622665	660.7999878
1557.135762	661.0
1557.648805	662.4000244
1558.161794	661.5999756
1558.674728	659.7999878
1559.187608	661.2000122
1559.700433	660.2000122
1560.213205	664.2000122
1560.725921	665.0
1561.238584	662.2000122
1561.751192	662.7999878
1562.263746	660.2000122
1562.776246	661.4000244
1563.288691	661.2000122
1563.801082	658.0
1564.313419	660.0
1564.825701	661.7999878
1565.337929	663.0
1565.850103	661.5999756
1566.362223	660.5999756
1566.874288	661.4000244
1567.386299	661.4000244
1567.898256	661.2000122
1568.410158	662.0
1568.922007	663.4000244
1569.4338	662.4000244
1569.94554	662.2000122
1570.457226	661.0
1570.968857	662.4000244
1571.480434	662.2000122
1571.991956	663.2000122
1572.503425	660.5999756
1573.014839	660.0
1573.526199	661.4000244
1574.037505	662.5999756
1574.548756	660.4000244
1575.059953	659.5999756
1575.571096	661.2000122
1576.082185	661.2000122
1576.59322	663.7999878
1577.1042	659.0
1577.615126	660.2000122
1578.125998	663.2000122
1578.636816	661.7999878
1579.14758	661.2000122
1579.658289	663.2000122
1580.168944	661.5999756
1580.679545	663.7999878
1581.190092	663.0
1581.700585	661.5999756
1582.211023	660.0
1582.721407	661.0
1583.231737	663.2000122
1583.742013	662.4000244
1584.252235	660.7999878
1584.762403	658.7999878
1585.272516	661.7999878
1585.782575	662.4000244
1586.292581	660.2000122
1586.802532	661.5999756
1587.312428	659.5999756
1587.822271	662.4000244
1588.33206	659.4000244
1588.841794	659.4000244
1589.351474	660.5999756
1589.8611	657.7999878
1590.370672	660.4000244
1590.88019	661.7999878
1591.389654	658.2000122
1591.899064	662.4000244
1592.408419	658.5999756
