1042.452273	681.4000244
1043.018714	675.5999756
1043.585098	675.0
1044.151424	672.7999878
1044.717692	672.7999878
1045.283903	673.7999878
1045.850056	677.2000122
1046.416151	676.0
1046.982188	672.5999756
1047.548167	672.0
1048.114089	673.5999756
1048.679953	671.4000244
1049.24576	675.0
1049.811509	667.2000122
1050.3772	674.5999756
1050.942833	670.7999878
1051.508408	668.0
1052.073926	669.4000244
1052.639387	671.2000122
1053.204789	668.4000244
1053.770134	667.5999756
1054.335421	669.4000244
1054.900651	670.0
1055.465823	668.2000122
1056.030937	668.7999878
1056.595993	669.0
1057.160992	668.4000244
1057.725934	668.7999878
1058.290817	667.5999756
1058.855643	669.7999878
1059.420411	666.5999756
1059.985122	667.2000122
1060.549775	668.2000122
1061.114371	666.2000122
1061.678908	670.0
1062.243389	665.7999878
1062.807811	668.5999756
1063.372176	668.4000244
1063.936483	667.7999878
1064.500733	668.5999756
1065.064925	668.2000122
1065.62906	668.2000122
1066.193137	668.7999878
1066.757156	670.0
1067.321118	665.5999756
1067.885022	668.5999756
1068.448869	665.5999756
1069.012658	668.0
1069.57639	668.5999756
1070.140063	669.7999878
1070.70368	666.4000244
1071.267239	667.2000122
1071.83074	667.4000244
1072.394184	669.0
1072.95757	665.4000244
1073.520899	667.4000244
1074.08417	668.2000122
1074.647383	667.7999878
1075.21054	670.5999756
1075.773638	669.0
1076.336679	668.4000244
1076.899663	667.2000122
1077.462589	668.5999756
1078.025457	665.2000122
1078.588268	669.2000122
1079.151022	665.2000122
1079.713718	669.5999756
1080.276356	669.7999878
1080.838937	667.2000122
1081.401461	668.7999878
1081.963927	670.2000122
1082.526336	669.4000244
1083.088687	668.2000122
1083.650981	668.5999756
1084.213217	669.0
1084.775396	666.0
1085.337517	668.0
1085.899581	666.4000244
1086.461587	667.0
1087.023536	668.0
1087.585428	666.0
1088.147262	669.0
1088.709039	667.2000122
1089.270758	669.0
1089.83242	668.0
1090.394024	668.2000122
1090.955571	667.4000244
1091.517061	666.5999756
1092.078493	668.4000244
1092.639868	669.7999878
1093.201185	669.7999878
1093.762445	666.2000122
1094.323648	665.0
1094.884793	667.2000122
1095.445881	677.2000122
1096.006911	666.0
1096.567884	664.5999756
1097.1288	674.0
1097.689659	667.2000122
1098.25046	666.4000244
1098.811203	667.0
1099.37189	665.7999878
1099.932518	667.5999756
1100.49309	664.7999878
1101.053604	667.2000122
1101.614061	663.7999878
1102.174461	667.0
1102.734803	665.4000244
1103.295088	668.2000122
1103.855316	667.2000122
1104.415486	667.5999756
1104.975599	665.5999756
1105.535655	666.5999756
1106.095653	667.5999756
1106.655594	666.4000244
1107.215478	665.2000122
1107.775305	663.7999878
1108.335074	666.5999756
1108.894786	666.5999756
1109.45444	668.0
1110.014038	666.4000244
1110.573578	666.7999878
1111.133061	666.2000122
1111.692486	668.0
1112.251854	668.5999756
1112.811165	668.0
1113.370419	666.4000244
1113.929616	665.4000244
1114.488755	667.7999878
1115.047837	669.0
1115.606862	667.2000122
1116.16583	666.0
1116.72474	666.4000244
1117.283593	669.4000244
1117.842389	669.4000244
1118.401128	669.4000244
1118.959809	666.4000244
1119.518433	667.4000244
1120.077	666.7999878
1120.63551	667.0
1121.193963	667.2000122
1121.752358	667.5999756
1122.310697	664.2000122
1122.868978	668.2000122
1123.427202	666.7999878
1123.985368	665.7999878
1124.543478	666.2000122
1125.10153	670.5999756
1125.659526	665.4000244
1126.217464	664.7999878
1126.775345	666.2000122
1127.333168	667.0
1127.890935	665.7999878
1128.448644	669.0
1129.006297	664.2000122
1129.563892	666.4000244
1130.12143	668.5999756
1130.678911	667.2000122
1131.236335	668.5999756
1131.793701	665.7999878
1132.351011	667.0
1132.908263	662.4000244
1133.465458	668.2000122
1134.022597	667.5999756
1134.579678	666.7999878
1135.136702	668.0
1135.693669	665.4000244
1136.250578	667.0
1136.807431	665.7999878
1137.364227	666.5999756
1137.920965	666.5999756
1138.477647	663.5999756
1139.034271	665.2000122
1139.590839	668.2000122
1140.147349	663.5999756
1140.703802	669.7999878
1141.260198	666.4000244
1141.816537	667.2000122
1142.37282	668.2000122
1142.929045	666.7999878
1143.485213	665.0
1144.041323	665.0
1144.597377	666.5999756
1145.153374	664.4000244
1145.709314	667.4000244
1146.265197	664.7999878
1146.821023	666.7999878
1147.376792	669.2000122
1147.932503	666.5999756
1148.488158	667.2000122
1149.043756	664.4000244
1149.599297	666.7999878
1150.154781	668.4000244
1150.710207	665.7999878
1151.265577	666.7999878
1151.82089	665.5999756
1152.376146	666.2000122
1152.931345	663.4000244
1153.486487	666.4000244
1154.041572	666.7999878
1154.5966	662.7999878
1155.151571	665.2000122
1155.706485	666.5999756
1156.261342	668.2000122
1156.816142	665.2000122
1157.370885	667.5999756
1157.925572	664.4000244
1158.480201	668.2000122
1159.034774	667.2000122
1159.589289	665.4000244
1160.143748	662.7999878
1160.698149	664.4000244
1161.252494	665.4000244
1161.806782	665.5999756
1162.361013	667.0
1162.915187	668.4000244
1163.469304	667.0
1164.023364	664.7999878
1164.577368	665.7999878
1165.131314	665.5999756
1165.685204	665.7999878
1166.239036	665.7999878
1166.792812	666.5999756
1167.346531	664.2000122
1167.900193	665.4000244
1168.453798	667.0
1169.007347	664.7999878
1169.560838	666.4000244
1170.114273	667.0
1170.66765	664.7999878
1171.220971	666.0
1171.774235	662.7999878
1172.327443	665.7999878
1172.880593	667.7999878
1173.433687	669.2000122
1173.986723	663.0
1174.539703	664.0
1175.092626	665.0
1175.645493	665.2000122
1176.198302	665.7999878
1176.751055	666.2000122
1177.303751	664.7999878
1177.85639	666.2000122
1178.408972	666.2000122
1178.961498	667.0
1179.513966	668.4000244
1180.066378	667.4000244
1180.618733	667.2000122
1181.171032	666.7999878
1181.723273	664.0
1182.275458	667.5999756
1182.827586	663.7999878
1183.379657	667.5999756
1183.931672	667.0
1184.48363	666.5999756
1185.035531	666.2000122
1185.587375	666.2000122
1186.139162	666.7999878
1186.690893	665.7999878
1187.242567	668.2000122
1187.794184	666.5999756
1188.345745	666.4000244
1188.897249	664.4000244
1189.448696	666.4000244
1190.000086	666.5999756
1190.55142	666.7999878
1191.102697	664.7999878
1191.653918	670.4000244
1192.205081	666.2000122
1192.756188	664.5999756
1193.307238	683.2000122
1193.858232	664.2000122
1194.409169	667.4000244
1194.960049	667.4000244
1195.510872	665.5999756
1196.061639	665.4000244
1196.612349	666.5999756
1197.163003	664.7999878
1197.713599	664.4000244
1198.264139	665.4000244
1198.814623	665.7999878
1199.36505	669.0
1199.91542	665.0
1200.465734	664.5999756
1201.01599	665.0
1201.566191	664.2000122
1202.116334	664.0
1202.666421	664.7999878
1203.216452	664.5999756
1203.766425	667.4000244
1204.316343	669.0
1204.866203	664.2000122
1205.416007	668.0
1205.965754	665.0
1206.515445	664.7999878
1207.065079	668.4000244
1207.614657	666.5999756
1208.164177	669.4000244
1208.713642	665.0
1209.26305	667.4000244
1209.812401	665.0
1210.361695	666.2000122
1210.910933	668.5999756
1211.460115	666.0
1212.00924	669.2000122
1212.558308	667.5999756
1213.10732	666.7999878
1213.656275	664.7999878
1214.205174	667.2000122
1214.754016	669.4000244
1215.302801	665.5999756
1215.85153	665.0
1216.400203	666.7999878
1216.948819	667.2000122
1217.497378	668.5999756
1218.045881	668.4000244
1218.594327	666.4000244
1219.142717	667.0
1219.691051	665.7999878
1220.239327	665.7999878
1220.787548	665.7999878
1221.335712	666.5999756
1221.883819	668.4000244
1222.43187	669.0
1222.979864	666.4000244
1223.527802	666.7999878
1224.075683	665.5999756
1224.623508	665.7999878
1225.171277	666.2000122
1225.718989	665.2000122
1226.266644	665.5999756
1226.814243	667.4000244
1227.361786	667.7999878
1227.909272	665.5999756
1228.456702	667.2000122
1229.004075	664.5999756
1229.551392	666.5999756
1230.098652	665.4000244
1230.645856	664.5999756
1231.193003	666.0
1231.740094	670.0
1232.287129	667.7999878
1232.834107	664.4000244
1233.381029	667.4000244
1233.927894	666.4000244
1234.474703	666.4000244
1235.021455	665.5999756
1235.568151	663.2000122
1236.114791	667.7999878
1236.661374	669.0
1237.207901	667.4000244
1237.754372	665.0
1238.300786	667.4000244
1238.847144	666.0
1239.393445	669.4000244
1239.93969	666.7999878
1240.485879	670.5999756
1241.032011	666.5999756
1241.578087	665.4000244
1242.124106	665.2000122
1242.67007	670.2000122
1243.215976	665.0
1243.761827	669.2000122
1244.307621	664.0
1244.853359	667.4000244
1245.39904	665.0
1245.944665	667.2000122
1246.490234	666.5999756
1247.035746	666.2000122
1247.581203	663.0
1248.126602	668.2000122
1248.671946	668.2000122
1249.217233	668.2000122
1249.762464	666.2000122
1250.307638	666.2000122
1250.852757	663.2000122
1251.397819	665.2000122
1251.942824	666.4000244
1252.487774	666.2000122
1253.032667	667.7999878
1253.577503	666.4000244
1254.122284	667.4000244
1254.667008	665.0
1255.211676	665.0
1255.756288	666.5999756
1256.300843	665.5999756
1256.845342	665.7999878
1257.389785	667.7999878
1257.934172	667.0
1258.478502	666.5999756
1259.022776	668.2000122
1259.566994	665.0
1260.111156	674.2000122
1260.655261	665.7999878
1261.199311	669.0
1261.743304	665.4000244
1262.28724	668.4000244
1262.831121	669.7999878
1263.374945	666.2000122
1263.918713	671.2000122
1264.462425	676.0
1265.006081	676.4000244
1265.54968	675.2000122
1266.093223	669.2000122
1266.636711	666.7999878
1267.180141	668.5999756
1267.723516	666.4000244
1268.266835	667.7999878
1268.810097	667.7999878
1269.353303	668.0
1269.896453	668.7999878
1270.439547	665.7999878
1270.982584	664.4000244
1271.525566	667.4000244
1272.068491	667.2000122
1272.61136	669.2000122
1273.154173	665.5999756
1273.69693	663.7999878
1274.239631	665.4000244
1274.782275	666.0
1275.324864	666.4000244
1275.867396	665.0
1276.409872	668.2000122
1276.952292	668.2000122
1277.494656	665.5999756
1278.036964	665.0
1278.579215	666.5999756
1279.121411	669.4000244
1279.66355	664.7999878
1280.205634	670.5999756
1280.747661	667.5999756
1281.289632	666.5999756
1281.831547	669.4000244
1282.373406	671.2000122
1282.915209	672.5999756
1283.456955	679.4000244
1283.998646	693.5999756
1284.540281	737.4000244
1285.081859	823.2000122
1285.623381	812.5999756
1286.164848	716.0
1286.706258	684.2000122
1287.247612	673.7999878
1287.788911	672.2000122
1288.330153	670.0
1288.871339	674.0
1289.412469	667.2000122
1289.953543	667.2000122
1290.494561	666.5999756
1291.035523	667.5999756
1291.576428	665.0
1292.117278	667.7999878
1292.658072	666.7999878
1293.19881	668.5999756
1293.739492	666.0
1294.280118	666.7999878
1294.820687	665.5999756
1295.361201	666.7999878
1295.901659	668.5999756
1296.442061	667.0
1296.982406	666.5999756
1297.522696	668.7999878
1298.06293	664.7999878
1298.603108	667.0
1299.143229	666.4000244
1299.683295	666.0
1300.223305	667.5999756
1300.763259	667.0
1301.303157	667.5999756
1301.842999	665.7999878
1302.382785	665.5999756
1302.922515	667.5999756
1303.462189	664.7999878
1304.001807	664.7999878
1304.541369	668.4000244
1305.080875	667.2000122
1305.620326	667.0
1306.15972	664.5999756
1306.699058	664.5999756
1307.238341	667.4000244
1307.777567	664.4000244
1308.316738	667.0
1308.855853	670.4000244
1309.394912	666.7999878
1309.933915	667.5999756
1310.472862	666.0
1311.011753	664.2000122
1311.550588	667.7999878
1312.089367	668.0
1312.62809	666.7999878
1313.166758	665.7999878
1313.70537	666.0
1314.243925	663.7999878
1314.782425	667.5999756
1315.320869	665.7999878
1315.859257	667.2000122
1316.397589	664.0
1316.935866	665.2000122
1317.474086	665.5999756
1318.012251	666.4000244
1318.55036	668.5999756
1319.088413	668.0
1319.62641	664.5999756
1320.164351	667.2000122
1320.702236	666.4000244
1321.240066	664.5999756
1321.777839	667.0
1322.315557	665.0
1322.853219	666.5999756
1323.390826	665.7999878
1323.928376	670.5999756
1324.465871	665.5999756
1325.003309	667.0
1325.540692	666.0
1326.07802	666.7999878
1326.615291	665.7999878
1327.152506	667.0
1327.689666	665.0
1328.22677	666.4000244
1328.763818	668.2000122
1329.300811	667.4000244
1329.837747	666.5999756
1330.374628	663.4000244
1330.911453	663.2000122
1331.448222	666.5999756
1331.984936	667.4000244
1332.521594	665.7999878
1333.058196	667.4000244
1333.594742	667.2000122
1334.131232	666.7999878
1334.667667	667.2000122
1335.204046	666.2000122
1335.740369	667.2000122
1336.276637	664.2000122
1336.812848	664.7999878
1337.349004	669.0
1337.885105	668.2000122
1338.421149	665.7999878
1338.957138	664.2000122
1339.493071	666.7999878
1340.028949	666.7999878
1340.56477	665.5999756
1341.100536	667.2000122
1341.636246	668.5999756
1342.171901	667.2000122
1342.7075	664.7999878
1343.243043	669.2000122
1343.77853	664.2000122
1344.313962	666.5999756
1344.849338	666.5999756
1345.384659	665.5999756
1345.919923	665.2000122
1346.455133	663.0
1346.990286	665.0
1347.525384	664.4000244
1348.060426	665.2000122
1348.595412	666.4000244
1349.130343	665.7999878
1349.665218	663.5999756
1350.200037	662.5999756
1350.734801	666.7999878
1351.269509	663.4000244
1351.804162	665.5999756
1352.338758	666.4000244
1352.8733	663.4000244
1353.407785	665.4000244
1353.942215	667.4000244
1354.476589	668.5999756
1355.010908	664.7999878
1355.545171	664.5999756
1356.079379	663.5999756
1356.61353	665.4000244
1357.147627	665.2000122
1357.681667	663.4000244
1358.215652	665.5999756
1358.749582	665.5999756
1359.283456	664.5999756
1359.817274	666.7999878
1360.351037	669.0
1360.884744	666.2000122
1361.418395	667.2000122
1361.951991	664.0
1362.485531	666.7999878
1363.019016	665.0
1363.552445	664.5999756
1364.085819	668.0
1364.619137	666.0
1365.1524	666.0
1365.685607	663.5999756
1366.218758	668.2000122
1366.751854	666.4000244
1367.284894	667.2000122
1367.817879	666.0
1368.350808	666.5999756
1368.883682	668.2000122
1369.4165	667.5999756
1369.949263	667.5999756
1370.48197	670.4000244
1371.014622	668.2000122
1371.547218	663.4000244
1372.079758	663.5999756
1372.612244	664.2000122
1373.144673	666.7999878
1373.677047	665.7999878
1374.209366	669.2000122
1374.741629	667.5999756
1375.273836	664.5999756
1375.805989	668.4000244
1376.338085	665.2000122
1376.870126	668.7999878
1377.402112	667.5999756
1377.934042	666.2000122
1378.465917	666.2000122
1378.997736	668.7999878
1379.5295	664.7999878
1380.061208	666.5999756
1380.592861	668.5999756
1381.124459	665.4000244
1381.656	667.4000244
1382.187487	668.2000122
1382.718918	667.2000122
1383.250294	669.2000122
1383.781614	666.2000122
1384.312879	667.4000244
1384.844088	667.7999878
1385.375242	669.0
1385.90634	673.5999756
1386.437383	675.0
1386.968371	681.7999878
1387.499303	699.4000244
1388.03018	787.7999878
1388.561001	968.4000244
1389.091767	879.2000122
1389.622478	725.4000244
1390.153133	690.2000122
1390.683733	674.2000122
1391.214277	671.0
1391.744766	669.2000122
1392.2752	668.2000122
1392.805578	670.2000122
1393.335901	668.5999756
1393.866168	668.4000244
1394.396381	667.2000122
1394.926537	666.7999878
1395.456639	666.4000244
1395.986685	669.5999756
1396.516675	667.0
1397.046611	666.2000122
1397.576491	667.0
1398.106315	666.0
1398.636084	667.5999756
1399.165798	665.0
1399.695457	668.0
1400.22506	667.0
1400.754608	665.0
1401.284101	667.5999756
1401.813538	667.4000244
1402.34292	666.7999878
1402.872247	667.7999878
1403.401518	666.4000244
1403.930734	667.2000122
1404.459895	667.7999878
1404.989	667.2000122
1405.51805	667.5999756
1406.047045	666.4000244
1406.575984	666.7999878
1407.104869	668.4000244
1407.633697	669.4000244
1408.162471	670.0
1408.691189	670.4000244
1409.219852	675.7999878
1409.74846	680.7999878
1410.277013	682.5999756
1410.80551	678.2000122
1411.333952	669.7999878
1411.862339	668.4000244
1412.39067	666.7999878
1412.918946	665.7999878
1413.447167	667.7999878
1413.975333	665.4000244
1414.503444	669.0
1415.031499	667.5999756
1415.559499	673.4000244
1416.087444	667.0
1416.615333	666.5999756
1417.143167	664.7999878
1417.670947	667.4000244
1418.19867	664.4000244
1418.726339	667.4000244
1419.253952	668.0
1419.781511	668.2000122
1420.309014	665.2000122
1420.836461	667.0
1421.363854	667.5999756
1421.891191	668.4000244
1422.418474	665.7999878
1422.945701	664.4000244
1423.472872	663.7999878
1423.999989	665.0
1424.52705	665.7999878
1425.054057	667.0
1425.581008	666.4000244
1426.107904	665.5999756
1426.634745	663.7999878
1427.16153	664.4000244
1427.688261	668.2000122
1428.214936	665.5999756
1428.741556	667.5999756
1429.268121	665.7999878
1429.794631	665.2000122
1430.321085	665.5999756
1430.847485	664.7999878
1431.373829	664.7999878
1431.900118	664.2000122
1432.426353	666.2000122
1432.952532	667.0
1433.478655	668.2000122
1434.004724	667.5999756
1434.530738	665.0
1435.056696	667.7999878
1435.5826	666.4000244
1436.108448	666.7999878
1436.634241	664.4000244
1437.159979	665.5999756
1437.685662	664.7999878
1438.21129	664.5999756
1438.736863	666.2000122
1439.262381	667.0
1439.787843	667.0
1440.313251	665.5999756
1440.838603	666.4000244
1441.3639	664.5999756
1441.889143	667.2000122
1442.41433	667.0
1442.939462	666.2000122
1443.464539	668.2000122
1443.989561	665.0
1444.514528	668.2000122
1445.03944	663.7999878
1445.564297	664.0
1446.089099	665.0
1446.613846	665.0
1447.138537	666.0
1447.663174	667.2000122
1448.187756	662.4000244
1448.712282	666.7999878
1449.236754	665.4000244
1449.761171	663.7999878
1450.285532	664.0
1450.809839	665.2000122
1451.33409	663.5999756
1451.858287	665.7999878
1452.382428	663.4000244
1452.906515	665.4000244
1453.430546	668.5999756
1453.954523	662.7999878
1454.478444	666.7999878
1455.002311	665.2000122
1455.526123	666.5999756
1456.049879	662.5999756
1456.573581	663.4000244
1457.097227	664.4000244
1457.620819	664.0
1458.144356	663.7999878
1458.667837	664.5999756
1459.191264	665.7999878
1459.714636	665.4000244
1460.237952	664.7999878
1460.761214	664.0
1461.284421	665.4000244
1461.807573	666.0
1462.33067	663.7999878
1462.853712	670.0
1463.376699	669.7999878
1463.899632	666.7999878
1464.422509	668.2000122
1464.945331	668.0
1465.468099	666.4000244
1465.990811	662.7999878
1466.513469	665.2000122
1467.036071	666.5999756
1467.558619	664.7999878
1468.081112	666.5999756
1468.60355	665.7999878
1469.125933	667.4000244
1469.648261	663.5999756
1470.170534	667.7999878
1470.692752	664.2000122
1471.214916	666.7999878
1471.737024	663.7999878
1472.259078	665.0
1472.781077	666.0
1473.303021	665.2000122
1473.82491	667.0
1474.346744	666.2000122
1474.868523	664.2000122
1475.390248	664.5999756
1475.911917	666.2000122
1476.433532	667.0
1476.955092	665.0
1477.476597	662.4000244
1477.998047	665.7999878
1478.519442	663.5999756
1479.040783	666.4000244
1479.562068	666.2000122
1480.083299	664.5999756
1480.604475	665.7999878
1481.125596	665.4000244
1481.646663	664.7999878
1482.167674	664.7999878
1482.688631	665.2000122
1483.209533	665.7999878
1483.73038	664.0
1484.251172	663.5999756
1484.771909	663.4000244
1485.292592	665.4000244
1485.81322	665.2000122
1486.333793	666.2000122
1486.854311	662.5999756
1487.374775	664.2000122
1487.895183	665.0
1488.415537	664.7999878
1488.935836	663.4000244
1489.456081	665.2000122
1489.97627	664.0
1490.496405	663.2000122
1491.016485	665.4000244
1491.536511	665.7999878
1492.056481	664.2000122
1492.576397	666.4000244
1493.096258	664.2000122
1493.616064	664.5999756
1494.135816	664.7999878
1494.655513	664.7999878
1495.175155	663.5999756
1495.694742	665.0
1496.214274	665.0
1496.733752	664.4000244
1497.253175	665.7999878
1497.772544	663.5999756
1498.291858	666.5999756
1498.811116	664.2000122
1499.330321	661.5999756
1499.84947	673.0
1500.368565	664.2000122
1500.887605	664.2000122
1501.406591	664.0
1501.925521	666.5999756
1502.444397	663.2000122
1502.963219	666.2000122
1503.481985	663.2000122
1504.000697	664.4000244
1504.519355	663.0
1505.037957	665.5999756
1505.556505	664.0
1506.074999	666.0
1506.593437	665.5999756
1507.111821	665.2000122
1507.63015	665.2000122
1508.148425	662.0
1508.666645	662.0
1509.18481	665.7999878
1509.702921	665.4000244
1510.220977	664.5999756
1510.738979	671.0
1511.256925	662.5999756
1511.774817	665.2000122
1512.292655	664.4000244
1512.810438	664.7999878
1513.328166	665.4000244
1513.84584	664.5999756
1514.363459	664.0
1514.881023	665.2000122
1515.398533	662.7999878
1515.915988	662.7999878
1516.433389	666.0
1516.950734	666.2000122
1517.468026	663.4000244
1517.985263	665.5999756
1518.502445	666.7999878
1519.019572	665.0
1519.536645	662.7999878
1520.053664	662.7999878
1520.570628	664.7999878
1521.087537	667.5999756
1521.604392	664.0
1522.121192	665.2000122
1522.637937	664.2000122
1523.154628	669.0
1523.671265	663.2000122
1524.187847	666.7999878
1524.704374	665.4000244
1525.220847	663.5999756
1525.737265	671.5999756
1526.253629	689.5999756
1526.769938	665.5999756
1527.286192	665.7999878
1527.802392	663.7999878
1528.318538	664.4000244
1528.834629	665.5999756
1529.350666	666.7999878
1529.866648	663.4000244
1530.382575	664.4000244
1530.898448	665.2000122
1531.414266	667.4000244
1531.93003	666.5999756
1532.44574	663.2000122
1532.961395	667.5999756
1533.476995	663.4000244
1533.992541	666.4000244
1534.508033	667.5999756
1535.02347	665.5999756
1535.538852	663.7999878
1536.05418	667.4000244
1536.569454	662.5999756
1537.084673	663.7999878
1537.599837	664.5999756
1538.114947	661.7999878
1538.630003	665.2000122
1539.145004	666.2000122
1539.659951	665.5999756
1540.174843	662.2000122
1540.689681	663.7999878
1541.204465	662.0
1541.719194	663.0
1542.233868	664.7999878
1542.748488	665.2000122
1543.263054	663.0
1543.777565	664.5999756
1544.292022	663.5999756
1544.806424	664.4000244
1545.320772	666.0
1545.835066	664.7999878
1546.349305	666.2000122
1546.863489	664.7999878
1547.37762	664.0
1547.891696	664.2000122
1548.405717	664.7999878
1548.919684	664.5999756
1549.433597	665.4000244
1549.947455	686.2000122
1551.488704	738.0
1552.002345	668.2000122
1552.515931	666.2000122
1553.029463	662.2000122
1553.542941	664.7999878
1554.056364	665.0
1554.569733	666.0
1555.083048	664.4000244
1555.596308	664.7999878
1556.109514	665.7999878
1556.622665	663.2000122
1557.135762	664.4000244
1557.648805	664.7999878
1558.161794	673.0
1559.700433	666.5999756
1560.213205	665.2000122
1560.725921	664.2000122
1561.238584	664.2000122
1561.751192	667.4000244
1562.263746	664.0
1562.776246	662.5999756
1563.288691	666.7999878
1563.801082	665.0
1564.313419	663.7999878
1564.825701	667.0
1565.337929	664.0
1565.850103	665.5999756
1566.362223	662.7999878
1566.874288	663.2000122
1567.386299	664.5999756
1567.898256	664.4000244
1568.410158	665.5999756
1568.922007	662.4000244
1569.4338	665.2000122
1569.94554	664.0
1570.457226	664.7999878
1570.968857	667.7999878
1571.480434	662.5999756
1571.991956	663.5999756
1572.503425	665.4000244
1573.014839	663.4000244
1573.526199	664.4000244
1574.037505	664.2000122
1574.548756	666.7999878
1575.059953	665.4000244
1575.571096	663.4000244
1576.082185	665.0
1576.59322	665.4000244
1577.1042	668.2000122
1577.615126	660.5999756
1578.125998	665.7999878
1578.636816	664.4000244
1579.14758	664.4000244
1579.658289	663.5999756
1580.168944	664.4000244
1580.679545	663.5999756
1581.190092	665.0
1581.700585	662.7999878
1582.211023	667.0
1582.721407	663.2000122
1583.231737	666.2000122
1583.742013	663.7999878
1584.252235	665.2000122
1584.762403	664.2000122
1585.272516	663.4000244
1585.782575	662.7999878
1586.292581	664.5999756
1586.802532	665.2000122
1587.312428	663.7999878
1587.822271	663.4000244
1588.33206	665.0
1588.841794	665.7999878
1589.351474	662.7999878
1589.8611	665.4000244
1590.370672	664.0
1590.88019	666.2000122
1591.389654	663.4000244
1591.899064	666.0
1592.408419	662.7999878
