1042.452273	726.7999878
1043.018714	723.5999756
1043.585098	722.0
1044.151424	726.2000122
1044.717692	722.7999878
1045.283903	722.4000244
1045.850056	720.7999878
1046.416151	722.2000122
1046.982188	721.2000122
1047.548167	719.0
1048.114089	720.7999878
1048.679953	718.0
1049.24576	717.4000244
1049.811509	716.2000122
1050.3772	720.2000122
1050.942833	721.0
1051.508408	714.0
1052.073926	719.5999756
1052.639387	718.7999878
1053.204789	721.7999878
1053.770134	720.4000244
1054.335421	718.2000122
1054.900651	716.4000244
1055.465823	709.2000122
1056.030937	712.5999756
1056.595993	715.7999878
1057.160992	714.4000244
1057.725934	713.4000244
1058.290817	721.0
1058.855643	713.4000244
1059.420411	713.7999878
1059.985122	713.4000244
1060.549775	715.7999878
1061.114371	715.4000244
1061.678908	716.2000122
1062.243389	717.5999756
1062.807811	712.4000244
1063.372176	713.5999756
1063.936483	714.4000244
1064.500733	717.7999878
1065.064925	713.7999878
1065.62906	713.5999756
1066.193137	715.4000244
1066.757156	710.7999878
1067.321118	720.2000122
1067.885022	719.0
1068.448869	714.4000244
1069.012658	717.7999878
1069.57639	713.2000122
1070.140063	722.0
1070.70368	714.7999878
1071.267239	719.0
1071.83074	716.5999756
1072.394184	713.5999756
1072.95757	713.4000244
1073.520899	720.4000244
1074.08417	717.4000244
1074.647383	720.2000122
1075.21054	716.7999878
1075.773638	719.4000244
1076.336679	723.2000122
1076.899663	717.7999878
1077.462589	718.7999878
1078.025457	717.7999878
1078.588268	716.4000244
1079.151022	721.4000244
1079.713718	720.4000244
1080.276356	721.0
1080.838937	716.7999878
1081.401461	723.0
1081.963927	716.5999756
1082.526336	725.5999756
1083.088687	719.2000122
1083.650981	722.5999756
1084.213217	720.2000122
1084.775396	721.7999878
1085.337517	723.5999756
1085.899581	728.5999756
1086.461587	725.0
1087.023536	725.5999756
1087.585428	722.7999878
1088.147262	724.7999878
1088.709039	727.4000244
1089.270758	724.2000122
1089.83242	726.2000122
1090.394024	730.2000122
1090.955571	726.0
1091.517061	729.5999756
1092.078493	730.4000244
1092.639868	727.5999756
1093.201185	730.2000122
1093.762445	728.5999756
1094.323648	730.4000244
1094.884793	730.0
1095.445881	734.2000122
1096.006911	728.5999756
1096.567884	726.5999756
1097.1288	731.0
1097.689659	730.7999878
1098.25046	735.0
1098.811203	726.2000122
1099.37189	725.2000122
1099.932518	722.5999756
1100.49309	723.2000122
1101.053604	727.5999756
1101.614061	724.0
1102.174461	719.5999756
1102.734803	721.4000244
1103.295088	721.4000244
1103.855316	718.5999756
1104.415486	718.5999756
1104.975599	720.5999756
1105.535655	720.0
1106.095653	722.7999878
1106.655594	719.7999878
1107.215478	720.0
1107.775305	718.5999756
1108.335074	726.2000122
1108.894786	721.7999878
1109.45444	724.4000244
1110.014038	718.2000122
1110.573578	722.4000244
1111.133061	720.2000122
1111.692486	723.2000122
1112.251854	723.0
1112.811165	724.5999756
1113.370419	722.5999756
1113.929616	720.0
1114.488755	720.4000244
1115.047837	716.2000122
1115.606862	719.0
1116.16583	722.5999756
1116.72474	720.0
1117.283593	722.5999756
1117.842389	717.5999756
1118.401128	718.4000244
1118.959809	718.0
1119.518433	724.5999756
1120.077	719.7999878
1120.63551	718.0
1121.193963	720.4000244
1121.752358	727.0
1122.310697	719.5999756
1122.868978	721.4000244
1123.427202	721.2000122
1123.985368	722.2000122
1124.543478	719.0
1125.10153	726.4000244
1125.659526	719.7999878
1126.217464	723.4000244
1126.775345	723.0
1127.333168	723.5999756
1127.890935	719.4000244
1128.448644	717.4000244
1129.006297	719.5999756
1129.563892	721.4000244
1130.12143	724.7999878
1130.678911	723.7999878
1131.236335	725.0
1131.793701	727.2000122
1132.351011	719.2000122
1132.908263	724.5999756
1133.465458	723.4000244
1134.022597	717.5999756
1134.579678	719.7999878
1135.136702	722.0
1135.693669	719.4000244
1136.250578	721.7999878
1136.807431	720.4000244
1137.364227	720.4000244
1137.920965	718.4000244
1138.477647	718.0
1139.034271	726.2000122
1139.590839	719.2000122
1140.147349	723.0
1140.703802	723.2000122
1141.260198	722.2000122
1141.816537	722.4000244
1142.37282	722.4000244
1142.929045	725.7999878
1143.485213	725.0
1144.041323	716.5999756
1144.597377	721.0
1145.153374	721.5999756
1145.709314	721.0
1146.265197	724.4000244
1146.821023	723.5999756
1147.376792	720.5999756
1147.932503	724.4000244
1148.488158	721.0
1149.043756	717.5999756
1149.599297	723.4000244
1150.154781	724.0
1150.710207	719.5999756
1151.265577	728.4000244
1151.82089	724.5999756
1152.376146	725.7999878
1152.931345	721.4000244
1153.486487	720.7999878
1154.041572	718.7999878
1154.5966	718.7999878
1155.151571	728.0
1155.706485	719.4000244
1156.261342	722.4000244
1156.816142	722.5999756
1157.370885	721.5999756
1157.925572	721.2000122
1158.480201	722.0
1159.034774	720.4000244
1159.589289	722.0
1160.143748	721.2000122
1160.698149	720.0
1161.252494	722.2000122
1161.806782	718.0
1162.361013	719.5999756
1162.915187	717.4000244
1163.469304	720.0
1164.023364	724.5999756
1164.577368	722.5999756
1165.131314	726.0
1165.685204	720.4000244
1166.239036	722.0
1166.792812	719.4000244
1167.346531	722.5999756
1167.900193	721.5999756
1168.453798	722.4000244
1169.007347	723.2000122
1169.560838	722.0
1170.114273	726.0
1170.66765	720.7999878
1171.220971	723.4000244
1171.774235	720.7999878
1172.327443	719.7999878
1172.880593	721.2000122
1173.433687	720.7999878
1173.986723	722.5999756
1174.539703	724.5999756
1175.092626	722.2000122
1175.645493	722.4000244
1176.198302	717.5999756
1176.751055	720.2000122
1177.303751	720.2000122
1177.85639	718.2000122
1178.408972	722.7999878
1178.961498	717.0
1179.513966	717.2000122
1180.066378	719.5999756
1180.618733	721.2000122
1181.171032	724.2000122
1181.723273	718.2000122
1182.275458	722.0
1182.827586	718.5999756
1183.379657	723.5999756
1183.931672	717.7999878
1184.48363	717.2000122
1185.035531	718.2000122
1185.587375	724.4000244
1186.139162	718.2000122
1186.690893	718.7999878
1187.242567	719.0
1187.794184	719.7999878
1188.345745	724.5999756
1188.897249	720.2000122
1189.448696	726.0
1190.000086	725.4000244
1190.55142	720.4000244
1191.102697	722.2000122
1191.653918	721.4000244
1192.205081	715.4000244
1192.756188	719.0
1193.307238	737.7999878
1193.858232	714.0
1194.409169	722.7999878
1194.960049	722.7999878
1195.510872	719.0
1196.061639	715.5999756
1196.612349	720.2000122
1197.163003	719.5999756
1197.713599	723.2000122
1198.264139	717.2000122
1198.814623	725.4000244
1199.36505	718.4000244
1199.91542	720.7999878
1200.465734	717.7999878
1201.01599	719.5999756
1201.566191	719.2000122
1202.116334	717.5999756
1202.666421	716.4000244
1203.216452	719.2000122
1203.766425	716.2000122
1204.316343	719.5999756
1204.866203	718.2000122
1205.416007	719.2000122
1205.965754	719.7999878
1206.515445	719.4000244
1207.065079	718.4000244
1207.614657	719.4000244
1208.164177	719.4000244
1208.713642	718.5999756
1209.26305	721.4000244
1209.812401	722.7999878
1210.361695	721.2000122
1210.910933	720.5999756
1211.460115	719.4000244
1212.00924	719.2000122
1212.558308	723.7999878
1213.10732	721.2000122
1213.656275	721.7999878
1214.205174	717.5999756
1214.754016	718.0
1215.302801	720.2000122
1215.85153	715.7999878
1216.400203	714.0
1216.948819	715.5999756
1217.497378	714.0
1218.045881	718.2000122
1218.594327	717.5999756
1219.142717	719.0
1219.691051	719.4000244
1220.239327	726.0
1220.787548	715.2000122
1221.335712	717.7999878
1221.883819	719.4000244
1222.43187	720.2000122
1222.979864	718.5999756
1223.527802	722.7999878
1224.075683	720.0
1224.623508	720.0
1225.171277	717.7999878
1225.718989	721.2000122
1226.266644	717.5999756
1226.814243	719.0
1227.361786	721.0
1227.909272	719.4000244
1228.456702	716.5999756
1229.004075	719.0
1229.551392	721.7999878
1230.098652	718.0
1230.645856	719.5999756
1231.193003	720.2000122
1231.740094	721.7999878
1232.287129	722.7999878
1232.834107	720.5999756
1233.381029	718.7999878
1233.927894	718.5999756
1234.474703	717.0
1235.021455	716.0
1235.568151	715.0
1236.114791	716.2000122
1236.661374	716.2000122
1237.207901	714.5999756
1237.754372	720.7999878
1238.300786	719.2000122
1238.847144	717.7999878
1239.393445	717.5999756
1239.93969	718.2000122
1240.485879	721.7999878
1241.032011	719.2000122
1241.578087	718.5999756
1242.124106	714.4000244
1242.67007	719.0
1243.215976	720.7999878
1243.761827	716.2000122
1244.307621	716.0
1244.853359	723.7999878
1245.39904	717.4000244
1245.944665	721.7999878
1246.490234	720.4000244
1247.035746	719.0
1247.581203	720.2000122
1248.126602	722.0
1248.671946	718.7999878
1249.217233	716.2000122
1249.762464	717.0
1250.307638	720.0
1250.852757	717.5999756
1251.397819	720.4000244
1251.942824	717.4000244
1252.487774	718.5999756
1253.032667	714.0
1253.577503	719.2000122
1254.122284	716.2000122
1254.667008	715.0
1255.211676	716.4000244
1255.756288	712.5999756
1256.300843	718.4000244
1256.845342	712.5999756
1257.389785	717.5999756
1257.934172	717.7999878
1258.478502	717.0
1259.022776	714.5999756
1259.566994	720.4000244
1260.111156	729.5999756
1260.655261	717.5999756
1261.199311	720.4000244
1261.743304	717.0
1262.28724	714.4000244
1262.831121	714.4000244
1263.374945	715.5999756
1263.918713	719.2000122
1264.462425	723.0
1265.006081	728.7999878
1265.54968	722.7999878
1266.093223	718.5999756
1266.636711	717.2000122
1267.180141	719.7999878
1267.723516	719.2000122
1268.266835	718.4000244
1268.810097	715.0
1269.353303	714.4000244
1269.896453	720.0
1270.439547	716.4000244
1270.982584	716.4000244
1271.525566	720.4000244
1272.068491	721.5999756
1272.61136	717.2000122
1273.154173	713.5999756
1273.69693	718.0
1274.239631	713.7999878
1274.782275	717.2000122
1275.324864	717.0
1275.867396	720.2000122
1276.409872	721.4000244
1276.952292	720.4000244
1277.494656	716.7999878
1278.036964	714.2000122
1278.579215	719.7999878
1279.121411	717.7999878
1279.66355	718.2000122
1280.205634	718.4000244
1280.747661	718.5999756
1281.289632	715.2000122
1281.831547	718.4000244
1282.373406	717.0
1282.915209	720.4000244
1283.456955	724.2000122
1283.998646	734.0
1284.540281	763.2000122
1285.081859	781.5999756
1285.623381	762.2000122
1286.164848	735.7999878
1286.706258	727.2000122
1287.247612	718.5999756
1287.788911	714.7999878
1288.330153	718.4000244
1288.871339	717.5999756
1289.412469	712.7999878
1289.953543	716.7999878
1290.494561	714.5999756
1291.035523	720.0
1291.576428	717.5999756
1292.117278	714.0
1292.658072	713.4000244
1293.19881	717.4000244
1293.739492	712.7999878
1294.280118	721.5999756
1294.820687	716.5999756
1295.361201	719.4000244
1295.901659	715.2000122
1296.442061	715.7999878
1296.982406	716.0
1297.522696	716.4000244
1298.06293	715.7999878
1298.603108	711.5999756
1299.143229	713.7999878
1299.683295	717.5999756
1300.223305	714.7999878
1300.763259	711.2000122
1301.303157	717.0
1301.842999	712.0
1302.382785	714.5999756
1302.922515	715.4000244
1303.462189	716.5999756
1304.001807	714.7999878
1304.541369	715.2000122
1305.080875	715.2000122
1305.620326	716.2000122
1306.15972	714.7999878
1306.699058	716.4000244
1307.238341	715.7999878
1307.777567	716.5999756
1308.316738	715.2000122
1308.855853	714.4000244
1309.394912	711.4000244
1309.933915	719.2000122
1310.472862	716.5999756
1311.011753	714.0
1311.550588	713.5999756
1312.089367	719.0
1312.62809	715.2000122
1313.166758	711.7999878
1313.70537	715.4000244
1314.243925	714.0
1314.782425	715.4000244
1315.320869	711.7999878
1315.859257	712.5999756
1316.397589	712.2000122
1316.935866	717.7999878
1317.474086	711.4000244
1318.012251	713.7999878
1318.55036	717.4000244
1319.088413	712.7999878
1319.62641	712.0
1320.164351	715.2000122
1320.702236	713.4000244
1321.240066	712.7999878
1321.777839	718.0
1322.315557	715.2000122
1322.853219	713.0
1323.390826	713.2000122
1323.928376	719.4000244
1324.465871	709.0
1325.003309	718.7999878
1325.540692	713.5999756
1326.07802	712.0
1326.615291	714.4000244
1327.152506	710.2000122
1327.689666	715.0
1328.22677	714.5999756
1328.763818	715.5999756
1329.300811	712.4000244
1329.837747	716.5999756
1330.374628	713.5999756
1330.911453	714.2000122
1331.448222	707.7999878
1331.984936	713.0
1332.521594	714.2000122
1333.058196	713.0
1333.594742	717.2000122
1334.131232	713.7999878
1334.667667	713.5999756
1335.204046	708.5999756
1335.740369	712.5999756
1336.276637	711.2000122
1336.812848	712.0
1337.349004	713.0
1337.885105	709.2000122
1338.421149	709.0
1338.957138	714.0
1339.493071	709.7999878
1340.028949	718.0
1340.56477	711.7999878
1341.100536	710.0
1341.636246	713.0
1342.171901	708.2000122
1342.7075	708.7999878
1343.243043	713.0
1343.77853	711.2000122
1344.313962	710.7999878
1344.849338	716.7999878
1345.384659	714.0
1345.919923	713.2000122
1346.455133	714.5999756
1346.990286	711.2000122
1347.525384	712.2000122
1348.060426	711.5999756
1348.595412	712.0
1349.130343	712.4000244
1349.665218	710.4000244
1350.200037	711.2000122
1350.734801	713.7999878
1351.269509	714.0
1351.804162	709.0
1352.338758	717.2000122
1352.8733	711.4000244
1353.407785	713.7999878
1353.942215	713.7999878
1354.476589	711.2000122
1355.010908	717.2000122
1355.545171	717.7999878
1356.079379	711.0
1356.61353	707.7999878
1357.147627	714.4000244
1357.681667	713.5999756
1358.215652	713.5999756
1358.749582	713.7999878
1359.283456	714.0
1359.817274	716.4000244
1360.351037	712.7999878
1360.884744	711.5999756
1361.418395	711.4000244
1361.951991	709.5999756
1362.485531	710.5999756
1364.085819	714.7999878
1364.619137	713.2000122
1365.1524	712.4000244
1365.685607	713.7999878
1366.218758	713.2000122
1366.751854	714.0
1367.284894	714.4000244
1367.817879	712.5999756
1368.350808	716.4000244
1368.883682	710.2000122
1369.4165	709.4000244
1369.949263	712.7999878
1370.48197	720.2000122
1371.014622	714.4000244
1371.547218	711.5999756
1372.079758	708.2000122
1372.612244	714.5999756
1373.144673	710.0
1373.677047	715.0
1374.209366	715.7999878
1374.741629	714.4000244
1375.273836	710.4000244
1375.805989	717.4000244
1376.338085	708.7999878
1376.870126	715.2000122
1377.402112	707.4000244
1377.934042	712.2000122
1378.465917	713.7999878
1378.997736	717.2000122
1379.5295	713.7999878
1380.061208	719.2000122
1380.592861	714.4000244
1381.124459	717.4000244
1381.656	716.2000122
1382.187487	715.4000244
1382.718918	713.2000122
1383.250294	717.0
1383.781614	715.4000244
1384.312879	717.4000244
1384.844088	714.7999878
1385.375242	716.0
1385.90634	720.4000244
1386.437383	719.2000122
1386.968371	720.2000122
1387.499303	730.7999878
1388.03018	786.7999878
1388.561001	825.7999878
1389.091767	782.2000122
1389.622478	730.2000122
1390.153133	720.2000122
1390.683733	715.4000244
1391.214277	713.4000244
1391.744766	715.4000244
1392.2752	717.7999878
1392.805578	716.4000244
1393.335901	714.4000244
1393.866168	713.7999878
1394.396381	710.7999878
1394.926537	710.4000244
1395.456639	710.7999878
1395.986685	710.7999878
1396.516675	710.4000244
1397.046611	711.7999878
1397.576491	712.7999878
1398.106315	715.7999878
1398.636084	707.2000122
1399.165798	716.7999878
1399.695457	708.0
1400.22506	714.5999756
1400.754608	709.4000244
1401.284101	712.0
1401.813538	711.2000122
1402.34292	712.4000244
1402.872247	712.4000244
1403.401518	709.4000244
1403.930734	712.5999756
1404.459895	711.2000122
1404.989	716.5999756
1405.51805	708.4000244
1406.047045	716.0
1406.575984	711.2000122
1407.104869	711.5999756
1407.633697	712.7999878
1408.162471	717.5999756
1408.691189	714.5999756
1409.219852	721.0
1409.74846	719.0
1410.277013	720.4000244
1410.80551	714.2000122
1411.333952	717.0
1411.862339	714.4000244
1412.39067	710.2000122
1412.918946	711.4000244
1413.447167	711.5999756
1413.975333	713.4000244
1414.503444	710.7999878
1415.031499	709.0
1415.559499	714.0
1416.087444	708.5999756
1416.615333	712.5999756
1417.143167	709.0
1417.670947	712.0
1418.19867	710.7999878
1418.726339	713.7999878
1419.253952	708.2000122
1419.781511	709.5999756
1420.309014	710.4000244
1420.836461	710.4000244
1421.363854	711.4000244
1421.891191	710.7999878
1422.418474	714.7999878
1422.945701	704.0
1423.472872	707.7999878
1423.999989	709.2000122
1424.52705	706.4000244
1425.054057	709.0
1425.581008	708.0
1426.107904	709.2000122
1426.634745	706.5999756
1427.16153	709.5999756
1427.688261	709.7999878
1428.214936	707.7999878
1428.741556	707.5999756
1429.268121	704.2000122
1429.794631	708.0
1430.321085	705.0
1430.847485	706.5999756
1431.373829	702.2000122
1431.900118	707.2000122
1432.426353	705.5999756
1432.952532	707.7999878
1433.478655	702.7999878
1434.004724	708.4000244
1434.530738	706.0
1435.056696	705.5999756
1435.5826	707.4000244
1436.108448	705.5999756
1436.634241	703.7999878
1437.159979	701.0
1437.685662	703.5999756
1438.21129	707.4000244
1438.736863	704.2000122
1439.262381	703.5999756
1439.787843	703.7999878
1440.313251	706.0
1440.838603	706.0
1441.3639	702.7999878
1441.889143	706.7999878
1442.41433	703.0
1442.939462	709.0
1443.464539	709.7999878
1443.989561	706.7999878
1444.514528	700.7999878
1445.03944	702.0
1445.564297	699.5999756
1446.089099	702.4000244
1446.613846	699.4000244
1447.138537	702.4000244
1447.663174	706.4000244
1448.187756	704.7999878
1448.712282	699.5999756
1449.236754	700.4000244
1449.761171	704.2000122
1450.285532	701.7999878
1450.809839	702.0
1451.33409	699.7999878
1451.858287	696.5999756
1452.382428	702.2000122
1452.906515	701.5999756
1453.430546	705.2000122
1453.954523	704.4000244
1454.478444	702.7999878
1455.002311	703.7999878
1455.526123	701.7999878
1456.049879	702.4000244
1456.573581	699.4000244
1457.097227	699.7999878
1457.620819	702.5999756
1458.144356	702.4000244
1458.667837	701.5999756
1459.191264	698.2000122
1459.714636	700.0
1460.237952	703.2000122
1460.761214	702.5999756
1461.284421	698.0
1461.807573	701.7999878
1462.33067	697.5999756
1462.853712	703.7999878
1463.376699	700.4000244
1463.899632	702.7999878
1464.422509	699.4000244
1464.945331	697.0
1465.468099	701.2000122
1465.990811	701.7999878
1466.513469	698.2000122
1467.036071	700.4000244
1467.558619	696.4000244
1468.081112	700.5999756
1468.60355	697.5999756
1469.125933	701.0
1469.648261	697.2000122
1470.170534	699.4000244
1470.692752	702.5999756
1471.214916	699.5999756
1471.737024	700.0
1472.259078	703.5999756
1472.781077	696.2000122
1473.303021	698.5999756
1473.82491	696.0
1474.346744	699.7999878
1474.868523	696.4000244
1475.390248	694.7999878
1475.911917	696.4000244
1476.433532	696.5999756
1476.955092	698.2000122
1477.476597	697.2000122
1477.998047	696.7999878
1478.519442	696.7999878
1479.040783	697.4000244
1479.562068	693.0
1480.083299	694.2000122
1480.604475	695.7999878
1481.125596	694.0
1481.646663	694.0
1482.167674	699.0
1482.688631	699.0
1483.209533	696.4000244
1483.73038	694.4000244
1484.251172	691.5999756
1484.771909	695.5999756
1485.292592	697.7999878
1485.81322	698.0
1486.333793	695.5999756
1486.854311	693.4000244
1487.374775	697.2000122
1487.895183	692.7999878
1488.415537	694.2000122
1488.935836	694.2000122
1489.456081	697.2000122
1489.97627	694.7999878
1490.496405	692.7999878
1491.016485	691.7999878
1491.536511	692.7999878
1492.056481	693.7999878
1492.576397	696.2000122
1493.096258	696.2000122
1493.616064	691.2000122
1494.135816	696.5999756
1494.655513	693.0
1495.175155	694.2000122
1495.694742	696.7999878
1496.214274	689.2000122
1496.733752	692.5999756
1497.253175	694.0
1497.772544	692.5999756
1498.291858	692.2000122
1498.811116	696.2000122
1499.330321	694.2000122
1499.84947	698.0
1500.368565	693.7999878
1500.887605	692.0
1501.406591	690.2000122
1501.925521	693.0
1502.444397	696.7999878
1502.963219	688.4000244
1503.481985	693.2000122
1504.000697	696.2000122
1504.519355	689.7999878
1505.037957	690.4000244
1505.556505	693.5999756
1506.074999	693.0
1506.593437	691.7999878
1507.111821	692.4000244
1507.63015	691.5999756
1508.148425	691.0
1508.666645	697.7999878
1509.18481	689.7999878
1509.702921	692.0
1510.220977	690.7999878
1510.738979	701.0
1511.256925	693.7999878
1511.774817	691.4000244
1512.292655	692.0
1512.810438	699.0
1513.328166	695.0
1513.84584	691.4000244
1514.363459	691.4000244
1514.881023	690.0
1515.398533	692.0
1515.915988	694.2000122
1516.433389	690.7999878
1516.950734	692.5999756
1517.468026	695.2000122
1517.985263	689.7999878
1518.502445	692.4000244
1519.019572	692.4000244
1519.536645	692.5999756
1520.053664	692.0
1520.570628	693.4000244
1521.087537	692.0
1521.604392	692.5999756
1522.121192	693.4000244
1522.637937	691.5999756
1523.154628	692.0
1523.671265	688.7999878
1524.187847	690.4000244
1524.704374	695.2000122
1525.220847	690.0
1525.737265	694.0
1526.253629	690.2000122
1526.769938	695.4000244
1527.286192	688.5999756
1527.802392	693.2000122
1528.318538	692.5999756
1528.834629	696.0
1529.350666	693.4000244
1529.866648	691.5999756
1530.382575	693.0
1530.898448	691.2000122
1531.414266	687.2000122
1531.93003	690.7999878
1532.44574	690.0
1532.961395	692.2000122
1533.476995	688.0
1533.992541	691.0
1534.508033	691.0
1535.02347	688.2000122
1535.538852	693.0
1536.05418	690.7999878
1536.569454	691.7999878
1537.084673	690.0
1537.599837	691.7999878
1538.114947	690.7999878
1538.630003	695.0
1539.145004	689.5999756
1539.659951	689.4000244
1540.174843	690.5999756
1540.689681	690.5999756
1541.204465	692.0
1541.719194	692.2000122
1542.233868	688.0
1542.748488	687.2000122
1543.263054	692.4000244
1543.777565	693.7999878
1544.292022	689.5999756
1544.806424	687.7999878
1545.320772	688.7999878
1545.835066	689.5999756
1546.349305	691.5999756
1546.863489	691.2000122
1547.37762	689.7999878
1547.891696	694.0
1548.405717	688.2000122
1548.919684	694.7999878
1549.433597	690.7999878
1549.947455	693.5999756
1550.461259	689.4000244
1550.975009	693.0
1551.488704	688.2000122
1552.002345	689.2000122
1552.515931	692.5999756
1553.029463	689.2000122
1553.542941	691.0
1554.056364	689.7999878
1554.569733	690.0
1555.083048	686.2000122
1555.596308	691.0
1556.109514	694.7999878
1556.622665	690.4000244
1557.135762	685.0
1557.648805	692.2000122
1558.161794	691.4000244
1558.674728	688.5999756
1559.187608	689.4000244
1559.700433	688.7999878
1560.213205	691.5999756
1560.725921	692.5999756
1561.238584	693.0
1561.751192	693.2000122
1562.263746	689.4000244
1562.776246	690.5999756
1563.288691	693.2000122
1563.801082	691.5999756
1564.313419	695.4000244
1564.825701	690.7999878
1565.337929	688.2000122
1565.850103	690.7999878
1566.362223	688.0
1566.874288	693.5999756
1567.386299	692.5999756
1567.898256	688.7999878
1568.410158	691.7999878
1568.922007	691.5999756
1569.4338	692.2000122
1569.94554	690.4000244
1570.457226	687.7999878
1570.968857	688.4000244
1571.480434	689.5999756
1571.991956	689.4000244
1572.503425	689.4000244
1573.014839	692.4000244
1573.526199	693.4000244
1574.037505	689.2000122
1574.548756	689.0
1575.059953	688.0
1575.571096	689.2000122
1576.082185	688.5999756
1576.59322	688.0
1577.1042	690.2000122
1577.615126	691.2000122
1578.125998	691.5999756
1578.636816	689.0
1579.14758	690.0
1579.658289	687.5999756
1580.168944	690.4000244
1580.679545	691.5999756
1581.190092	691.5999756
1581.700585	687.4000244
1582.211023	688.2000122
1582.721407	688.4000244
1583.231737	691.4000244
1583.742013	690.4000244
1584.252235	692.4000244
1584.762403	688.5999756
1585.272516	691.4000244
1585.782575	689.5999756
1586.292581	693.5999756
1586.802532	691.0
1587.312428	689.5999756
1587.822271	689.2000122
1588.33206	692.0
1588.841794	689.2000122
1589.351474	695.0
1589.8611	688.7999878
1590.370672	690.7999878
1590.88019	688.7999878
1591.389654	690.2000122
1591.899064	689.7999878
1592.408419	685.5999756
