1042.452273	683.7999878
1043.018714	680.4000244
1043.585098	679.2000122
1044.151424	680.7999878
1044.717692	679.7999878
1045.283903	677.2000122
1045.850056	676.4000244
1046.416151	676.4000244
1046.982188	675.4000244
1047.548167	678.0
1048.114089	675.4000244
1048.679953	673.4000244
1049.24576	673.2000122
1049.811509	675.2000122
1050.3772	675.2000122
1050.942833	672.5999756
1051.508408	673.0
1052.073926	675.5999756
1052.639387	674.2000122
1053.204789	673.4000244
1053.770134	670.4000244
1054.335421	670.4000244
1054.900651	670.5999756
1055.465823	672.2000122
1056.030937	669.4000244
1056.595993	669.5999756
1057.160992	669.5999756
1057.725934	672.7999878
1058.290817	667.4000244
1058.855643	669.5999756
1059.420411	669.2000122
1059.985122	668.2000122
1060.549775	668.7999878
1061.114371	669.5999756
1061.678908	668.7999878
1062.243389	671.7999878
1062.807811	669.0
1063.372176	670.4000244
1063.936483	667.7999878
1064.500733	668.0
1065.064925	666.2000122
1065.62906	668.7999878
1066.193137	670.4000244
1066.757156	667.7999878
1067.321118	667.2000122
1067.885022	668.0
1068.448869	670.7999878
1069.012658	668.0
1069.57639	669.0
1070.140063	672.7999878
1070.70368	666.4000244
1071.267239	669.2000122
1071.83074	666.4000244
1072.394184	668.4000244
1072.95757	667.5999756
1073.520899	669.5999756
1074.08417	668.4000244
1074.647383	668.5999756
1075.21054	668.2000122
1075.773638	666.2000122
1076.336679	666.4000244
1076.899663	669.7999878
1077.462589	667.5999756
1078.025457	666.5999756
1078.588268	668.5999756
1079.151022	667.7999878
1079.713718	667.4000244
1080.276356	668.4000244
1080.838937	665.5999756
1081.401461	668.0
1081.963927	665.4000244
1082.526336	667.2000122
1083.088687	669.0
1083.650981	668.7999878
1084.213217	665.4000244
1084.775396	665.5999756
1085.337517	668.0
1085.899581	665.5999756
1086.461587	665.7999878
1087.023536	666.0
1087.585428	669.2000122
1088.147262	666.4000244
1088.709039	666.0
1089.270758	667.2000122
1089.83242	669.0
1090.394024	668.4000244
1090.955571	666.2000122
1091.517061	666.2000122
1092.078493	668.2000122
1092.639868	667.5999756
1093.201185	667.5999756
1093.762445	668.5999756
1094.323648	666.7999878
1094.884793	663.4000244
1095.445881	667.2000122
1096.006911	668.5999756
1096.567884	664.7999878
1097.1288	673.7999878
1097.689659	668.4000244
1098.25046	666.7999878
1098.811203	665.0
1099.37189	666.0
1099.932518	666.7999878
1100.49309	665.7999878
1101.053604	666.5999756
1101.614061	666.0
1102.174461	668.5999756
1102.734803	666.4000244
1103.295088	665.4000244
1103.855316	667.2000122
1104.415486	669.5999756
1104.975599	666.2000122
1105.535655	669.2000122
1106.095653	666.0
1106.655594	667.7999878
1107.215478	666.7999878
1107.775305	668.2000122
1108.335074	669.2000122
1108.894786	666.2000122
1109.45444	667.4000244
1110.014038	668.0
1110.573578	667.0
1111.133061	670.7999878
1111.692486	668.0
1112.251854	667.7999878
1112.811165	668.4000244
1113.370419	667.0
1113.929616	665.4000244
1114.488755	667.2000122
1115.047837	665.5999756
1115.606862	670.2000122
1116.16583	668.0
1116.72474	668.7999878
1117.283593	669.0
1117.842389	665.7999878
1118.401128	668.0
1118.959809	664.0
1119.518433	667.5999756
1120.077	668.2000122
1120.63551	667.7999878
1121.193963	665.2000122
1121.752358	667.7999878
1122.310697	667.7999878
1122.868978	666.4000244
1123.427202	666.7999878
1123.985368	664.2000122
1124.543478	666.7999878
1125.10153	666.7999878
1125.659526	665.7999878
1126.217464	668.2000122
1126.775345	665.4000244
1127.333168	666.7999878
1127.890935	666.7999878
1128.448644	664.4000244
1129.006297	665.2000122
1129.563892	664.0
1130.12143	667.5999756
1130.678911	665.5999756
1131.236335	667.0
1131.793701	667.4000244
1132.351011	667.0
1132.908263	666.7999878
1133.465458	669.5999756
1134.022597	667.5999756
1134.579678	668.4000244
1135.136702	664.2000122
1135.693669	663.5999756
1136.250578	667.0
1136.807431	667.2000122
1137.364227	664.7999878
1137.920965	667.7999878
1138.477647	665.7999878
1139.034271	665.4000244
1139.590839	668.7999878
1140.147349	664.0
1140.703802	664.7999878
1141.260198	668.2000122
1141.816537	665.2000122
1142.37282	667.2000122
1142.929045	666.4000244
1143.485213	664.7999878
1144.041323	667.4000244
1144.597377	667.4000244
1145.153374	666.5999756
1145.709314	667.5999756
1146.265197	668.0
1146.821023	665.4000244
1147.376792	667.4000244
1147.932503	665.5999756
1148.488158	668.2000122
1149.043756	664.0
1149.599297	666.5999756
1150.154781	663.0
1150.710207	666.0
1151.265577	666.5999756
1151.82089	667.4000244
1152.376146	665.5999756
1152.931345	666.5999756
1153.486487	665.2000122
1154.041572	664.5999756
1154.5966	669.2000122
1155.151571	668.5999756
1155.706485	663.4000244
1156.261342	667.4000244
1156.816142	665.4000244
1157.370885	666.7999878
1157.925572	665.0
1158.480201	667.0
1159.034774	668.2000122
1159.589289	665.4000244
1160.143748	666.2000122
1160.698149	664.4000244
1161.252494	665.5999756
1161.806782	667.7999878
1162.361013	666.4000244
1162.915187	664.7999878
1163.469304	665.2000122
1164.023364	668.7999878
1164.577368	666.5999756
1165.131314	667.2000122
1165.685204	666.2000122
1166.239036	666.5999756
1166.792812	668.2000122
1167.346531	665.2000122
1167.900193	667.2000122
1168.453798	664.0
1169.007347	668.2000122
1169.560838	666.4000244
1170.114273	667.4000244
1170.66765	667.4000244
1171.220971	667.5999756
1171.774235	666.2000122
1172.327443	667.4000244
1172.880593	665.4000244
1173.433687	666.2000122
1173.986723	667.4000244
1174.539703	665.4000244
1175.092626	667.0
1175.645493	665.2000122
1176.198302	666.7999878
1176.751055	666.5999756
1177.303751	666.7999878
1177.85639	667.7999878
1178.408972	664.5999756
1178.961498	665.7999878
1179.513966	664.5999756
1180.066378	666.4000244
1180.618733	667.5999756
1181.171032	664.4000244
1181.723273	664.7999878
1182.275458	667.2000122
1182.827586	666.5999756
1183.379657	666.2000122
1183.931672	669.5999756
1184.48363	666.4000244
1185.035531	669.0
1185.587375	667.0
1186.139162	666.4000244
1186.690893	668.0
1187.242567	667.0
1187.794184	666.4000244
1188.345745	665.7999878
1188.897249	669.4000244
1189.448696	668.0
1190.000086	666.2000122
1190.55142	667.2000122
1191.102697	666.5999756
1191.653918	670.0
1192.205081	667.5999756
1192.756188	666.5999756
1193.307238	687.4000244
1193.858232	667.4000244
1194.409169	665.0
1194.960049	668.2000122
1195.510872	668.4000244
1196.061639	665.4000244
1196.612349	666.5999756
1197.163003	665.0
1197.713599	667.7999878
1198.264139	666.4000244
1198.814623	666.5999756
1199.36505	667.7999878
1199.91542	666.2000122
1200.465734	664.5999756
1201.01599	668.5999756
1201.566191	665.7999878
1202.116334	668.0
1202.666421	667.2000122
1203.216452	667.4000244
1203.766425	668.2000122
1204.316343	667.4000244
1204.866203	665.7999878
1205.416007	665.2000122
1205.965754	666.2000122
1206.515445	666.7999878
1207.065079	667.7999878
1207.614657	666.0
1208.164177	669.0
1208.713642	667.5999756
1209.26305	664.4000244
1209.812401	667.0
1210.361695	669.0
1210.910933	667.0
1211.460115	668.0
1212.00924	670.2000122
1212.558308	667.5999756
1213.10732	667.2000122
1213.656275	665.5999756
1214.205174	667.5999756
1214.754016	669.2000122
1215.302801	668.4000244
1215.85153	670.0
1216.400203	668.2000122
1216.948819	666.5999756
1217.497378	668.4000244
1218.045881	666.2000122
1218.594327	667.4000244
1219.142717	668.2000122
1219.691051	670.2000122
1220.239327	670.5999756
1220.787548	667.2000122
1221.335712	667.7999878
1221.883819	667.7999878
1222.43187	670.0
1222.979864	668.5999756
1223.527802	670.0
1224.075683	670.2000122
1224.623508	668.2000122
1225.171277	665.5999756
1225.718989	669.7999878
1226.266644	670.0
1226.814243	671.4000244
1227.361786	668.2000122
1227.909272	666.2000122
1228.456702	670.4000244
1229.004075	670.5999756
1229.551392	666.4000244
1230.098652	668.4000244
1230.645856	671.4000244
1231.193003	668.2000122
1231.740094	670.5999756
1232.287129	670.0
1232.834107	670.4000244
1233.381029	670.4000244
1233.927894	669.2000122
1234.474703	672.0
1235.021455	670.5999756
1235.568151	668.5999756
1236.114791	670.4000244
1236.661374	670.5999756
1237.207901	668.0
1237.754372	671.0
1238.300786	668.5999756
1238.847144	670.2000122
1239.393445	669.4000244
1239.93969	670.4000244
1240.485879	670.5999756
1241.032011	671.7999878
1241.578087	669.0
1242.124106	668.0
1242.67007	671.4000244
1243.215976	670.0
1243.761827	673.2000122
1244.307621	673.4000244
1244.853359	671.5999756
1245.39904	669.5999756
1245.944665	672.7999878
1246.490234	674.2000122
1247.035746	675.2000122
1247.581203	674.7999878
1248.126602	672.4000244
1248.671946	675.0
1249.217233	675.4000244
1249.762464	672.0
1250.307638	676.7999878
1250.852757	674.7999878
1251.397819	674.7999878
1251.942824	672.0
1252.487774	673.7999878
1253.032667	673.4000244
1253.577503	671.4000244
1254.122284	675.4000244
1254.667008	675.2000122
1255.211676	673.2000122
1255.756288	673.0
1256.300843	678.0
1256.845342	676.2000122
1257.389785	678.5999756
1257.934172	679.4000244
1258.478502	682.7999878
1259.022776	684.2000122
1259.566994	680.0
1260.655261	684.7999878
1261.199311	685.5999756
1261.743304	690.0
1262.28724	696.2000122
1262.831121	703.4000244
1263.374945	712.4000244
1263.918713	711.0
1264.462425	712.7999878
1265.006081	707.4000244
1265.54968	703.4000244
1266.093223	688.7999878
1266.636711	685.0
1267.180141	680.2000122
1267.723516	683.0
1268.266835	680.7999878
1268.810097	679.7999878
1269.353303	679.5999756
1269.896453	680.7999878
1270.439547	681.2000122
1270.982584	679.5999756
1271.525566	682.2000122
1272.068491	682.2000122
1272.61136	679.2000122
1273.154173	680.7999878
1273.69693	681.0
1274.239631	685.7999878
1274.782275	682.5999756
1275.324864	682.7999878
1275.867396	681.5999756
1276.409872	683.4000244
1276.952292	683.4000244
1277.494656	684.7999878
1278.036964	685.5999756
1278.579215	691.5999756
1279.121411	694.4000244
1279.66355	692.5999756
1280.205634	696.4000244
1280.747661	713.2000122
1281.289632	730.2000122
1281.831547	777.0
1282.373406	861.5999756
1282.915209	1013.200012
1283.456955	1222.599976
1283.998646	1343.800049
1284.540281	1275.199951
1285.081859	1039.199951
1285.623381	856.2000122
1286.164848	769.5999756
1286.706258	725.4000244
1287.247612	710.2000122
1287.788911	702.4000244
1288.330153	693.7999878
1288.871339	693.5999756
1289.412469	687.7999878
1289.953543	692.0
1290.494561	688.5999756
1291.035523	685.5999756
1291.576428	681.0
1292.117278	681.4000244
1292.658072	682.0
1293.19881	681.7999878
1293.739492	682.4000244
1294.280118	681.4000244
1294.820687	677.5999756
1295.361201	678.7999878
1295.901659	682.2000122
1296.442061	680.0
1296.982406	677.4000244
1297.522696	677.7999878
1298.06293	681.0
1298.603108	677.0
1299.143229	676.0
1299.683295	674.4000244
1300.223305	677.2000122
1300.763259	672.5999756
1301.303157	676.7999878
1301.842999	676.0
1302.382785	673.4000244
1302.922515	676.7999878
1303.462189	675.4000244
1304.001807	677.2000122
1304.541369	677.4000244
1305.080875	675.0
1305.620326	676.4000244
1306.15972	673.7999878
1306.699058	677.5999756
1307.238341	671.4000244
1307.777567	677.0
1308.316738	679.5999756
1308.855853	677.2000122
1309.394912	672.4000244
1309.933915	674.4000244
1310.472862	673.5999756
1311.011753	673.5999756
1311.550588	675.4000244
1312.089367	673.0
1312.62809	672.5999756
1313.166758	675.5999756
1313.70537	675.2000122
1314.243925	674.4000244
1314.782425	676.2000122
1315.320869	675.0
1315.859257	673.7999878
1316.397589	672.2000122
1316.935866	675.5999756
1317.474086	675.5999756
1318.012251	674.5999756
1318.55036	675.2000122
1319.088413	675.0
1319.62641	675.2000122
1320.164351	672.5999756
1320.702236	673.5999756
1321.240066	672.5999756
1321.777839	674.4000244
1322.315557	676.4000244
1322.853219	673.0
1323.390826	671.0
1323.928376	676.5999756
1324.465871	673.2000122
1325.003309	673.0
1325.540692	672.4000244
1326.07802	676.5999756
1326.615291	674.7999878
1327.152506	673.0
1327.689666	673.5999756
1328.22677	675.7999878
1328.763818	672.2000122
1329.300811	672.7999878
1329.837747	675.4000244
1330.374628	673.5999756
1330.911453	673.5999756
1331.448222	675.2000122
1331.984936	672.0
1332.521594	674.2000122
1333.058196	675.4000244
1333.594742	672.2000122
1334.131232	673.4000244
1334.667667	671.7999878
1335.204046	672.2000122
1335.740369	674.5999756
1336.276637	671.7999878
1336.812848	672.7999878
1337.349004	671.4000244
1337.885105	672.7999878
1338.421149	671.7999878
1338.957138	672.2000122
1339.493071	670.4000244
1340.028949	672.4000244
1340.56477	673.4000244
1341.100536	673.5999756
1341.636246	675.4000244
1342.171901	671.0
1342.7075	671.5999756
1343.243043	672.7999878
1343.77853	671.2000122
1344.313962	675.7999878
1344.849338	673.4000244
1345.384659	674.2000122
1345.919923	674.0
1346.455133	673.4000244
1346.990286	675.2000122
1347.525384	671.5999756
1348.060426	674.2000122
1348.595412	671.5999756
1349.130343	672.7999878
1349.665218	673.4000244
1350.200037	673.7999878
1350.734801	673.4000244
1351.269509	673.2000122
1351.804162	679.0
1352.338758	674.5999756
1352.8733	676.2000122
1353.407785	673.4000244
1353.942215	676.0
1354.476589	675.7999878
1355.010908	676.5999756
1355.545171	672.4000244
1356.079379	672.5999756
1356.61353	674.7999878
1357.147627	673.2000122
1357.681667	675.7999878
1358.215652	673.4000244
1358.749582	673.5999756
1359.283456	674.0
1359.817274	675.7999878
1360.351037	675.5999756
1360.884744	675.7999878
1361.418395	672.2000122
1361.951991	679.0
1362.485531	676.4000244
1363.019016	678.0
1363.552445	678.5999756
1364.085819	676.7999878
1364.619137	681.0
1365.1524	680.0
1365.685607	676.0
1366.218758	678.7999878
1366.751854	676.4000244
1367.284894	677.5999756
1367.817879	677.2000122
1368.350808	679.2000122
1368.883682	684.7999878
1369.4165	690.0
1369.949263	701.7999878
1370.48197	700.4000244
1371.014622	686.7999878
1371.547218	681.4000244
1372.079758	679.5999756
1372.612244	681.5999756
1373.144673	683.5999756
1373.677047	679.0
1374.209366	679.5999756
1374.741629	683.5999756
1375.273836	682.7999878
1375.805989	681.4000244
1376.338085	685.7999878
1376.870126	683.7999878
1377.402112	683.7999878
1377.934042	684.0
1378.465917	685.4000244
1378.997736	683.5999756
1379.5295	690.2000122
1380.061208	691.7999878
1380.592861	687.2000122
1381.124459	688.0
1381.656	692.0
1382.187487	694.0
1382.718918	700.5999756
1383.250294	701.0
1383.781614	709.2000122
1384.312879	716.4000244
1384.844088	729.2000122
1385.375242	754.2000122
1385.90634	793.7999878
1386.437383	891.4000244
1386.968371	1140.400024
1387.499303	1644.199951
1388.03018	2148.600098
1388.561001	1764.0
1389.091767	1165.800049
1389.622478	880.7999878
1390.153133	782.4000244
1390.683733	740.0
1391.214277	724.4000244
1391.744766	711.5999756
1392.2752	702.2000122
1392.805578	698.2000122
1393.335901	694.0
1393.866168	697.2000122
1394.396381	691.0
1394.926537	687.7999878
1395.456639	687.7999878
1395.986685	682.4000244
1396.516675	684.2000122
1397.046611	689.0
1397.576491	686.5999756
1398.106315	686.4000244
1398.636084	683.0
1399.165798	686.5999756
1399.695457	685.0
1400.22506	683.7999878
1400.754608	686.5999756
1401.284101	681.4000244
1401.813538	683.0
1402.34292	682.5999756
1402.872247	687.4000244
1403.401518	685.4000244
1403.930734	683.0
1404.459895	687.4000244
1404.989	685.7999878
1405.51805	687.7999878
1406.047045	686.5999756
1406.575984	693.4000244
1407.104869	693.7999878
1407.633697	702.2000122
1408.162471	716.0
1408.691189	730.5999756
1409.219852	743.7999878
1409.74846	746.4000244
1410.277013	730.7999878
1410.80551	716.2000122
1411.333952	698.5999756
1411.862339	690.4000244
1412.39067	685.0
1412.918946	682.7999878
1413.447167	681.7999878
1413.975333	682.4000244
1414.503444	675.7999878
1415.031499	675.4000244
1415.559499	689.5999756
1416.087444	673.7999878
1416.615333	673.7999878
1417.143167	676.2000122
1417.670947	675.0
1418.19867	671.4000244
1418.726339	674.0
1419.253952	674.4000244
1419.781511	674.0
1420.309014	674.4000244
1420.836461	673.7999878
1421.363854	674.5999756
1421.891191	674.7999878
1422.418474	675.5999756
1422.945701	675.4000244
1423.472872	672.2000122
1423.999989	675.0
1424.52705	674.0
1425.054057	672.7999878
1425.581008	672.4000244
1426.107904	673.0
1426.634745	671.5999756
1427.16153	669.0
1427.688261	672.7999878
1428.214936	670.7999878
1428.741556	674.4000244
1429.268121	670.2000122
1429.794631	670.0
1430.321085	670.4000244
1430.847485	668.7999878
1431.373829	667.7999878
1431.900118	665.4000244
1432.426353	667.7999878
1432.952532	667.2000122
1433.478655	672.2000122
1434.004724	667.2000122
1434.530738	668.7999878
1435.056696	667.0
1435.5826	667.5999756
1436.108448	665.2000122
1436.634241	670.4000244
1437.159979	667.0
1437.685662	669.0
1438.21129	668.0
1438.736863	668.4000244
1439.262381	671.4000244
1439.787843	670.0
1440.313251	669.4000244
1440.838603	668.4000244
1441.3639	668.4000244
1441.889143	668.0
1442.41433	668.7999878
1442.939462	666.7999878
1443.464539	666.7999878
1443.989561	665.4000244
1444.514528	666.0
1445.03944	668.0
1445.564297	665.2000122
1446.089099	668.0
1446.613846	669.0
1447.138537	666.4000244
1447.663174	666.0
1448.187756	663.2000122
1448.712282	666.2000122
1449.236754	666.7999878
1449.761171	670.5999756
1450.285532	666.5999756
1450.809839	663.7999878
1451.33409	664.4000244
1451.858287	666.2000122
1452.382428	664.2000122
1452.906515	667.4000244
1453.430546	664.0
1453.954523	665.7999878
1454.478444	665.7999878
1455.002311	664.2000122
1455.526123	666.5999756
1456.049879	666.4000244
1456.573581	666.4000244
1457.097227	668.0
1457.620819	667.4000244
1458.144356	666.4000244
1458.667837	665.7999878
1459.191264	666.2000122
1459.714636	666.4000244
1460.237952	665.4000244
1460.761214	664.4000244
1461.284421	668.2000122
1461.807573	663.2000122
1462.33067	669.2000122
1462.853712	664.0
1463.376699	665.5999756
1463.899632	666.0
1464.422509	665.2000122
1464.945331	665.4000244
1465.468099	665.5999756
1465.990811	664.5999756
1466.513469	663.7999878
1467.036071	667.4000244
1467.558619	664.0
1468.081112	664.5999756
1468.60355	668.5999756
1469.125933	665.0
1469.648261	664.0
1470.170534	667.4000244
1470.692752	664.7999878
1471.214916	665.2000122
1471.737024	664.0
1472.259078	667.2000122
1472.781077	664.7999878
1473.303021	665.7999878
1473.82491	663.5999756
1474.346744	666.7999878
1474.868523	662.5999756
1475.390248	664.0
1475.911917	664.0
1476.433532	664.5999756
1476.955092	663.0
1477.476597	665.7999878
1477.998047	663.7999878
1478.519442	663.0
1479.040783	665.0
1479.562068	663.0
1480.083299	665.5999756
1480.604475	661.4000244
1481.125596	664.4000244
1481.646663	661.2000122
1482.167674	664.0
1482.688631	664.4000244
1483.209533	662.7999878
1483.73038	663.5999756
1484.251172	665.0
1484.771909	665.4000244
1485.292592	662.2000122
1485.81322	666.7999878
1486.333793	661.4000244
1486.854311	663.2000122
1487.374775	666.0
1487.895183	663.0
1488.415537	662.7999878
1488.935836	663.2000122
1489.456081	662.7999878
1489.97627	664.0
1490.496405	666.0
1491.016485	663.0
1491.536511	662.5999756
1492.056481	664.7999878
1492.576397	664.2000122
1493.096258	662.0
1493.616064	661.7999878
1494.135816	662.7999878
1494.655513	663.2000122
1495.175155	663.5999756
1495.694742	664.2000122
1496.214274	663.7999878
1496.733752	664.5999756
1497.253175	662.0
1497.772544	664.2000122
1498.291858	663.0
1498.811116	663.0
1499.330321	663.2000122
1499.84947	670.5999756
1500.368565	659.4000244
1500.887605	661.0
1501.406591	663.0
1501.925521	662.7999878
1502.444397	663.5999756
1502.963219	662.0
1503.481985	663.2000122
1504.000697	664.5999756
1504.519355	665.2000122
1505.037957	663.0
1505.556505	662.5999756
1506.074999	664.0
1506.593437	661.7999878
1507.111821	662.5999756
1507.63015	664.2000122
1508.148425	663.7999878
1508.666645	663.0
1509.18481	662.4000244
1509.702921	662.7999878
1510.220977	663.0
1510.738979	671.0
1511.256925	664.7999878
1511.774817	662.0
1512.292655	665.4000244
1512.810438	662.2000122
1513.328166	662.4000244
1513.84584	664.0
1514.363459	662.7999878
1514.881023	660.7999878
1515.398533	659.0
1515.915988	663.2000122
1516.433389	664.0
1516.950734	660.5999756
1517.468026	661.5999756
1517.985263	663.7999878
1518.502445	663.5999756
1519.019572	661.5999756
1519.536645	663.2000122
1520.053664	664.7999878
1520.570628	663.7999878
1521.087537	664.2000122
1521.604392	664.0
1522.121192	662.4000244
1522.637937	663.2000122
1523.154628	661.7999878
1523.671265	663.0
1524.187847	663.2000122
1524.704374	661.4000244
1525.220847	664.0
1525.737265	662.7999878
1526.253629	666.2000122
1526.769938	663.2000122
1527.286192	662.2000122
1527.802392	661.4000244
1528.318538	663.0
1528.834629	662.5999756
1529.350666	665.0
1529.866648	664.5999756
1530.382575	662.7999878
1530.898448	662.5999756
1531.414266	663.0
1531.93003	663.7999878
1532.44574	662.4000244
1532.961395	663.7999878
1533.476995	663.5999756
1533.992541	661.4000244
1534.508033	662.5999756
1535.02347	660.7999878
1535.538852	663.7999878
1536.05418	660.7999878
1536.569454	662.7999878
1537.084673	663.5999756
1537.599837	661.7999878
1538.114947	663.2000122
1538.630003	665.2000122
1539.145004	663.0
1539.659951	664.7999878
1540.174843	662.5999756
1540.689681	661.5999756
1541.204465	661.5999756
1541.719194	663.0
1542.233868	663.2000122
1542.748488	662.2000122
1543.263054	663.5999756
1543.777565	660.2000122
1544.292022	662.7999878
1544.806424	660.4000244
1545.320772	663.2000122
1545.835066	664.2000122
1546.349305	663.0
1546.863489	662.2000122
1547.37762	664.5999756
1547.891696	661.7999878
1548.405717	663.2000122
1548.919684	665.4000244
1549.433597	662.0
1549.947455	662.0
1550.461259	661.2000122
1550.975009	664.5999756
1551.488704	663.5999756
1552.002345	663.0
1552.515931	663.2000122
1553.029463	664.2000122
1553.542941	662.5999756
1554.056364	663.7999878
1554.569733	661.5999756
1555.083048	662.2000122
1555.596308	661.4000244
1556.109514	663.2000122
1556.622665	663.0
1557.135762	662.5999756
1557.648805	664.4000244
1558.161794	662.7999878
1558.674728	662.2000122
1559.187608	660.7999878
1559.700433	662.0
1560.213205	663.0
1560.725921	660.4000244
1561.238584	663.5999756
1561.751192	663.4000244
1562.263746	663.2000122
1562.776246	661.4000244
1563.288691	662.0
1563.801082	662.7999878
1564.313419	663.5999756
1564.825701	660.2000122
1565.337929	662.5999756
1565.850103	660.5999756
1566.362223	661.4000244
1566.874288	664.4000244
1567.386299	660.7999878
1567.898256	663.0
1568.410158	664.4000244
1568.922007	662.5999756
1569.4338	664.4000244
1569.94554	663.2000122
1570.457226	663.2000122
1570.968857	664.2000122
1571.480434	665.4000244
1571.991956	662.0
1572.503425	662.7999878
1573.014839	663.4000244
1573.526199	663.4000244
1574.037505	661.0
1574.548756	664.0
1575.059953	663.2000122
1575.571096	660.4000244
1576.082185	662.2000122
1576.59322	662.2000122
1577.1042	660.7999878
1577.615126	664.5999756
1578.125998	661.0
1578.636816	664.0
1579.14758	662.5999756
1579.658289	663.2000122
1580.168944	663.0
1580.679545	662.4000244
1581.190092	660.0
1581.700585	662.0
1582.211023	665.2000122
1582.721407	661.5999756
1583.231737	663.4000244
1583.742013	665.0
1584.252235	663.0
1584.762403	661.7999878
1585.272516	662.0
1585.782575	663.0
1586.292581	661.0
1586.802532	661.5999756
1587.312428	664.2000122
1587.822271	663.7999878
1588.33206	662.4000244
1588.841794	661.4000244
1589.351474	661.4000244
1589.8611	664.0
1590.370672	660.7999878
1590.88019	664.7999878
1591.389654	662.7999878
1591.899064	665.4000244
1592.408419	660.0
