1042.452273	691.7999878
1043.018714	694.2000122
1043.585098	688.5999756
1044.151424	690.7999878
1044.717692	689.4000244
1045.283903	687.2000122
1045.850056	681.2000122
1046.416151	682.5999756
1046.982188	689.0
1047.548167	684.2000122
1048.114089	679.2000122
1048.679953	684.0
1049.24576	683.2000122
1049.811509	680.5999756
1050.3772	681.5999756
1050.942833	681.0
1051.508408	681.5999756
1052.073926	683.7999878
1052.639387	678.7999878
1053.204789	677.7999878
1053.770134	675.5999756
1054.335421	676.2000122
1054.900651	677.2000122
1055.465823	674.0
1056.030937	673.7999878
1056.595993	675.2000122
1057.160992	675.4000244
1057.725934	674.0
1058.290817	675.7999878
1058.855643	672.4000244
1059.420411	674.5999756
1059.985122	674.7999878
1060.549775	674.7999878
1061.114371	676.7999878
1061.678908	671.7999878
1062.243389	676.4000244
1062.807811	674.0
1063.372176	673.5999756
1063.936483	671.7999878
1064.500733	673.4000244
1065.064925	674.0
1065.62906	673.5999756
1066.193137	675.2000122
1066.757156	674.7999878
1067.321118	672.4000244
1067.885022	673.0
1068.448869	672.4000244
1069.012658	673.4000244
1069.57639	673.2000122
1070.140063	682.0
1070.70368	675.0
1071.267239	675.5999756
1071.83074	673.2000122
1072.394184	673.0
1072.95757	671.0
1073.520899	673.2000122
1074.08417	673.4000244
1074.647383	672.7999878
1075.21054	671.7999878
1075.773638	670.7999878
1076.336679	674.2000122
1076.899663	670.7999878
1077.462589	674.4000244
1078.025457	671.0
1078.588268	673.0
1079.151022	674.4000244
1079.713718	668.4000244
1080.276356	674.2000122
1080.838937	672.0
1081.401461	671.2000122
1081.963927	674.5999756
1082.526336	674.0
1083.088687	673.5999756
1083.650981	671.0
1084.213217	672.5999756
1084.775396	673.0
1085.337517	672.2000122
1085.899581	671.2000122
1086.461587	672.2000122
1087.023536	674.5999756
1087.585428	673.5999756
1088.147262	673.7999878
1088.709039	674.2000122
1089.270758	675.0
1089.83242	669.4000244
1090.394024	673.4000244
1090.955571	675.5999756
1091.517061	669.5999756
1092.078493	671.5999756
1092.639868	668.7999878
1093.201185	672.4000244
1093.762445	671.4000244
1094.323648	671.7999878
1094.884793	671.2000122
1095.445881	673.5999756
1096.006911	670.5999756
1096.567884	674.2000122
1097.1288	679.5999756
1097.689659	672.0
1098.25046	669.7999878
1098.811203	671.2000122
1099.37189	668.7999878
1099.932518	671.7999878
1100.49309	672.0
1101.053604	675.5999756
1101.614061	670.5999756
1102.174461	668.5999756
1102.734803	671.7999878
1103.295088	674.2000122
1103.855316	755.0
1104.415486	904.5999756
1104.975599	971.2000122
1105.535655	805.7999878
1106.095653	921.5999756
1106.655594	745.5999756
1107.215478	670.0
1107.775305	672.5999756
1108.335074	671.7999878
1108.894786	672.2000122
1109.45444	672.4000244
1110.014038	673.4000244
1110.573578	673.5999756
1111.133061	673.0
1111.692486	673.4000244
1112.251854	676.2000122
1112.811165	672.0
1113.370419	668.4000244
1113.929616	672.2000122
1114.488755	671.5999756
1115.047837	672.0
1115.606862	671.4000244
1116.16583	673.5999756
1116.72474	671.2000122
1117.283593	674.2000122
1117.842389	670.7999878
1118.401128	668.2000122
1118.959809	668.0
1119.518433	671.0
1120.077	671.0
1120.63551	671.5999756
1121.193963	672.4000244
1121.752358	671.7999878
1122.310697	670.4000244
1122.868978	674.0
1123.427202	671.5999756
1123.985368	672.4000244
1124.543478	670.4000244
1125.10153	669.0
1125.659526	673.7999878
1126.217464	669.4000244
1126.775345	673.0
1127.333168	670.7999878
1127.890935	669.4000244
1128.448644	670.5999756
1129.006297	673.7999878
1129.563892	673.2000122
1130.12143	671.7999878
1130.678911	667.7999878
1131.236335	670.7999878
1131.793701	669.5999756
1132.351011	670.2000122
1132.908263	669.5999756
1133.465458	667.5999756
1134.022597	671.0
1134.579678	671.7999878
1135.136702	672.4000244
1135.693669	670.5999756
1136.250578	671.7999878
1136.807431	671.2000122
1137.364227	672.2000122
1137.920965	671.0
1138.477647	671.0
1139.034271	673.5999756
1139.590839	670.4000244
1140.147349	671.2000122
1140.703802	671.5999756
1141.260198	671.4000244
1141.816537	671.0
1142.37282	671.4000244
1142.929045	671.2000122
1143.485213	669.0
1144.041323	670.7999878
1144.597377	672.2000122
1145.153374	671.4000244
1145.709314	675.5999756
1146.265197	671.4000244
1146.821023	672.5999756
1147.376792	670.7999878
1147.932503	671.2000122
1148.488158	671.7999878
1149.043756	673.4000244
1149.599297	672.5999756
1150.154781	671.5999756
1150.710207	672.4000244
1151.265577	672.4000244
1151.82089	673.5999756
1152.376146	669.5999756
1152.931345	671.0
1153.486487	671.5999756
1154.041572	673.2000122
1154.5966	674.0
1155.151571	671.5999756
1155.706485	671.0
1156.261342	671.0
1156.816142	672.2000122
1157.370885	671.7999878
1157.925572	672.7999878
1158.480201	670.5999756
1159.034774	672.0
1159.589289	673.7999878
1160.143748	671.2000122
1160.698149	669.4000244
1161.252494	669.0
1161.806782	673.4000244
1162.361013	671.0
1162.915187	674.0
1163.469304	670.7999878
1164.023364	671.4000244
1164.577368	668.5999756
1165.131314	673.4000244
1165.685204	668.5999756
1166.239036	671.2000122
1166.792812	672.0
1167.346531	674.0
1167.900193	671.5999756
1168.453798	671.2000122
1169.007347	669.5999756
1169.560838	669.4000244
1170.114273	671.2000122
1170.66765	673.5999756
1171.220971	670.0
1171.774235	672.2000122
1172.327443	672.0
1172.880593	669.0
1173.433687	670.4000244
1173.986723	671.4000244
1174.539703	672.0
1175.092626	671.0
1175.645493	669.4000244
1176.198302	670.5999756
1176.751055	672.4000244
1177.303751	671.4000244
1177.85639	671.4000244
1178.408972	671.7999878
1178.961498	669.7999878
1179.513966	672.0
1180.066378	671.5999756
1180.618733	668.7999878
1181.171032	671.2000122
1181.723273	669.0
1182.275458	670.4000244
1182.827586	672.2000122
1183.379657	671.7999878
1183.931672	671.0
1184.48363	672.0
1185.035531	672.5999756
1185.587375	673.0
1186.139162	670.7999878
1186.690893	671.4000244
1187.242567	670.7999878
1187.794184	672.2000122
1188.345745	668.5999756
1188.897249	672.2000122
1189.448696	670.4000244
1190.000086	672.0
1190.55142	674.4000244
1191.102697	671.5999756
1191.653918	672.4000244
1192.205081	669.7999878
1192.756188	672.2000122
1193.307238	690.7999878
1193.858232	670.0
1194.409169	671.0
1194.960049	671.5999756
1195.510872	672.4000244
1196.061639	669.7999878
1196.612349	671.0
1197.163003	671.5999756
1197.713599	671.4000244
1198.264139	670.0
1198.814623	670.2000122
1199.36505	674.5999756
1199.91542	668.7999878
1200.465734	672.0
1201.01599	671.7999878
1201.566191	668.5999756
1202.116334	671.7999878
1202.666421	672.7999878
1203.216452	669.4000244
1203.766425	673.4000244
1204.316343	671.5999756
1204.866203	671.7999878
1205.416007	671.0
1205.965754	670.7999878
1206.515445	670.2000122
1207.065079	670.7999878
1207.614657	668.0
1208.164177	674.4000244
1208.713642	671.2000122
1209.26305	673.0
1209.812401	672.4000244
1210.361695	671.2000122
1210.910933	672.4000244
1211.460115	671.0
1212.00924	673.0
1212.558308	671.0
1213.10732	671.2000122
1213.656275	672.2000122
1214.205174	671.7999878
1214.754016	674.4000244
1215.302801	671.0
1215.85153	672.2000122
1216.400203	672.0
1216.948819	671.0
1217.497378	672.2000122
1218.045881	672.5999756
1218.594327	671.7999878
1219.142717	667.2000122
1219.691051	671.7999878
1220.239327	674.2000122
1220.787548	673.0
1222.43187	672.7999878
1222.979864	672.4000244
1223.527802	670.2000122
1224.075683	671.7999878
1224.623508	673.7999878
1225.171277	673.4000244
1225.718989	672.2000122
1226.266644	675.5999756
1226.814243	674.0
1227.361786	675.0
1227.909272	673.0
1228.456702	673.5999756
1229.004075	674.5999756
1229.551392	672.7999878
1230.098652	672.7999878
1230.645856	670.5999756
1231.193003	674.7999878
1231.740094	675.2000122
1232.287129	671.7999878
1232.834107	673.2000122
1233.381029	671.0
1233.927894	670.7999878
1234.474703	675.2000122
1235.021455	673.4000244
1235.568151	674.5999756
1236.114791	676.2000122
1236.661374	673.4000244
1237.207901	672.0
1237.754372	673.2000122
1238.300786	673.4000244
1238.847144	674.4000244
1239.393445	674.7999878
1239.93969	672.4000244
1240.485879	674.0
1241.032011	674.2000122
1241.578087	673.7999878
1242.124106	673.5999756
1242.67007	676.0
1243.215976	673.7999878
1243.761827	675.4000244
1244.307621	674.4000244
1244.853359	673.0
1245.39904	676.0
1245.944665	675.2000122
1246.490234	676.2000122
1247.035746	674.0
1247.581203	673.0
1248.126602	675.7999878
1248.671946	677.0
1249.217233	674.4000244
1249.762464	673.7999878
1250.307638	677.0
1250.852757	674.5999756
1251.397819	676.7999878
1251.942824	675.5999756
1252.487774	676.4000244
1253.032667	678.7999878
1253.577503	673.5999756
1254.122284	677.4000244
1254.667008	674.2000122
1255.211676	678.4000244
1255.756288	674.2000122
1256.300843	677.5999756
1256.845342	678.4000244
1257.389785	680.0
1257.934172	679.4000244
1258.478502	684.7999878
1259.022776	685.2000122
1259.566994	680.7999878
1260.111156	700.5999756
1260.655261	681.2000122
1261.199311	683.4000244
1261.743304	689.7999878
1262.28724	694.0
1262.831121	696.7999878
1263.374945	706.7999878
1263.918713	713.5999756
1264.462425	711.0
1265.006081	703.0
1265.54968	695.2000122
1266.093223	689.7999878
1266.636711	685.5999756
1267.180141	684.5999756
1267.723516	682.2000122
1268.266835	683.5999756
1268.810097	680.2000122
1269.353303	680.5999756
1269.896453	684.4000244
1270.439547	681.5999756
1270.982584	680.0
1271.525566	680.7999878
1272.068491	682.5999756
1272.61136	682.0
1273.154173	685.0
1273.69693	681.5999756
1274.239631	685.4000244
1274.782275	681.7999878
1275.324864	683.2000122
1275.867396	681.5999756
1276.409872	682.2000122
1276.952292	685.5999756
1277.494656	687.7999878
1278.036964	686.5999756
1278.579215	688.5999756
1279.121411	685.2000122
1279.66355	695.5999756
1280.205634	693.4000244
1280.747661	707.5999756
1281.289632	720.7999878
1281.831547	748.7999878
1282.373406	813.0
1282.915209	931.5999756
1283.456955	1086.800049
1283.998646	1211.0
1284.540281	1176.800049
1285.081859	993.5999756
1285.623381	845.0
1286.164848	754.7999878
1286.706258	724.0
1287.247612	708.4000244
1287.788911	699.5999756
1288.330153	695.0
1288.871339	689.4000244
1289.412469	687.4000244
1289.953543	686.0
1290.494561	684.2000122
1291.035523	689.7999878
1291.576428	682.4000244
1292.117278	680.5999756
1292.658072	683.0
1293.19881	683.7999878
1293.739492	679.0
1294.280118	682.7999878
1294.820687	681.0
1295.361201	678.7999878
1295.901659	680.7999878
1296.442061	678.4000244
1296.982406	678.5999756
1297.522696	682.2000122
1298.06293	677.7999878
1298.603108	676.2000122
1299.143229	679.7999878
1299.683295	678.0
1300.223305	680.0
1300.763259	681.0
1301.303157	677.4000244
1301.842999	676.2000122
1302.382785	676.2000122
1302.922515	675.7999878
1303.462189	681.2000122
1304.001807	680.2000122
1304.541369	678.4000244
1305.080875	677.5999756
1305.620326	677.0
1306.15972	677.2000122
1306.699058	676.5999756
1307.238341	676.0
1307.777567	678.0
1308.316738	677.2000122
1308.855853	677.4000244
1309.394912	677.7999878
1309.933915	676.0
1310.472862	676.4000244
1311.011753	674.7999878
1311.550588	675.0
1312.089367	676.4000244
1312.62809	674.0
1313.166758	675.2000122
1313.70537	673.5999756
1314.243925	672.7999878
1314.782425	675.2000122
1315.320869	675.4000244
1315.859257	673.0
1316.397589	673.5999756
1316.935866	676.7999878
1317.474086	672.7999878
1318.012251	675.2000122
1318.55036	675.0
1319.088413	676.7999878
1319.62641	674.4000244
1320.164351	673.7999878
1320.702236	675.2000122
1321.240066	675.2000122
1321.777839	671.0
1322.315557	673.5999756
1322.853219	674.5999756
1323.390826	673.4000244
1323.928376	677.4000244
1324.465871	674.4000244
1325.003309	670.7999878
1325.540692	676.5999756
1326.07802	677.4000244
1326.615291	675.0
1327.152506	673.2000122
1327.689666	676.7999878
1328.22677	673.7999878
1328.763818	674.5999756
1329.300811	673.7999878
1329.837747	674.4000244
1330.374628	675.4000244
1330.911453	674.2000122
1331.448222	676.4000244
1331.984936	673.5999756
1332.521594	675.5999756
1333.058196	674.5999756
1333.594742	675.7999878
1334.131232	674.4000244
1334.667667	677.4000244
1335.204046	672.5999756
1335.740369	675.7999878
1336.276637	672.7999878
1336.812848	674.5999756
1337.349004	677.4000244
1337.885105	675.5999756
1338.421149	677.4000244
1338.957138	672.2000122
1339.493071	674.0
1340.028949	677.4000244
1340.56477	672.4000244
1341.100536	673.7999878
1341.636246	673.4000244
1342.171901	674.0
1342.7075	673.7999878
1343.243043	673.2000122
1343.77853	676.7999878
1344.313962	676.0
1344.849338	671.0
1345.384659	674.7999878
1345.919923	674.2000122
1346.455133	674.0
1346.990286	673.4000244
1347.525384	675.0
1348.060426	676.7999878
1348.595412	672.5999756
1349.130343	675.7999878
1349.665218	673.5999756
1350.200037	674.4000244
1350.734801	670.2000122
1351.269509	673.7999878
1351.804162	673.5999756
1352.338758	676.0
1352.8733	673.2000122
1353.407785	677.5999756
1353.942215	678.2000122
1354.476589	674.7999878
1355.010908	676.5999756
1355.545171	678.4000244
1356.079379	676.5999756
1356.61353	674.0
1357.147627	676.5999756
1357.681667	677.0
1358.215652	679.0
1358.749582	675.7999878
1359.283456	676.4000244
1359.817274	676.0
1360.351037	677.0
1360.884744	677.5999756
1361.418395	676.0
1361.951991	675.7999878
1362.485531	678.7999878
1363.019016	675.4000244
1363.552445	678.4000244
1364.085819	677.2000122
1364.619137	681.0
1365.1524	677.7999878
1365.685607	678.2000122
1366.218758	680.5999756
1366.751854	678.4000244
1367.284894	675.0
1367.817879	677.5999756
1368.350808	678.2000122
1368.883682	677.0
1369.4165	685.7999878
1369.949263	699.0
1370.48197	693.7999878
1371.014622	683.0
1371.547218	681.2000122
1372.079758	677.7999878
1372.612244	678.4000244
1373.144673	680.7999878
1373.677047	678.5999756
1374.209366	679.0
1374.741629	682.5999756
1375.273836	681.4000244
1375.805989	680.5999756
1376.338085	686.0
1376.870126	682.2000122
1377.402112	682.0
1377.934042	683.0
1378.465917	684.7999878
1378.997736	682.4000244
1379.5295	686.2000122
1380.061208	690.0
1380.592861	684.2000122
1381.124459	689.5999756
1381.656	688.5999756
1382.187487	695.2000122
1382.718918	694.2000122
1383.250294	699.4000244
1383.781614	701.2000122
1384.312879	707.2000122
1384.844088	718.2000122
1385.375242	735.5999756
1385.90634	769.7999878
1386.437383	847.5999756
1386.968371	1024.599976
1387.499303	1423.400024
1388.03018	1833.199951
1388.561001	1596.599976
1389.091767	1099.199951
1389.622478	851.4000244
1390.153133	771.4000244
1390.683733	730.2000122
1391.214277	710.2000122
1391.744766	703.4000244
1392.2752	696.2000122
1392.805578	693.7999878
1393.335901	691.7999878
1393.866168	690.0
1394.396381	685.5999756
1394.926537	689.2000122
1395.456639	686.5999756
1395.986685	681.5999756
1396.516675	685.7999878
1397.046611	683.5999756
1397.576491	683.0
1398.106315	682.2000122
1398.636084	687.0
1399.165798	682.5999756
1399.695457	679.0
1400.22506	684.2000122
1400.754608	681.4000244
1401.284101	680.7999878
1401.813538	678.4000244
1402.34292	682.0
1402.872247	683.2000122
1403.401518	682.0
1403.930734	681.5999756
1404.459895	684.5999756
1404.989	683.5999756
1405.51805	684.0
1406.047045	687.0
1406.575984	686.2000122
1407.104869	690.5999756
1407.633697	701.2000122
1408.162471	710.5999756
1408.691189	720.4000244
1409.219852	735.5999756
1409.74846	740.2000122
1410.277013	726.4000244
1410.80551	707.2000122
1411.333952	698.2000122
1411.862339	690.0
1412.39067	683.0
1412.918946	678.5999756
1413.447167	680.7999878
1413.975333	678.5999756
1414.503444	679.5999756
1415.031499	674.5999756
1415.559499	689.2000122
1416.087444	678.0
1416.615333	676.4000244
1417.143167	675.5999756
1417.670947	676.7999878
1418.19867	677.2000122
1418.726339	671.4000244
1419.253952	674.5999756
1419.781511	672.7999878
1420.309014	674.5999756
1420.836461	672.4000244
1421.363854	674.5999756
1421.891191	673.5999756
1422.418474	672.7999878
1422.945701	670.4000244
1423.472872	675.2000122
1423.999989	673.0
1424.52705	673.0
1425.054057	673.4000244
1425.581008	673.4000244
1426.107904	673.2000122
1426.634745	670.7999878
1427.16153	673.0
1427.688261	671.4000244
1428.214936	672.4000244
1428.741556	673.0
1429.268121	671.5999756
1429.794631	671.4000244
1430.321085	673.2000122
1430.847485	672.2000122
1431.373829	670.0
1431.900118	669.2000122
1432.426353	671.4000244
1432.952532	672.0
1433.478655	671.7999878
1434.004724	673.7999878
1434.530738	672.7999878
1435.056696	671.2000122
1435.5826	673.7999878
1436.108448	670.7999878
1436.634241	669.2000122
1437.159979	668.5999756
1437.685662	669.7999878
1438.21129	671.4000244
1438.736863	671.2000122
1439.262381	669.2000122
1439.787843	670.0
1440.313251	671.2000122
1440.838603	669.5999756
1441.3639	668.5999756
1441.889143	669.4000244
1442.41433	668.4000244
1442.939462	671.0
1443.464539	668.4000244
1443.989561	668.4000244
1444.514528	669.5999756
1445.03944	672.0
1445.564297	670.2000122
1446.089099	668.5999756
1446.613846	668.2000122
1447.138537	668.5999756
1447.663174	669.7999878
1448.187756	667.5999756
1448.712282	668.5999756
1449.236754	665.7999878
1449.761171	669.2000122
1450.285532	666.5999756
1450.809839	669.5999756
1451.33409	667.7999878
1451.858287	671.2000122
1452.382428	668.7999878
1452.906515	669.5999756
1453.430546	667.5999756
1453.954523	667.4000244
1454.478444	667.7999878
1455.002311	668.4000244
1455.526123	667.0
1456.049879	665.7999878
1456.573581	669.2000122
1457.097227	667.5999756
1457.620819	664.5999756
1458.144356	665.2000122
1458.667837	666.7999878
1459.191264	666.7999878
1459.714636	668.0
1460.237952	665.7999878
1460.761214	666.0
1461.284421	668.2000122
1461.807573	668.4000244
1462.33067	666.5999756
1462.853712	670.5999756
1463.376699	668.2000122
1463.899632	665.4000244
1464.422509	667.7999878
1464.945331	667.4000244
1465.468099	666.5999756
1465.990811	669.0
1466.513469	666.4000244
1467.036071	666.7999878
1467.558619	664.2000122
1468.081112	667.4000244
1468.60355	666.5999756
1469.125933	669.4000244
1469.648261	666.0
1470.170534	668.7999878
1470.692752	665.2000122
1471.214916	666.0
1471.737024	665.7999878
1472.259078	668.2000122
1472.781077	667.2000122
1473.303021	667.2000122
1473.82491	666.2000122
1474.346744	668.2000122
1474.868523	664.4000244
1475.390248	667.0
1475.911917	664.2000122
1476.433532	668.4000244
1476.955092	668.7999878
1477.476597	668.5999756
1477.998047	665.7999878
1478.519442	667.5999756
1479.040783	666.7999878
1479.562068	666.0
1480.083299	664.7999878
1480.604475	665.2000122
1481.125596	667.4000244
1481.646663	666.2000122
1482.167674	668.5999756
1482.688631	665.2000122
1483.209533	665.7999878
1483.73038	666.7999878
1484.251172	665.5999756
1484.771909	667.2000122
1485.292592	667.5999756
1485.81322	665.5999756
1486.333793	665.4000244
1486.854311	666.2000122
1487.374775	665.4000244
1487.895183	666.4000244
1488.415537	666.7999878
1488.935836	667.0
1489.456081	664.7999878
1489.97627	667.2000122
1490.496405	663.7999878
1491.016485	669.4000244
1491.536511	668.2000122
1492.056481	663.7999878
1492.576397	665.0
1493.096258	665.2000122
1493.616064	668.5999756
1494.135816	668.2000122
1494.655513	665.5999756
1495.175155	666.5999756
1495.694742	666.2000122
1496.214274	667.7999878
1496.733752	664.5999756
1497.253175	664.4000244
1497.772544	664.7999878
1498.291858	667.2000122
1498.811116	663.5999756
1499.330321	665.7999878
1499.84947	675.0
1500.368565	665.0
1500.887605	662.4000244
1501.406591	661.7999878
1501.925521	664.0
1502.444397	665.7999878
1502.963219	665.0
1503.481985	665.0
1504.000697	665.4000244
1504.519355	662.5999756
1505.037957	666.2000122
1505.556505	666.5999756
1506.074999	667.4000244
1506.593437	664.2000122
1507.111821	667.0
1507.63015	667.0
1508.148425	664.4000244
1508.666645	664.4000244
1509.18481	662.2000122
1509.702921	665.4000244
1510.220977	666.0
1510.738979	673.5999756
1511.256925	666.0
1511.774817	665.4000244
1512.292655	665.4000244
1512.810438	666.4000244
1513.328166	663.7999878
1513.84584	666.7999878
1514.363459	666.4000244
1514.881023	666.5999756
1515.398533	666.0
1515.915988	665.7999878
1516.433389	664.5999756
1516.950734	663.7999878
1517.468026	665.7999878
1517.985263	664.2000122
1518.502445	666.5999756
1519.019572	664.5999756
1519.536645	664.4000244
1520.053664	664.7999878
1520.570628	662.5999756
1521.087537	664.4000244
1521.604392	666.2000122
1522.121192	664.2000122
1522.637937	662.5999756
1523.154628	664.5999756
1523.671265	665.0
1524.187847	665.5999756
1524.704374	663.2000122
1525.220847	665.5999756
1525.737265	664.5999756
1526.253629	664.4000244
1526.769938	666.7999878
1527.286192	666.2000122
1527.802392	666.0
1528.318538	664.7999878
1528.834629	665.2000122
1529.350666	663.2000122
1529.866648	666.4000244
1530.382575	664.7999878
1530.898448	665.7999878
1531.414266	665.5999756
1531.93003	665.7999878
1532.44574	662.5999756
1532.961395	663.5999756
1533.476995	662.4000244
1533.992541	667.0
1534.508033	665.4000244
1535.02347	663.4000244
1535.538852	664.2000122
1536.05418	665.2000122
1536.569454	665.5999756
1537.084673	663.7999878
1537.599837	664.5999756
1538.114947	664.4000244
1538.630003	660.2000122
1539.145004	663.0
1539.659951	665.5999756
1540.174843	663.7999878
1540.689681	664.7999878
1541.204465	663.5999756
1541.719194	663.5999756
1542.233868	665.7999878
1542.748488	664.2000122
1543.263054	665.0
1543.777565	664.5999756
1544.292022	665.5999756
1544.806424	664.4000244
1545.320772	664.5999756
1545.835066	662.7999878
1546.349305	664.5999756
1546.863489	663.7999878
1547.37762	661.5999756
1547.891696	666.5999756
1548.405717	665.4000244
1548.919684	667.0
1549.433597	663.0
1549.947455	663.5999756
1550.461259	665.2000122
1550.975009	665.0
1551.488704	667.7999878
1552.002345	666.5999756
1552.515931	664.5999756
1553.029463	663.7999878
1553.542941	664.4000244
1554.056364	664.2000122
1554.569733	663.2000122
1555.083048	666.7999878
1555.596308	663.7999878
1556.109514	666.2000122
1556.622665	662.5999756
1557.135762	662.7999878
1557.648805	667.0
1558.161794	663.0
1558.674728	664.5999756
1559.187608	664.7999878
1559.700433	663.2000122
1560.213205	666.2000122
1560.725921	662.5999756
1561.238584	664.2000122
1561.751192	664.2000122
1562.263746	668.4000244
1562.776246	662.0
1563.288691	665.2000122
1563.801082	665.7999878
1564.313419	664.4000244
1564.825701	666.0
1565.337929	663.7999878
1565.850103	665.5999756
1566.362223	664.5999756
1566.874288	663.5999756
1567.386299	665.5999756
1567.898256	666.0
1568.410158	665.0
1568.922007	662.7999878
1569.4338	663.7999878
1569.94554	666.4000244
1570.457226	664.5999756
1570.968857	668.7999878
1571.480434	664.2000122
1571.991956	664.0
1572.503425	662.5999756
1573.014839	664.0
1573.526199	664.2000122
1574.037505	663.7999878
1574.548756	663.2000122
1575.059953	664.5999756
1575.571096	662.2000122
1576.082185	664.2000122
1576.59322	661.7999878
1577.1042	664.7999878
1577.615126	663.4000244
1578.125998	665.7999878
1578.636816	661.7999878
1579.14758	662.2000122
1579.658289	664.2000122
1580.168944	666.5999756
1580.679545	665.0
1581.190092	666.0
1581.700585	662.7999878
1582.211023	664.2000122
1582.721407	663.4000244
1583.231737	664.7999878
1583.742013	667.7999878
1584.252235	661.0
1584.762403	664.0
1585.272516	663.7999878
1585.782575	664.5999756
1586.292581	663.5999756
1586.802532	664.4000244
1587.312428	662.7999878
1587.822271	665.7999878
1588.33206	666.0
1588.841794	664.5999756
1589.351474	660.4000244
1589.8611	664.0
1590.370672	663.4000244
1590.88019	663.4000244
1591.389654	663.5999756
1591.899064	665.4000244
1592.408419	662.7999878
