1042.414189	720.0
1042.980685	722.4000244
1043.547124	719.7999878
1044.113505	718.5999756
1044.679828	725.2000122
1045.246093	723.0
1045.8123	718.5999756
1046.378449	713.5999756
1046.94454	714.5999756
1047.510573	717.2000122
1048.076548	725.2000122
1048.642465	717.5999756
1049.208325	714.5999756
1049.774126	715.2000122
1050.339869	712.0
1050.905555	712.7999878
1051.471183	715.2000122
1052.036752	712.0
1052.602264	710.0
1053.167718	715.7999878
1053.733114	713.2000122
1054.298452	711.0
1054.863733	714.4000244
1055.428955	710.4000244
1055.994119	710.4000244
1056.559226	714.4000244
1057.124275	712.2000122
1057.689266	716.2000122
1058.254199	711.5999756
1058.819074	712.2000122
1059.383891	709.5999756
1059.94865	711.4000244
1060.513352	710.5999756
1061.077996	708.2000122
1061.642582	706.5999756
1062.20711	707.2000122
1062.77158	710.4000244
1063.335992	706.7999878
1063.900347	712.2000122
1064.464643	712.4000244
1065.028882	711.2000122
1065.593063	709.7999878
1066.157187	708.4000244
1066.721252	710.7999878
1067.28526	705.5999756
1067.84921	709.2000122
1068.413102	704.4000244
1068.976936	704.0
1069.540713	707.5999756
1070.104431	710.2000122
1070.668092	706.4000244
1071.231696	711.4000244
1071.795241	706.4000244
1072.358729	710.4000244
1072.922159	708.4000244
1073.485531	706.4000244
1074.048845	710.7999878
1074.612102	711.7999878
1075.175301	708.5999756
1075.738442	708.4000244
1076.301525	707.0
1076.864551	707.5999756
1077.427519	707.2000122
1077.990429	710.4000244
1078.553281	711.4000244
1079.116076	706.2000122
1079.678813	707.4000244
1080.241492	711.5999756
1080.804114	707.0
1081.366678	707.7999878
1081.929184	705.5999756
1082.491633	714.5999756
1083.054024	712.5999756
1083.616357	716.4000244
1084.178632	708.0
1084.74085	705.4000244
1085.30301	710.2000122
1085.865113	709.0
1086.427158	711.5999756
1086.989145	711.2000122
1087.551074	707.5999756
1088.112946	707.5999756
1088.67476	710.4000244
1089.236517	714.5999756
1089.798216	706.0
1090.359857	700.5999756
1090.92144	708.5999756
1091.482966	712.5999756
1092.044435	709.7999878
1092.605845	709.7999878
1093.167199	707.2000122
1093.728494	709.7999878
1094.289732	711.0
1094.850912	705.4000244
1095.412035	725.7999878
1095.9731	709.5999756
1096.534107	708.4000244
1097.095057	712.2000122
1097.65595	706.2000122
1098.216784	707.7999878
1098.777561	707.4000244
1099.338281	704.0
1099.898943	708.0
1100.459547	710.4000244
1101.020094	710.2000122
1101.580584	713.2000122
1102.141015	707.7999878
1102.701389	708.7999878
1103.261706	708.2000122
1103.821965	708.5999756
1104.382167	705.2000122
1104.942311	709.5999756
1105.502397	708.7999878
1106.062426	710.4000244
1106.622398	711.0
1107.182312	702.0
1107.742168	707.0
1108.301967	707.4000244
1108.861708	707.7999878
1109.421392	705.2000122
1109.981019	709.2000122
1110.540587	709.5999756
1111.100099	712.0
1111.659553	710.0
1112.218949	708.2000122
1112.778288	709.7999878
1113.33757	707.0
1113.896794	707.2000122
1114.45596	709.4000244
1115.015069	706.2000122
1115.574121	707.4000244
1116.133115	709.5999756
1116.692052	707.2000122
1117.250931	708.2000122
1117.809753	706.2000122
1118.368517	710.0
1118.927224	707.5999756
1119.485873	708.5999756
1120.044465	706.4000244
1120.603	707.4000244
1121.161477	709.5999756
1121.719897	707.4000244
1122.278259	704.2000122
1122.836564	709.7999878
1123.394812	710.4000244
1123.953002	704.0
1124.511135	706.7999878
1125.06921	707.7999878
1125.627228	703.4000244
1126.185189	713.5999756
1126.743092	704.4000244
1127.300938	705.7999878
1127.858726	709.2000122
1128.416457	702.7999878
1128.974131	707.2000122
1129.531748	708.7999878
1130.089307	707.2000122
1130.646808	707.0
1131.204252	709.2000122
1131.761639	706.5999756
1132.318969	712.4000244
1132.876241	709.4000244
1133.433456	707.7999878
1133.990614	708.2000122
1134.547714	710.0
1135.104757	703.0
1135.661743	708.4000244
1136.218671	708.0
1136.775542	706.7999878
1137.332356	705.7999878
1137.889112	712.5999756
1138.445811	707.0
1139.002453	713.0
1139.559037	706.7999878
1140.115565	709.7999878
1140.672035	704.4000244
1141.228447	709.4000244
1141.784803	709.4000244
1142.341101	708.5999756
1142.897342	708.0
1143.453525	707.4000244
1144.009651	710.4000244
1144.565721	707.4000244
1145.121732	708.0
1145.677687	707.2000122
1146.233584	709.4000244
1146.789424	705.0
1147.345207	709.2000122
1147.900933	708.0
1148.456601	710.7999878
1149.012212	707.0
1149.567766	709.2000122
1150.123263	708.0
1150.678702	711.5999756
1151.234085	706.5999756
1151.78941	709.0
1152.344678	710.7999878
1152.899888	707.4000244
1153.455042	707.4000244
1154.010138	711.2000122
1154.565177	710.2000122
1155.120159	706.2000122
1155.675084	709.0
1156.229951	709.4000244
1156.784762	710.2000122
1157.339515	713.2000122
1157.894211	705.4000244
1158.44885	708.7999878
1159.003432	710.4000244
1159.557956	705.4000244
1160.112424	709.0
1160.666834	711.2000122
1161.221187	708.2000122
1161.775483	714.0
1162.329722	709.5999756
1162.883904	710.2000122
1163.438029	711.5999756
1163.992096	709.4000244
1164.546107	715.0
1165.10006	710.5999756
1165.653956	710.7999878
1166.207795	713.4000244
1166.761577	711.0
1167.315302	711.0
1167.86897	710.7999878
1168.422581	707.0
1168.976134	710.4000244
1169.529631	708.4000244
1170.08307	712.4000244
1170.636453	708.7999878
1171.189778	706.4000244
1171.743046	713.7999878
1172.296257	709.2000122
1172.849412	710.5999756
1173.402509	709.7999878
1173.955549	711.0
1174.508532	710.4000244
1175.061458	708.7999878
1175.614327	706.5999756
1176.167138	713.7999878
1176.719893	710.0
1177.272591	705.5999756
1177.825232	707.2000122
1178.377816	712.0
1178.930342	712.0
1179.482812	706.7999878
1180.035225	710.5999756
1180.587581	714.2000122
1181.139879	709.0
1181.692121	711.0
1182.244306	709.0
1182.796434	707.5999756
1183.348504	709.4000244
1183.900518	712.7999878
1184.452475	712.4000244
1185.004375	707.2000122
1185.556218	707.7999878
1186.108004	713.2000122
1186.659733	707.0
1187.211405	712.5999756
1187.76302	710.7999878
1188.314578	713.5999756
1188.866079	709.0
1189.417523	712.0
1189.96891	706.5999756
1190.520241	711.4000244
1191.071514	712.0
1191.622731	711.4000244
1192.17389	710.4000244
1192.724993	711.2000122
1193.276039	730.4000244
1193.827027	708.0
1194.377959	714.5999756
1194.928834	710.4000244
1195.479653	715.5999756
1196.030414	712.4000244
1196.581118	713.4000244
1197.131766	712.2000122
1197.682356	707.4000244
1198.23289	710.0
1198.783367	711.2000122
1199.333786	711.4000244
1199.88415	713.4000244
1200.434456	710.0
1200.984705	711.5999756
1201.534898	709.0
1202.085033	709.0
1202.635112	710.5999756
1203.185134	709.5999756
1203.735099	709.4000244
1204.285007	711.5999756
1204.834859	707.2000122
1205.384653	709.2000122
1205.934391	711.4000244
1206.484072	709.4000244
1207.033696	715.2000122
1207.583263	708.5999756
1208.132774	709.7999878
1208.682228	712.4000244
1209.231624	712.0
1209.780965	716.4000244
1210.330248	706.7999878
1210.879474	711.0
1211.428644	712.0
1211.977757	711.2000122
1212.526813	710.2000122
1213.075813	712.5999756
1213.624755	707.5999756
1214.173641	713.2000122
1214.72247	710.4000244
1215.271242	709.0
1215.819958	706.4000244
1216.368617	710.4000244
1216.917219	711.2000122
1217.465764	712.4000244
1218.014253	708.5999756
1218.562685	710.7999878
1219.11106	710.5999756
1219.659378	711.4000244
1220.20764	710.2000122
1220.755845	711.4000244
1221.303993	709.7999878
1221.852085	714.2000122
1222.400119	709.5999756
1222.948097	711.7999878
1223.496019	711.7999878
1224.043883	711.7999878
1224.591691	712.0
1225.139443	711.4000244
1225.687137	712.0
1226.234775	709.0
1226.782357	710.7999878
1227.329881	710.0
1227.877349	713.4000244
1228.42476	711.4000244
1228.972115	713.7999878
1229.519413	715.7999878
1230.066654	715.2000122
1230.613839	712.5999756
1231.160967	711.0
1231.708038	715.7999878
1232.255053	709.7999878
1232.802011	715.2000122
1233.348912	713.4000244
1233.895757	716.5999756
1234.442545	713.0
1234.989277	711.5999756
1235.535951	713.2000122
1236.08257	712.5999756
1236.629131	716.4000244
1237.175636	710.0
1237.722085	711.7999878
1238.268477	717.2000122
1238.814812	716.4000244
1239.361091	714.0
1239.907313	715.0
1240.453478	713.0
1240.999587	716.7999878
1241.54564	714.5999756
1242.091636	711.0
1242.637575	712.4000244
1243.183457	713.4000244
1243.729284	710.7999878
1244.275053	715.0
1244.820766	716.4000244
1245.366423	708.7999878
1245.912022	720.4000244
1246.457566	717.5999756
1247.003053	720.0
1247.548483	714.2000122
1248.093857	716.7999878
1248.639174	712.4000244
1249.184435	716.7999878
1249.729639	717.4000244
1250.274787	716.0
1250.819878	714.2000122
1251.364912	717.2000122
1251.909891	714.7999878
1252.454812	716.5999756
1252.999677	718.7999878
1253.544486	720.4000244
1254.089238	719.4000244
1254.633934	723.4000244
1255.178573	717.2000122
1255.723156	720.2000122
1256.267682	716.5999756
1256.812152	717.7999878
1257.356565	722.7999878
1257.900922	721.7999878
1258.445223	723.2000122
1258.989467	722.0
1259.533654	722.5999756
1260.077785	740.2000122
1260.62186	733.0
1261.165878	735.2000122
1261.70984	735.0
1262.253745	740.7999878
1262.797594	746.0
1263.341386	742.7999878
1263.885123	741.0
1264.428802	736.0
1264.972425	730.0
1265.515992	728.2000122
1266.059503	729.4000244
1266.602957	728.5999756
1267.146354	731.5999756
1267.689696	725.5999756
1268.23298	727.5999756
1268.776209	727.4000244
1269.319381	722.2000122
1269.862497	723.7999878
1270.405556	726.2000122
1270.948559	725.5999756
1271.491506	724.5999756
1272.034396	723.0
1272.57723	724.4000244
1273.120007	726.5999756
1273.662728	722.5999756
1274.205393	727.0
1274.748002	721.5999756
1275.290554	726.0
1275.83305	732.2000122
1276.375489	726.7999878
1276.917872	732.4000244
1277.460199	731.0
1278.00247	733.0
1278.544684	739.5999756
1279.086842	742.0
1279.628943	745.2000122
1280.170989	766.0
1280.712978	781.2000122
1281.25491	834.7999878
1281.796787	947.7999878
1282.338607	1134.400024
1282.880371	1236.599976
1283.422078	1152.0
1283.963729	980.0
1284.505324	871.0
1285.046863	805.0
1285.588345	772.0
1286.129772	760.0
1286.671142	747.5999756
1287.212455	739.0
1287.753713	737.2000122
1288.294914	733.2000122
1288.836059	731.2000122
1289.377147	730.2000122
1289.91818	726.7999878
1290.459156	723.7999878
1291.000076	726.5999756
1291.54094	728.2000122
1292.081747	724.5999756
1292.622499	723.2000122
1293.163194	729.0
1293.703833	721.4000244
1294.244415	730.4000244
1294.784942	721.4000244
1295.325412	724.0
1295.865826	721.5999756
1296.406184	719.7999878
1296.946486	721.0
1297.486731	719.4000244
1298.026921	720.5999756
1298.567054	721.2000122
1299.107131	720.0
1299.647152	721.0
1300.187116	720.2000122
1300.727025	719.5999756
1301.266877	723.4000244
1301.806673	725.7999878
1302.346413	726.0
1302.886097	717.5999756
1303.425725	723.0
1303.965297	722.0
1304.504812	723.0
1305.044272	721.4000244
1305.583675	725.4000244
1306.123022	721.4000244
1306.662313	721.0
1307.201548	722.0
1307.740727	718.0
1308.279849	719.4000244
1308.818916	726.0
1309.357926	722.7999878
1309.896881	722.5999756
1310.435779	720.0
1310.974621	717.7999878
1311.513407	716.4000244
1312.052137	719.4000244
1312.590811	716.4000244
1313.129429	721.7999878
1313.667991	719.2000122
1314.206497	719.7999878
1314.744946	715.7999878
1315.28334	712.7999878
1315.821678	718.2000122
1316.359959	721.5999756
1316.898184	712.7999878
1317.436354	713.2000122
1317.974467	719.4000244
1318.512525	715.2000122
1319.050526	718.2000122
1319.588471	720.2000122
1320.12636	711.4000244
1320.664194	716.4000244
1321.201971	715.7999878
1321.739692	719.0
1322.277357	712.5999756
1322.814967	718.2000122
1323.35252	717.0
1323.890017	720.5999756
1324.427458	712.4000244
1324.964843	717.5999756
1325.502173	721.0
1326.039446	723.5999756
1326.576663	720.2000122
1327.113824	718.7999878
1327.65093	716.0
1328.187979	718.0
1328.724972	717.0
1329.26191	716.0
1329.798791	718.2000122
1330.335617	719.5999756
1330.872386	715.7999878
1331.4091	721.7999878
1331.945758	714.2000122
1332.48236	716.0
1333.018905	717.0
1333.555395	716.5999756
1334.091829	720.0
1334.628207	716.7999878
1335.164529	718.7999878
1335.700796	720.2000122
1336.237006	720.0
1336.77316	715.5999756
1337.309259	715.0
1337.845301	719.4000244
1338.381288	720.0
1338.917219	714.2000122
1339.453094	716.4000244
1339.988913	717.0
1340.524676	720.2000122
1341.060383	719.2000122
1341.596034	720.7999878
1342.13163	716.5999756
1342.66717	714.0
1343.202653	716.7999878
1343.738081	717.4000244
1344.273453	721.7999878
1344.80877	716.4000244
1345.34403	719.2000122
1345.879235	719.0
1346.414383	714.2000122
1346.949476	719.5999756
1347.484513	717.5999756
1348.019494	719.0
1348.55442	718.0
1349.089289	716.7999878
1349.624103	718.5999756
1350.158861	716.2000122
1350.693563	717.4000244
1351.228209	715.2000122
1351.7628	715.4000244
1352.297334	719.4000244
1352.831813	718.5999756
1353.366236	711.4000244
1353.900604	723.0
1354.434915	716.5999756
1354.969171	717.7999878
1355.503371	715.7999878
1356.037515	716.4000244
1356.571604	715.7999878
1357.105636	721.2000122
1357.639613	719.7999878
1358.173535	719.0
1358.7074	724.2000122
1359.24121	718.5999756
1359.774964	718.2000122
1360.308662	719.4000244
1360.842304	719.7999878
1361.375891	723.2000122
1361.909422	714.2000122
1362.442897	719.2000122
1362.976317	722.2000122
1363.50968	722.4000244
1364.042989	727.7999878
1364.576241	724.4000244
1365.109438	718.4000244
1365.642579	725.2000122
1366.175664	725.4000244
1366.708693	723.7999878
1367.241667	722.7999878
1367.774585	718.4000244
1368.307448	720.2000122
1368.840255	728.0
1369.373006	734.5999756
1369.905701	740.2000122
1370.438341	734.5999756
1370.970925	731.2000122
1371.503454	727.5999756
1372.035926	725.4000244
1372.568344	722.5999756
1373.100705	723.0
1373.633011	726.2000122
1374.165261	721.4000244
1374.697456	725.4000244
1375.229595	727.7999878
1375.761678	729.5999756
1376.293705	727.0
1376.825677	728.2000122
1377.357594	727.4000244
1377.889455	725.0
1378.42126	728.4000244
1378.953009	730.7999878
1379.484703	726.4000244
1380.016342	729.2000122
1380.547924	733.7999878
1381.079452	736.5999756
1381.610923	741.4000244
1382.142339	744.0
1382.673699	745.0
1383.205004	749.4000244
1383.736253	757.0
1384.267447	768.4000244
1384.798585	786.4000244
1385.329668	828.4000244
1385.860695	907.2000122
1386.391666	1091.400024
1386.922582	1494.400024
1387.453442	1781.599976
1387.984247	1516.599976
1388.514996	1114.400024
1389.04569	915.4000244
1389.576328	820.7999878
1390.10691	792.0
1390.637437	768.5999756
1391.167909	754.2000122
1391.698325	746.0
1392.228685	744.2000122
1392.75899	738.7999878
1393.28924	740.0
1393.819434	739.2000122
1394.349572	731.4000244
1394.879655	733.4000244
1395.409683	725.7999878
1395.939655	729.5999756
1396.469571	728.4000244
1396.999432	728.0
1397.529237	727.4000244
1398.058987	728.2000122
1398.588682	726.0
1399.118321	731.4000244
1399.647905	728.0
1400.177433	728.0
1400.706906	726.2000122
1401.236323	727.7999878
1401.765685	726.5999756
1402.294991	728.0
1402.824242	728.2000122
1403.353437	726.7999878
1403.882577	728.4000244
1404.411662	729.4000244
1404.940691	730.0
1405.469665	731.4000244
1405.998583	734.0
1406.527446	735.4000244
1407.056253	745.5999756
1407.585005	749.7999878
1408.113702	760.0
1408.642343	763.2000122
1409.170929	760.7999878
1409.69946	765.2000122
1410.227935	744.4000244
1410.756354	747.7999878
1411.284719	736.0
1411.813028	730.4000244
1412.341281	726.0
1412.869479	723.5999756
1413.397622	724.2000122
1413.92571	727.0
1414.453742	721.7999878
1414.981718	724.2000122
1415.50964	728.0
1416.037506	722.0
1416.565316	720.7999878
1417.093072	717.0
1417.620772	721.0
1418.148416	712.7999878
1418.676005	721.0
1419.203539	714.4000244
1419.731018	723.5999756
1420.258441	723.0
1420.785809	716.4000244
1421.313122	722.2000122
1421.840379	720.0
1422.367582	721.7999878
1422.894728	716.7999878
1423.42182	719.7999878
1423.948856	723.5999756
1424.475837	722.5999756
1425.002762	715.0
1425.529633	717.0
1426.056448	714.2000122
1426.583207	716.0
1427.109912	718.0
1427.636561	720.2000122
1428.163155	718.4000244
1428.689694	717.0
1429.216177	717.5999756
1429.742605	715.5999756
1430.268978	717.2000122
1430.795296	715.0
1431.321558	716.4000244
1431.847765	715.2000122
1432.373917	716.7999878
1432.900014	717.0
1433.426056	713.7999878
1433.952042	717.2000122
1434.477973	715.4000244
1435.003849	713.4000244
1435.529669	715.2000122
1436.055435	712.4000244
1436.581145	719.5999756
1437.1068	717.5999756
1437.632399	715.5999756
1438.157944	717.0
1438.683433	716.5999756
1439.208868	718.4000244
1439.734247	714.2000122
1440.25957	718.2000122
1440.784839	716.0
1441.310053	718.0
1441.835211	718.0
1442.360314	717.7999878
1442.885362	713.4000244
1443.410355	716.0
1443.935292	716.5999756
1444.460175	713.0
1444.985002	714.5999756
1445.509774	719.2000122
1446.034491	716.2000122
1446.559153	714.7999878
1447.08376	718.4000244
1447.608312	711.7999878
1448.132808	716.7999878
1448.65725	713.7999878
1449.181636	716.5999756
1449.705967	716.0
1450.230243	714.0
1450.754464	720.2000122
1451.27863	718.4000244
1451.802741	718.2000122
1452.326797	715.0
1452.850797	713.2000122
1453.374743	721.4000244
1453.898633	717.7999878
1454.422468	713.2000122
1454.946249	714.0
1455.469974	718.4000244
1455.993644	717.7999878
1456.517259	717.2000122
1457.040819	714.4000244
1457.564324	713.5999756
1458.087773	713.4000244
1458.611168	712.0
1459.134508	713.2000122
1459.657793	713.5999756
1460.181022	709.2000122
1460.704197	714.4000244
1461.227316	714.7999878
1461.750381	714.4000244
1462.27339	716.4000244
1462.796345	727.4000244
1463.319244	738.0
1463.842089	718.2000122
1464.364878	712.7999878
1464.887613	711.4000244
1465.410292	712.7999878
1465.932916	713.4000244
1466.455486	713.4000244
1466.978	716.0
1467.50046	718.4000244
1468.022864	711.2000122
1468.545214	710.0
1469.067508	718.4000244
1469.589748	714.4000244
1470.111932	713.4000244
1470.634062	715.2000122
1471.156136	713.7999878
1471.678156	713.7999878
1472.20012	710.2000122
1472.72203	715.0
1473.243885	712.0
1473.765685	716.5999756
1474.28743	713.7999878
1474.80912	712.4000244
1475.330755	713.0
1475.852335	717.7999878
1476.37386	710.2000122
1476.89533	713.7999878
1477.416745	714.7999878
1477.938106	717.0
1478.459411	712.7999878
1478.980662	710.4000244
1479.501857	711.4000244
1480.022998	713.7999878
1480.544084	714.7999878
1481.065115	713.5999756
1481.586091	713.4000244
1482.107012	718.0
1482.627878	712.4000244
1483.14869	711.5999756
1483.669446	716.7999878
1484.190148	712.4000244
1484.710794	713.5999756
1485.231386	713.7999878
1485.751923	716.2000122
1486.272406	710.7999878
1486.792833	711.7999878
1487.313205	717.0
1487.833523	714.0
1488.353786	712.4000244
1488.873994	716.0
1489.394147	712.7999878
1489.914245	715.2000122
1490.434288	713.2000122
1490.954277	714.4000244
1491.474211	715.2000122
1491.99409	716.7999878
1493.553398	736.2000122
1494.073057	715.2000122
1494.592662	711.2000122
1495.112212	714.5999756
1495.631708	712.7999878
1496.151148	714.7999878
1496.670534	712.4000244
1497.189865	714.2000122
1497.709141	715.5999756
1498.228362	715.5999756
1498.747529	712.2000122
1499.266641	713.4000244
1499.785698	721.7999878
1500.3047	711.4000244
1500.823648	714.0
1501.34254	716.5999756
1501.861379	712.7999878
1502.380162	714.0
1502.89889	707.0
1503.417564	711.7999878
1503.936183	712.0
1504.454748	714.0
1504.973257	716.5999756
1505.491712	715.0
1506.010112	710.4000244
1506.528458	712.2000122
1507.046748	712.7999878
1507.564984	715.4000244
1508.083166	715.5999756
1508.601292	710.5999756
1509.119364	715.2000122
1509.637381	716.0
1510.155344	712.0
1510.673252	722.0
1511.191105	708.5999756
1511.708903	712.7999878
1512.226647	713.0
1512.744336	715.2000122
1513.261971	714.0
1513.77955	712.5999756
1514.297076	713.0
1514.814546	709.2000122
1515.331962	711.0
1515.849323	712.4000244
1516.366629	714.4000244
1516.883881	711.2000122
1517.401078	711.0
1517.918221	717.5999756
1518.435309	717.4000244
1518.952342	715.2000122
1519.469321	713.4000244
1519.986245	712.5999756
1520.503114	715.0
1521.019929	706.7999878
1521.536689	711.7999878
1522.053395	715.5999756
1522.570046	714.4000244
1523.086642	710.0
1523.603184	709.5999756
1524.119671	712.7999878
1524.636103	711.4000244
1525.152481	711.4000244
1525.668805	717.5999756
1526.185073	730.7999878
1526.701288	720.4000244
1527.217447	714.4000244
1527.733552	712.0
1528.249603	715.2000122
1528.765599	713.0
1529.28154	717.7999878
1529.797427	716.0
1530.313259	714.5999756
1530.829037	716.0
1531.34476	712.4000244
1531.860429	713.2000122
1532.376043	714.4000244
1532.891602	716.0
1533.407107	709.4000244
1533.922558	715.0
1534.437954	709.7999878
1534.953295	714.7999878
1535.468582	715.0
1535.983815	719.0
1536.498993	710.2000122
1537.014116	711.4000244
1537.529185	715.2000122
1538.044199	714.0
1538.559159	711.0
1539.074064	709.7999878
1539.588915	711.4000244
1540.103712	710.2000122
1540.618454	713.7999878
1541.133141	710.5999756
1541.647774	713.5999756
1542.162353	715.2000122
1542.676877	713.4000244
1543.191346	717.4000244
1543.705761	712.0
1544.220122	718.0
1544.734428	715.5999756
1545.24868	712.4000244
1545.762877	716.2000122
1546.27702	717.0
1546.791109	716.0
1547.305143	715.7999878
1547.819122	720.5999756
1548.333047	717.4000244
1548.846918	719.7999878
1549.360734	715.4000244
1549.874496	715.7999878
1550.388204	710.4000244
1550.901857	714.0
1551.415455	718.4000244
1551.929	715.7999878
1552.442489	717.0
1552.955925	710.2000122
1553.469306	715.4000244
1553.982632	712.5999756
1554.495905	715.5999756
1555.009123	712.7999878
1555.522286	719.2000122
1556.035395	710.5999756
1556.54845	714.0
1557.06145	719.2000122
1557.574396	714.7999878
1558.087288	716.5999756
1558.600125	718.0
1559.112908	710.7999878
1559.625637	719.4000244
1560.138311	714.0
1560.650931	713.2000122
1561.163497	716.4000244
1561.676008	710.7999878
1562.188465	717.0
1562.700867	715.0
1563.213216	719.2000122
1563.725509	715.5999756
1564.237749	720.0
1564.749934	716.4000244
1565.262065	719.0
1565.774142	712.2000122
1566.286164	718.0
1566.798132	719.7999878
1567.310046	712.7999878
1567.821906	717.0
1568.333711	717.4000244
1568.845462	720.2000122
1569.357158	711.4000244
1569.868801	719.2000122
1570.380389	721.7999878
1570.891922	715.0
1571.403402	716.2000122
1571.914827	719.2000122
1572.426198	715.2000122
1572.937515	717.2000122
1573.448777	712.5999756
1573.959985	719.2000122
1574.471139	713.2000122
1574.982239	720.2000122
1575.493285	717.0
1576.004276	719.5999756
1576.515213	715.7999878
1577.026096	721.2000122
1577.536924	715.5999756
1578.047698	717.2000122
1578.558419	714.5999756
1579.069084	718.4000244
1579.579696	714.2000122
1580.090254	719.4000244
1580.600757	714.4000244
1581.111206	715.5999756
1581.621601	717.2000122
1582.131941	714.7999878
1582.642228	719.0
1583.15246	719.4000244
1583.662638	716.7999878
1584.172762	715.0
1584.682832	715.4000244
1585.192847	713.2000122
1585.702809	716.2000122
1586.212716	713.7999878
1586.722569	716.7999878
1587.232368	716.4000244
1587.742113	719.2000122
1588.251803	715.2000122
1588.76144	713.2000122
1589.271022	713.7999878
1589.78055	712.5999756
1590.290024	717.7999878
1590.799444	713.5999756
1591.30881	717.5999756
1591.818121	717.4000244
1592.327379	720.0
