1042.980685	842.25
1043.547124	850.0
1044.113505	846.5
1044.679828	842.0
1045.246093	848.0
1045.8123	848.5
1046.378449	834.5
1046.94454	841.25
1047.510573	841.25
1048.076548	838.5
1048.642465	840.0
1049.208325	833.75
1049.774126	834.75
1050.339869	834.75
1050.905555	840.0
1051.471183	826.75
1052.036752	831.5
1052.602264	831.0
1053.167718	830.5
1053.733114	830.25
1054.298452	829.25
1054.863733	833.0
1055.428955	820.75
1055.994119	826.0
1056.559226	822.25
1057.124275	822.5
1057.689266	825.25
1058.254199	831.0
1058.819074	828.0
1059.383891	824.25
1059.94865	816.75
1060.513352	817.25
1061.077996	820.5
1061.642582	821.75
1062.20711	814.5
1062.77158	817.5
1063.335992	823.25
1063.900347	820.0
1064.464643	820.25
1065.028882	828.5
1065.593063	822.5
1066.157187	823.25
1066.721252	821.75
1067.28526	819.0
1067.84921	818.25
1068.413102	817.5
1068.976936	818.25
1069.540713	812.5
1070.104431	829.5
1070.668092	815.0
1071.231696	813.75
1071.795241	810.25
1072.358729	819.75
1072.922159	818.25
1073.485531	819.5
1074.048845	815.75
1074.612102	813.0
1075.175301	811.25
1075.738442	820.5
1076.301525	806.75
1076.864551	813.0
1077.427519	812.5
1077.990429	809.0
1078.553281	810.0
1079.116076	814.25
1079.678813	809.25
1080.241492	807.25
1080.804114	808.25
1081.366678	803.0
1081.929184	807.25
1082.491633	808.5
1083.054024	800.0
1083.616357	809.0
1084.178632	799.25
1084.74085	809.0
1085.30301	803.5
1085.865113	799.75
1086.427158	805.0
1086.989145	807.0
1087.551074	806.25
1088.112946	803.5
1088.67476	802.5
1089.236517	800.5
1089.798216	801.25
1090.359857	798.0
1090.92144	802.0
1091.482966	803.75
1092.044435	796.5
1092.605845	796.25
1093.167199	803.5
1093.728494	796.75
1094.289732	795.75
1094.850912	797.75
1095.412035	810.0
1095.9731	792.75
1096.534107	798.75
1097.095057	808.75
1097.65595	801.0
1098.216784	794.5
1098.777561	795.75
1099.338281	798.0
1099.898943	792.25
1100.459547	790.5
1101.020094	791.0
1101.580584	790.25
1102.141015	796.75
1102.701389	782.75
1103.261706	793.75
1103.821965	799.25
1104.382167	792.5
1104.942311	790.5
1105.502397	792.75
1106.062426	796.5
1106.622398	797.0
1107.182312	789.75
1107.742168	794.5
1108.301967	792.5
1108.861708	792.75
1109.421392	791.25
1109.981019	789.75
1110.540587	782.75
1111.100099	784.25
1111.659553	790.5
1112.218949	786.25
1112.778288	781.0
1113.33757	791.5
1113.896794	785.5
1114.45596	791.75
1115.015069	787.5
1115.574121	787.75
1116.133115	783.5
1116.692052	783.75
1117.250931	781.5
1117.809753	780.75
1118.368517	781.5
1118.927224	785.0
1119.485873	783.25
1120.044465	780.5
1120.603	785.5
1121.161477	786.25
1121.719897	786.75
1122.278259	785.5
1122.836564	781.0
1123.394812	779.25
1123.953002	778.5
1124.511135	779.25
1125.06921	778.25
1125.627228	780.5
1126.185189	785.75
1126.743092	782.5
1127.300938	775.5
1127.858726	785.25
1128.416457	779.0
1128.974131	774.25
1129.531748	772.75
1130.089307	780.5
1130.646808	781.75
1131.204252	777.5
1131.761639	774.0
1132.318969	778.5
1132.876241	782.0
1133.433456	778.5
1133.990614	777.0
1134.547714	775.0
1135.104757	778.0
1135.661743	779.25
1136.218671	773.5
1136.775542	775.75
1137.332356	787.75
1137.889112	785.25
1138.445811	774.5
1139.002453	772.5
1139.559037	774.75
1140.115565	777.25
1140.672035	780.0
1141.228447	778.75
1141.784803	775.5
1142.341101	766.75
1142.897342	781.0
1143.453525	774.5
1144.009651	774.75
1144.565721	783.25
1145.121732	778.25
1145.677687	773.25
1146.233584	776.5
1146.789424	783.5
1147.345207	772.75
1147.900933	775.5
1148.456601	779.0
1149.012212	775.75
1149.567766	778.0
1150.123263	771.75
1150.678702	775.25
1151.234085	773.75
1151.78941	774.0
1152.344678	780.75
1152.899888	772.25
1153.455042	780.25
1154.010138	775.75
1154.565177	780.5
1155.120159	774.5
1155.675084	779.0
1156.229951	778.5
1156.784762	774.5
1157.339515	768.5
1157.894211	777.25
1158.44885	772.0
1159.003432	769.75
1159.557956	768.75
1160.112424	771.75
1160.666834	767.25
1161.221187	773.75
1161.775483	772.5
1162.329722	778.5
1162.883904	763.5
1163.438029	773.75
1163.992096	774.25
1164.546107	771.25
1165.10006	772.0
1165.653956	775.5
1166.207795	777.5
1166.761577	771.0
1167.315302	776.5
1167.86897	772.75
1168.422581	775.75
1168.976134	772.5
1169.529631	770.5
1170.08307	777.5
1170.636453	770.25
1171.189778	773.25
1171.743046	771.25
1172.296257	769.75
1172.849412	772.0
1173.402509	774.0
1173.955549	772.75
1174.508532	766.75
1175.061458	770.0
1175.614327	773.25
1176.167138	766.0
1176.719893	774.5
1177.272591	775.0
1177.825232	771.75
1178.377816	770.5
1178.930342	770.75
1179.482812	765.75
1180.035225	773.5
1180.587581	761.0
1181.139879	770.25
1181.692121	772.0
1182.244306	765.25
1182.796434	770.5
1183.348504	773.0
1183.900518	765.75
1184.452475	774.5
1185.004375	767.5
1185.556218	770.75
1186.108004	769.25
1186.659733	766.25
1187.211405	766.0
1187.76302	770.25
1188.314578	768.25
1188.866079	770.0
1189.417523	767.5
1189.96891	770.75
1190.520241	768.75
1191.071514	768.25
1191.622731	766.25
1192.17389	767.0
1192.724993	765.5
1193.276039	785.75
1193.827027	768.25
1194.377959	767.25
1194.928834	767.5
1195.479653	766.5
1196.030414	770.75
1196.581118	770.0
1197.131766	766.0
1197.682356	758.5
1198.23289	769.0
1198.783367	774.25
1199.333786	767.75
1199.88415	767.75
1200.434456	769.75
1200.984705	767.5
1201.534898	764.25
1202.085033	769.75
1202.635112	770.5
1203.185134	769.75
1203.735099	764.25
1204.285007	765.0
1204.834859	759.0
1205.384653	774.5
1205.934391	763.75
1206.484072	771.5
1207.033696	765.5
1207.583263	768.0
1208.132774	767.0
1208.682228	767.0
1209.231624	765.75
1209.780965	771.25
1210.330248	772.75
1210.879474	771.5
1211.428644	769.0
1211.977757	772.5
1212.526813	769.0
1213.075813	762.75
1213.624755	773.75
1214.173641	767.75
1214.72247	770.0
1215.271242	772.75
1215.819958	760.5
1216.368617	763.5
1216.917219	764.75
1217.465764	768.0
1218.014253	765.5
1218.562685	764.0
1219.11106	764.25
1219.659378	760.25
1220.20764	769.5
1220.755845	768.5
1221.303993	764.25
1221.852085	767.5
1222.400119	768.25
1222.948097	765.75
1223.496019	767.75
1224.043883	764.25
1224.591691	766.0
1225.139443	763.25
1225.687137	763.75
1226.234775	765.75
1226.782357	772.5
1227.329881	765.5
1227.877349	761.75
1228.42476	763.75
1228.972115	764.5
1229.519413	769.0
1230.066654	770.25
1230.613839	766.0
1231.160967	768.25
1231.708038	771.25
1232.255053	770.5
1232.802011	769.25
1233.348912	769.0
1233.895757	769.75
1234.442545	765.25
1234.989277	761.5
1235.535951	766.75
1236.08257	767.5
1236.629131	769.0
1237.175636	769.75
1237.722085	763.0
1238.268477	763.25
1238.814812	767.25
1239.361091	771.75
1239.907313	768.25
1240.453478	765.0
1240.999587	769.0
1241.54564	766.75
1242.091636	765.75
1242.637575	764.0
1243.183457	769.5
1243.729284	765.75
1244.275053	760.25
1244.820766	761.0
1245.366423	760.5
1245.912022	771.25
1246.457566	766.5
1247.003053	758.0
1247.548483	769.0
1248.093857	763.0
1248.639174	768.25
1249.184435	767.5
1249.729639	766.25
1250.274787	760.75
1250.819878	768.25
1251.364912	762.5
1251.909891	764.5
1252.454812	763.5
1252.999677	760.25
1253.544486	764.25
1254.089238	767.25
1254.633934	763.5
1255.178573	762.25
1255.723156	760.5
1256.267682	764.25
1256.812152	763.0
1257.356565	765.75
1257.900922	762.0
1258.445223	768.0
1258.989467	764.25
1259.533654	763.0
1260.077785	780.25
1260.62186	764.5
1261.165878	762.25
1261.70984	767.0
1262.253745	762.0
1262.797594	761.25
1263.341386	764.5
1263.885123	770.5
1264.428802	756.75
1264.972425	770.5
1265.515992	774.25
1266.059503	768.0
1266.602957	763.75
1267.146354	769.5
1267.689696	772.75
1268.23298	769.75
1268.776209	765.25
1269.319381	764.25
1269.862497	763.0
1270.405556	765.5
1270.948559	760.0
1271.491506	769.25
1272.034396	763.75
1272.57723	773.0
1273.120007	763.75
1273.662728	768.0
1274.205393	768.25
1274.748002	763.75
1275.290554	763.5
1275.83305	766.0
1276.375489	761.5
1276.917872	768.75
1277.460199	761.75
1278.00247	767.0
1278.544684	759.75
1279.086842	766.5
1279.628943	759.5
1280.170989	760.75
1280.712978	765.75
1281.25491	772.25
1281.796787	769.5
1282.338607	765.0
1282.880371	763.0
1283.422078	759.25
1283.963729	768.75
1284.505324	760.25
1285.046863	770.0
1285.588345	798.25
1286.129772	844.25
1286.671142	802.5
1287.212455	778.75
1287.753713	762.0
1288.294914	766.75
1288.836059	769.75
1289.377147	765.0
1289.91818	763.0
1290.459156	763.25
1291.000076	759.75
1291.54094	766.25
1292.081747	762.25
1292.622499	758.5
1293.163194	762.75
1293.703833	764.75
1294.244415	769.25
1294.784942	767.25
1295.325412	770.5
1295.865826	764.5
1296.406184	761.25
1296.946486	763.5
1297.486731	766.75
1298.026921	764.0
1298.567054	769.25
1299.107131	763.75
1299.647152	766.0
1300.187116	764.75
1300.727025	761.25
1301.266877	757.25
1301.806673	769.75
1302.346413	768.25
1302.886097	769.0
1303.425725	767.25
1303.965297	765.0
1304.504812	763.25
1305.044272	765.25
1305.583675	764.0
1306.123022	762.75
1306.662313	760.75
1307.201548	763.25
1307.740727	766.25
1308.279849	762.75
1308.818916	769.0
1309.357926	758.25
1309.896881	769.0
1310.435779	768.0
1310.974621	763.25
1311.513407	762.5
1312.052137	762.25
1312.590811	768.25
1313.129429	761.25
1313.667991	763.0
1314.206497	769.75
1314.744946	764.0
1315.28334	760.5
1315.821678	762.75
1316.359959	774.25
1316.898184	764.5
1317.436354	765.0
1317.974467	763.25
1318.512525	770.5
1319.050526	767.75
1319.588471	763.25
1320.12636	763.75
1320.664194	769.0
1321.201971	758.0
1321.739692	763.5
1322.277357	760.0
1322.814967	756.75
1323.35252	766.0
1323.890017	775.5
1324.427458	767.25
1324.964843	769.0
1325.502173	765.25
1326.039446	770.75
1326.576663	760.25
1327.113824	766.75
1327.65093	758.5
1328.187979	763.25
1328.724972	764.25
1329.26191	768.0
1329.798791	761.0
1330.335617	766.25
1330.872386	764.0
1331.4091	765.5
1331.945758	768.25
1332.48236	764.75
1333.018905	760.75
1333.555395	761.25
1334.091829	763.5
1334.628207	767.25
1335.164529	760.25
1335.700796	764.5
1336.237006	760.75
1336.77316	764.5
1337.309259	760.75
1337.845301	760.5
1338.381288	759.0
1338.917219	759.75
1339.453094	763.25
1339.988913	760.25
1340.524676	759.25
1341.060383	765.25
1341.596034	767.75
1342.13163	761.5
1342.66717	765.0
1343.202653	767.25
1343.738081	764.25
1344.273453	762.75
1344.80877	766.0
1345.34403	764.25
1345.879235	769.25
1346.414383	767.25
1346.949476	768.5
1347.484513	764.5
1348.019494	763.25
1348.55442	759.25
1349.089289	761.0
1349.624103	767.0
1350.158861	769.25
1350.693563	763.25
1351.228209	758.0
1351.7628	763.75
1352.297334	763.5
1352.831813	760.5
1353.366236	760.0
1353.900604	762.0
1354.434915	758.0
1354.969171	762.25
1355.503371	765.0
1356.037515	765.5
1356.571604	761.5
1357.105636	765.5
1357.639613	764.5
1358.173535	763.25
1358.7074	763.75
1359.24121	758.0
1359.774964	764.75
1360.308662	762.75
1360.842304	759.75
1361.375891	766.25
1361.909422	765.25
1362.442897	764.25
1362.976317	755.0
1363.50968	763.0
1364.042989	768.5
1364.576241	762.0
1365.109438	759.75
1365.642579	762.0
1366.175664	764.25
1366.708693	764.25
1367.241667	763.5
1367.774585	764.0
1368.307448	760.5
1368.840255	764.0
1369.373006	757.0
1369.905701	757.5
1370.438341	765.25
1370.970925	759.75
1371.503454	761.25
1372.035926	760.75
1372.568344	764.0
1373.100705	767.75
1373.633011	763.5
1374.165261	760.25
1374.697456	770.0
1375.229595	766.25
1375.761678	764.25
1376.293705	756.5
1376.825677	760.75
1377.357594	761.25
1377.889455	768.25
1378.42126	767.25
1378.953009	767.75
1379.484703	770.5
1380.016342	763.75
1380.547924	761.5
1381.079452	768.75
1381.610923	766.0
1382.142339	762.75
1382.673699	765.75
1383.205004	763.0
1383.736253	759.25
1384.267447	764.5
1384.798585	759.5
1385.329668	760.5
1385.860695	760.25
1386.391666	760.75
1386.922582	765.75
1387.453442	757.5
1387.984247	765.25
1388.514996	784.0
1389.04569	872.0
1389.576328	854.75
1390.10691	768.75
1390.637437	768.25
1391.167909	762.0
1391.698325	765.0
1392.228685	760.25
1392.75899	758.0
1393.28924	759.0
1393.819434	757.25
1394.349572	755.5
1394.879655	769.5
1395.409683	757.25
1395.939655	764.25
1396.469571	759.75
1396.999432	758.25
1397.529237	754.25
1398.058987	763.0
1398.588682	762.0
1399.118321	763.0
1399.647905	762.5
1400.177433	764.25
1400.706906	759.75
1401.236323	763.25
1401.765685	757.0
1402.294991	765.0
1402.824242	764.25
1403.353437	769.0
1403.882577	760.75
1404.411662	763.0
1404.940691	761.0
1405.469665	761.25
1405.998583	761.25
1406.527446	758.0
1407.056253	762.75
1407.585005	771.5
1408.113702	766.0
1408.642343	756.75
1409.170929	760.25
1409.69946	763.75
1410.227935	773.5
1410.756354	774.0
1411.284719	765.75
1411.813028	759.25
1412.341281	756.75
1412.869479	758.0
1413.397622	753.75
1413.92571	761.75
1414.453742	762.25
1414.981718	759.5
1415.50964	777.75
1416.037506	762.25
1416.565316	757.75
1417.093072	762.5
1418.676005	768.75
1419.203539	762.25
1419.731018	767.5
1420.258441	755.75
1420.785809	757.25
1421.313122	763.0
1421.840379	766.5
1422.367582	764.5
1422.894728	759.75
1423.42182	764.5
1423.948856	762.75
1424.475837	766.5
1425.002762	761.0
1425.529633	757.0
1426.056448	764.5
1426.583207	760.75
1427.109912	759.75
1427.636561	759.5
1428.163155	766.75
1428.689694	764.5
1429.216177	762.0
1429.742605	759.75
1430.268978	760.0
1430.795296	761.0
1431.321558	763.25
1431.847765	759.75
1432.373917	758.75
1432.900014	763.25
1433.426056	755.75
1433.952042	762.0
1434.477973	761.75
1435.003849	763.0
1435.529669	755.75
1436.055435	760.0
1436.581145	764.0
1437.1068	767.0
1437.632399	758.0
1438.157944	761.25
1438.683433	763.5
1439.208868	760.0
1439.734247	764.25
1440.25957	759.25
1440.784839	769.75
1441.310053	763.75
1441.835211	761.0
1442.360314	762.75
1442.885362	757.25
1443.410355	759.75
1443.935292	764.5
1444.460175	765.75
1444.985002	761.25
1445.509774	763.25
1446.034491	756.5
1446.559153	768.0
1447.08376	765.0
1447.608312	770.5
1448.132808	756.75
1448.65725	760.75
1449.181636	757.75
1449.705967	766.5
1450.230243	763.5
1450.754464	760.25
1451.27863	763.25
1451.802741	761.75
1452.326797	764.5
1452.850797	759.75
1453.374743	761.0
1453.898633	765.75
1454.422468	765.25
1454.946249	764.75
1455.469974	764.75
1455.993644	759.25
1456.517259	756.25
1457.040819	760.5
1457.564324	758.0
1458.087773	757.5
1458.611168	762.75
1459.134508	759.75
1459.657793	760.25
1460.181022	762.75
1460.704197	758.75
1461.227316	755.0
1461.750381	762.75
1462.27339	766.75
1462.796345	772.25
1463.319244	775.5
1463.842089	762.5
1464.364878	765.0
1464.887613	763.0
1465.410292	756.75
1465.932916	762.75
1466.455486	759.5
1466.978	759.0
1467.50046	757.75
1468.022864	764.0
1468.545214	763.75
1469.067508	761.75
1469.589748	757.5
1470.111932	764.25
1470.634062	762.75
1471.156136	756.25
1471.678156	756.75
1472.20012	766.75
1472.72203	758.0
1473.243885	753.75
1473.765685	760.0
1474.28743	757.75
1474.80912	763.75
1475.330755	764.5
1475.852335	764.5
1476.37386	761.25
1476.89533	757.5
1477.416745	764.5
1477.938106	757.25
1478.459411	761.5
1478.980662	762.5
1479.501857	766.75
1480.022998	756.5
1480.544084	761.0
1481.065115	763.75
1481.586091	759.5
1482.107012	763.0
1482.627878	753.0
1483.14869	759.0
1483.669446	764.5
1484.190148	754.25
1484.710794	766.5
1485.231386	761.75
1485.751923	757.25
1486.272406	766.5
1486.792833	755.25
1487.313205	762.75
1487.833523	762.25
1488.353786	755.25
1488.873994	762.5
1489.394147	762.5
1489.914245	761.75
1490.434288	760.25
1490.954277	759.75
1491.474211	760.75
1491.99409	758.75
1492.513914	763.25
1493.033683	758.25
1493.553398	757.5
1494.073057	757.0
1494.592662	761.75
1495.112212	757.75
1495.631708	758.75
1496.151148	756.5
1496.670534	755.5
1497.189865	767.75
1497.709141	759.25
1498.228362	761.25
1498.747529	760.5
1499.266641	762.5
1499.785698	767.0
1500.3047	760.5
1500.823648	758.75
1501.34254	761.5
1501.861379	761.0
1502.380162	758.75
1502.89889	760.75
1503.417564	760.0
1503.936183	760.75
1504.454748	761.25
1504.973257	765.5
1505.491712	763.75
1506.010112	761.0
1506.528458	755.0
1507.046748	756.0
1507.564984	764.75
1508.083166	752.5
1508.601292	759.0
1509.119364	757.75
1509.637381	757.75
1510.155344	758.0
1510.673252	772.0
1511.191105	753.5
1511.708903	760.75
1512.226647	756.5
1512.744336	756.75
1513.261971	758.25
1513.77955	765.5
1514.297076	764.5
1514.814546	765.75
1515.331962	764.0
1515.849323	756.25
1516.366629	761.5
1516.883881	766.75
1517.401078	761.0
1517.918221	763.75
1518.435309	767.0
1518.952342	756.75
1519.469321	765.75
1519.986245	757.75
1520.503114	763.5
1521.019929	764.5
1521.536689	755.25
1522.053395	758.75
1522.570046	759.5
1523.086642	763.0
1523.603184	757.0
1524.119671	762.0
1524.636103	762.25
1525.152481	760.75
1525.668805	770.25
1526.185073	779.0
1526.701288	768.75
1527.217447	764.25
1527.733552	758.25
1528.249603	767.25
1528.765599	763.25
1529.28154	754.0
1529.797427	758.0
1530.313259	757.5
1530.829037	760.5
1531.34476	749.0
1531.860429	756.75
1532.376043	755.25
1532.891602	759.25
1533.407107	760.75
1533.922558	762.75
1534.437954	763.0
1534.953295	764.5
1535.468582	759.75
1535.983815	762.5
1536.498993	759.0
1537.014116	758.0
1537.529185	772.75
1538.044199	757.5
1538.559159	757.5
1539.074064	760.5
1539.588915	761.0
1540.103712	762.0
1540.618454	766.0
1541.133141	760.0
1541.647774	758.0
1542.162353	760.5
1542.676877	758.5
1543.191346	758.5
1543.705761	763.25
1544.220122	761.75
1544.734428	763.5
1545.24868	761.25
1545.762877	766.0
1546.27702	763.75
1546.791109	759.5
1547.305143	765.0
1547.819122	762.25
1548.333047	758.0
1548.846918	764.0
1549.360734	760.75
1549.874496	763.0
1550.388204	760.75
1550.901857	762.0
1551.415455	754.75
1551.929	759.25
1552.442489	762.5
1552.955925	762.0
1553.469306	760.75
1553.982632	761.25
1554.495905	763.75
1555.009123	756.75
1555.522286	760.5
1556.035395	757.0
1556.54845	760.25
1557.06145	762.75
1557.574396	762.5
1558.087288	754.75
1558.600125	759.5
1559.112908	768.0
1559.625637	757.5
1560.138311	768.0
1560.650931	760.75
1561.163497	762.0
1561.676008	760.75
1562.188465	764.25
1562.700867	760.0
1563.213216	758.25
1563.725509	755.75
1564.237749	761.75
1564.749934	763.25
1565.262065	765.0
1565.774142	765.75
1566.286164	760.25
1566.798132	766.75
1567.310046	756.25
1567.821906	770.0
1568.333711	759.25
1568.845462	759.5
1569.357158	762.25
1569.868801	767.75
1570.380389	765.25
1570.891922	762.75
1571.403402	767.0
1571.914827	757.75
1572.426198	761.0
1572.937515	763.25
1573.448777	764.5
1573.959985	762.5
1574.471139	759.25
1574.982239	758.25
1575.493285	758.25
1576.004276	760.75
1576.515213	760.75
1577.026096	762.0
1577.536924	756.25
1578.047698	762.5
1578.558419	765.75
1579.069084	762.0
1579.579696	761.0
1580.090254	760.5
1580.600757	767.75
1581.111206	758.25
1581.621601	768.5
1582.131941	770.75
1582.642228	758.5
1583.15246	763.25
1583.662638	760.5
1584.172762	758.5
1584.682832	767.0
1585.192847	761.0
1585.702809	761.0
1586.212716	758.5
1586.722569	761.75
1587.232368	759.0
1587.742113	759.0
1588.251803	758.0
1588.76144	758.25
1589.271022	760.25
1589.78055	764.5
1590.290024	761.25
1590.799444	768.0
1591.30881	760.75
1591.818121	762.5
1592.327379	757.5
