1042.414189	714.25
1042.980685	710.5
1043.547124	713.5
1044.113505	711.25
1044.679828	705.5
1045.246093	708.75
1045.8123	703.25
1046.378449	709.75
1046.94454	703.0
1047.510573	698.25
1048.076548	704.0
1048.642465	700.25
1049.208325	701.25
1049.774126	702.5
1050.339869	702.75
1050.905555	697.75
1051.471183	697.5
1052.036752	698.0
1052.602264	698.25
1053.167718	695.5
1053.733114	701.5
1054.298452	700.25
1054.863733	700.25
1055.428955	700.25
1055.994119	698.5
1056.559226	696.75
1057.124275	698.75
1057.689266	698.75
1058.254199	694.0
1058.819074	695.0
1059.383891	693.25
1059.94865	694.75
1060.513352	693.25
1061.077996	697.25
1061.642582	692.75
1062.20711	697.0
1062.77158	695.5
1063.335992	694.0
1063.900347	689.75
1064.464643	693.25
1065.028882	691.75
1065.593063	689.5
1066.157187	693.0
1066.721252	695.0
1067.28526	688.75
1067.84921	689.5
1068.413102	691.0
1068.976936	691.0
1069.540713	693.0
1070.104431	701.5
1070.668092	694.0
1071.231696	691.25
1071.795241	691.25
1072.358729	689.0
1072.922159	692.75
1073.485531	692.0
1074.048845	694.0
1074.612102	692.25
1075.175301	695.5
1075.738442	687.25
1076.301525	691.25
1076.864551	689.75
1077.427519	690.25
1077.990429	689.75
1078.553281	694.0
1079.116076	685.75
1079.678813	690.5
1080.241492	693.75
1080.804114	693.75
1081.366678	689.25
1081.929184	691.0
1082.491633	693.25
1083.054024	691.25
1083.616357	692.0
1084.178632	691.5
1084.74085	693.75
1085.30301	693.25
1085.865113	690.75
1086.427158	692.25
1086.989145	691.5
1087.551074	691.0
1088.112946	690.5
1088.67476	691.5
1089.236517	691.0
1089.798216	688.75
1090.359857	688.25
1090.92144	687.75
1091.482966	692.75
1092.044435	693.75
1092.605845	694.75
1093.167199	688.5
1093.728494	690.75
1094.289732	690.5
1094.850912	692.0
1095.412035	712.0
1095.9731	690.0
1096.534107	689.5
1097.095057	698.0
1097.65595	688.5
1098.216784	691.5
1098.777561	687.0
1099.338281	688.75
1099.898943	690.25
1100.459547	684.25
1101.020094	687.25
1101.580584	687.5
1102.141015	685.25
1102.701389	689.75
1103.261706	684.0
1103.821965	690.75
1104.382167	690.0
1104.942311	683.75
1105.502397	685.75
1106.062426	685.5
1106.622398	684.0
1107.182312	687.0
1107.742168	687.0
1108.301967	686.5
1108.861708	686.25
1109.421392	687.5
1109.981019	683.0
1110.540587	687.25
1111.100099	686.5
1111.659553	685.25
1112.218949	688.0
1112.778288	681.75
1113.33757	687.0
1113.896794	682.5
1114.45596	681.25
1115.015069	684.0
1115.574121	682.25
1116.133115	685.25
1116.692052	684.0
1117.250931	689.75
1117.809753	682.25
1118.368517	684.0
1118.927224	679.75
1119.485873	681.75
1120.044465	686.5
1120.603	683.25
1121.161477	679.5
1121.719897	686.25
1122.278259	680.75
1122.836564	684.5
1123.394812	684.75
1123.953002	682.25
1124.511135	683.25
1125.06921	679.0
1125.627228	682.0
1126.185189	683.0
1126.743092	683.25
1127.300938	680.5
1127.858726	679.75
1128.416457	684.5
1128.974131	683.25
1129.531748	683.25
1130.089307	680.25
1130.646808	682.75
1131.204252	685.25
1131.761639	679.25
1132.318969	682.0
1132.876241	679.0
1133.433456	682.0
1133.990614	683.0
1134.547714	681.25
1135.104757	681.25
1135.661743	684.5
1136.218671	686.5
1136.775542	681.25
1137.332356	682.0
1137.889112	682.5
1138.445811	681.5
1139.002453	681.25
1139.559037	683.25
1140.115565	681.75
1140.672035	681.5
1141.228447	682.75
1141.784803	682.75
1142.341101	685.5
1142.897342	685.0
1143.453525	680.25
1144.009651	680.5
1144.565721	685.25
1145.121732	682.0
1145.677687	681.5
1146.233584	683.25
1146.789424	681.75
1147.345207	681.75
1147.900933	679.75
1148.456601	683.5
1149.012212	675.75
1149.567766	680.25
1150.123263	679.75
1150.678702	680.75
1151.234085	678.0
1151.78941	681.25
1152.344678	681.5
1152.899888	679.75
1153.455042	685.25
1154.010138	679.25
1154.565177	684.5
1155.120159	682.25
1155.675084	680.75
1156.229951	680.75
1156.784762	682.75
1157.339515	683.0
1157.894211	682.0
1158.44885	680.75
1159.003432	681.5
1159.557956	678.75
1160.112424	681.75
1160.666834	682.5
1161.221187	683.0
1161.775483	678.0
1162.329722	684.25
1162.883904	679.0
1163.438029	682.25
1163.992096	683.0
1164.546107	682.0
1165.10006	682.5
1165.653956	679.5
1166.207795	680.5
1166.761577	680.0
1167.315302	682.0
1167.86897	680.75
1168.422581	680.25
1168.976134	678.25
1169.529631	680.25
1170.08307	679.0
1170.636453	677.0
1171.189778	677.5
1171.743046	676.5
1172.296257	680.25
1172.849412	682.25
1173.402509	680.0
1173.955549	679.75
1174.508532	676.0
1175.061458	676.5
1175.614327	680.75
1176.167138	681.25
1176.719893	676.5
1177.272591	681.0
1177.825232	681.0
1178.377816	682.5
1178.930342	680.75
1179.482812	679.5
1180.035225	679.25
1180.587581	679.25
1181.139879	678.5
1181.692121	679.25
1182.244306	679.5
1182.796434	680.75
1183.348504	680.25
1183.900518	679.75
1184.452475	681.75
1185.004375	680.25
1185.556218	682.5
1186.108004	676.0
1186.659733	676.0
1187.211405	678.5
1187.76302	678.0
1188.314578	680.75
1188.866079	679.25
1189.417523	678.5
1189.96891	680.0
1190.520241	678.0
1191.071514	679.25
1191.622731	678.75
1192.17389	678.5
1192.724993	680.75
1193.276039	697.75
1193.827027	679.25
1194.377959	681.25
1194.928834	680.0
1195.479653	679.25
1196.030414	678.5
1196.581118	678.75
1197.131766	679.0
1197.682356	679.25
1198.23289	675.75
1198.783367	680.5
1199.333786	677.5
1199.88415	679.25
1200.434456	679.0
1200.984705	678.5
1201.534898	678.75
1202.085033	680.0
1202.635112	679.75
1203.185134	679.75
1203.735099	679.75
1204.285007	679.5
1204.834859	680.75
1205.384653	679.75
1205.934391	679.25
1206.484072	675.5
1207.033696	682.0
1207.583263	676.0
1208.132774	679.75
1208.682228	681.5
1209.231624	677.75
1209.780965	684.0
1210.330248	678.0
1210.879474	681.0
1211.428644	681.0
1211.977757	677.75
1212.526813	681.75
1213.075813	682.25
1213.624755	678.0
1214.173641	677.75
1214.72247	680.25
1215.271242	681.75
1215.819958	677.25
1216.368617	680.25
1216.917219	677.25
1217.465764	678.5
1218.014253	677.25
1218.562685	681.0
1219.11106	681.5
1219.659378	682.0
1220.20764	680.25
1220.755845	678.0
1221.303993	681.5
1221.852085	680.75
1222.400119	680.25
1222.948097	677.75
1223.496019	680.25
1224.043883	680.75
1224.591691	678.0
1225.139443	678.25
1225.687137	679.5
1226.234775	680.0
1226.782357	677.5
1227.329881	679.0
1227.877349	682.75
1228.42476	682.5
1228.972115	682.25
1229.519413	677.5
1230.066654	677.0
1230.613839	677.5
1231.160967	681.0
1231.708038	681.0
1232.255053	677.25
1232.802011	682.75
1233.348912	680.0
1233.895757	679.0
1234.442545	681.25
1234.989277	681.75
1235.535951	676.0
1236.08257	679.25
1236.629131	683.75
1237.175636	679.0
1237.722085	679.75
1238.268477	680.5
1238.814812	679.75
1239.361091	684.25
1239.907313	675.0
1240.453478	683.25
1240.999587	677.25
1241.54564	679.0
1242.091636	678.0
1242.637575	678.75
1243.183457	679.75
1243.729284	679.0
1244.275053	680.5
1244.820766	683.75
1245.366423	680.5
1245.912022	679.25
1246.457566	678.25
1247.003053	675.5
1247.548483	680.5
1248.093857	681.0
1248.639174	679.0
1249.184435	679.25
1249.729639	677.25
1250.274787	683.0
1250.819878	681.5
1251.364912	679.0
1251.909891	682.75
1252.454812	677.75
1252.999677	679.0
1253.544486	681.75
1254.089238	680.75
1254.633934	680.25
1255.178573	678.75
1255.723156	681.5
1256.267682	681.0
1256.812152	680.5
1257.356565	679.5
1257.900922	680.0
1258.445223	682.25
1258.989467	681.0
1259.533654	683.5
1260.077785	694.5
1260.62186	681.5
1261.165878	679.25
1261.70984	683.0
1262.253745	680.75
1262.797594	682.25
1263.341386	682.25
1263.885123	683.75
1264.428802	685.5
1264.972425	704.75
1265.515992	728.75
1266.059503	711.0
1266.602957	693.25
1267.146354	683.0
1267.689696	686.0
1268.23298	683.75
1268.776209	678.5
1269.319381	681.0
1269.862497	684.5
1270.405556	677.0
1270.948559	678.75
1271.491506	678.5
1272.034396	680.0
1272.57723	682.0
1273.120007	682.0
1273.662728	678.75
1274.205393	683.75
1274.748002	679.75
1275.290554	678.75
1275.83305	682.25
1276.375489	682.0
1276.917872	676.5
1277.460199	679.75
1278.00247	681.75
1278.544684	684.5
1279.086842	683.0
1279.628943	680.0
1280.170989	679.5
1280.712978	684.0
1281.25491	679.25
1281.796787	681.75
1282.338607	681.75
1282.880371	685.75
1283.422078	688.5
1283.963729	698.25
1284.505324	722.5
1285.046863	811.0
1285.588345	1132.0
1286.129772	1198.5
1286.671142	821.0
1287.212455	714.5
1287.753713	695.5
1288.294914	692.0
1288.836059	685.5
1289.377147	684.25
1289.91818	679.5
1290.459156	680.0
1291.000076	682.5
1291.54094	678.5
1292.081747	683.5
1292.622499	678.75
1293.163194	680.0
1293.703833	677.5
1294.244415	682.75
1294.784942	679.5
1295.325412	675.75
1295.865826	676.0
1296.406184	681.0
1296.946486	682.75
1297.486731	682.5
1298.026921	678.25
1298.567054	680.25
1299.107131	680.5
1299.647152	681.25
1300.187116	681.5
1300.727025	680.25
1301.266877	678.0
1301.806673	680.5
1302.346413	682.0
1302.886097	679.75
1303.425725	679.25
1303.965297	678.25
1304.504812	677.5
1305.044272	675.5
1305.583675	682.5
1306.123022	682.5
1306.662313	678.75
1307.201548	682.25
1307.740727	684.75
1308.279849	678.5
1308.818916	680.25
1309.357926	677.25
1309.896881	678.25
1310.435779	679.5
1310.974621	675.0
1311.513407	682.0
1312.052137	676.75
1312.590811	679.75
1313.129429	679.75
1313.667991	682.25
1314.206497	678.0
1314.744946	679.5
1315.28334	679.0
1315.821678	678.75
1316.359959	680.0
1316.898184	679.0
1317.436354	679.0
1317.974467	677.25
1318.512525	679.75
1319.050526	677.5
1319.588471	680.0
1320.12636	679.25
1320.664194	678.25
1321.201971	679.25
1321.739692	679.25
1322.277357	679.75
1322.814967	678.25
1323.35252	679.25
1323.890017	685.75
1324.427458	681.5
1324.964843	679.75
1325.502173	679.25
1326.039446	682.5
1326.576663	677.5
1327.113824	679.5
1327.65093	682.25
1328.187979	674.5
1328.724972	680.25
1329.26191	676.0
1329.798791	680.0
1330.335617	680.75
1330.872386	678.0
1331.4091	692.25
1333.018905	677.5
1333.555395	677.75
1334.091829	676.5
1334.628207	679.75
1335.164529	680.5
1335.700796	683.25
1336.237006	676.0
1336.77316	679.75
1337.309259	679.25
1337.845301	680.5
1338.381288	674.75
1338.917219	676.5
1339.453094	678.25
1339.988913	677.0
1340.524676	678.0
1341.060383	677.75
1341.596034	676.0
1342.13163	677.5
1342.66717	679.0
1343.202653	678.25
1343.738081	675.75
1344.273453	680.75
1344.80877	676.75
1345.34403	679.5
1345.879235	681.0
1346.414383	676.75
1346.949476	679.25
1347.484513	677.0
1348.019494	681.25
1348.55442	681.25
1349.089289	680.25
1349.624103	678.75
1350.158861	676.0
1350.693563	681.75
1351.228209	677.25
1351.7628	679.0
1352.297334	679.5
1352.831813	681.25
1353.366236	678.0
1353.900604	681.75
1354.434915	675.5
1354.969171	678.0
1355.503371	680.75
1356.037515	677.25
1356.571604	680.5
1357.105636	680.5
1357.639613	680.25
1358.173535	677.25
1358.7074	679.25
1359.24121	678.75
1359.774964	679.5
1360.308662	680.75
1360.842304	680.5
1361.375891	677.5
1361.909422	675.25
1362.442897	677.25
1362.976317	680.25
1363.50968	678.25
1364.042989	679.0
1364.576241	680.5
1365.109438	683.25
1365.642579	678.25
1366.175664	680.5
1366.708693	683.25
1367.241667	681.25
1367.774585	679.25
1368.307448	681.75
1368.840255	680.25
1369.373006	679.5
1369.905701	684.25
1370.438341	689.0
1370.970925	693.25
1371.503454	680.5
1372.035926	683.25
1372.568344	681.0
1373.100705	676.0
1373.633011	679.75
1374.165261	678.5
1374.697456	678.5
1375.229595	679.0
1375.761678	678.5
1376.293705	677.75
1376.825677	682.0
1377.357594	678.75
1377.889455	679.75
1378.42126	680.0
1378.953009	676.25
1379.484703	680.0
1380.016342	682.25
1380.547924	680.25
1381.079452	678.25
1381.610923	682.75
1382.142339	682.0
1382.673699	679.5
1383.205004	679.0
1383.736253	681.0
1384.267447	682.0
1384.798585	685.5
1385.329668	684.25
1385.860695	686.5
1386.391666	691.25
1386.922582	694.5
1387.453442	707.75
1387.984247	756.75
1388.514996	1085.0
1389.04569	1708.0
1389.576328	1131.25
1390.10691	758.0
1390.637437	706.75
1391.167909	693.25
1391.698325	687.0
1392.228685	684.75
1392.75899	681.5
1393.28924	680.0
1393.819434	683.75
1394.349572	679.75
1394.879655	683.0
1395.409683	679.0
1395.939655	679.0
1396.469571	678.25
1396.999432	680.75
1397.529237	678.75
1398.058987	678.25
1398.588682	679.5
1399.118321	678.75
1399.647905	678.25
1400.177433	678.75
1400.706906	680.25
1401.236323	678.75
1401.765685	682.0
1402.294991	677.75
1402.824242	678.75
1403.353437	678.5
1403.882577	677.0
1404.411662	675.0
1404.940691	679.25
1405.469665	682.75
1405.998583	680.25
1406.527446	673.5
1407.056253	679.0
1407.585005	681.25
1408.113702	686.5
1408.642343	683.75
1409.170929	691.5
1409.69946	708.75
1410.227935	760.25
1410.756354	739.5
1411.284719	698.75
1411.813028	686.0
1412.341281	681.5
1412.869479	682.25
1413.397622	679.5
1413.92571	679.25
1414.453742	681.25
1414.981718	676.75
1415.50964	695.0
1416.037506	676.0
1416.565316	677.5
1417.093072	676.0
1417.620772	677.0
1418.148416	675.5
1418.676005	680.0
1419.203539	680.25
1419.731018	675.0
1420.258441	677.5
1420.785809	679.25
1421.313122	675.5
1421.840379	678.0
1422.367582	680.5
1422.894728	678.75
1423.42182	682.25
1423.948856	679.5
1424.475837	679.75
1425.002762	679.75
1425.529633	679.25
1426.056448	680.0
1426.583207	684.25
1427.109912	681.25
1427.636561	678.0
1428.163155	683.0
1428.689694	680.25
1429.216177	679.0
1429.742605	675.5
1430.268978	679.75
1430.795296	675.75
1431.321558	678.75
1431.847765	677.0
1432.373917	676.25
1432.900014	676.0
1433.426056	677.25
1433.952042	675.75
1434.477973	681.75
1435.003849	679.0
1435.529669	678.25
1436.055435	678.25
1436.581145	676.25
1437.1068	677.75
1437.632399	676.25
1438.157944	675.5
1438.683433	680.5
1439.208868	678.0
1439.734247	678.25
1440.25957	675.75
1440.784839	677.0
1441.310053	678.75
1441.835211	676.25
1442.360314	678.25
1442.885362	677.75
1443.410355	675.25
1443.935292	674.0
1444.460175	674.75
1444.985002	675.5
1445.509774	677.5
1446.034491	675.0
1446.559153	678.5
1447.08376	678.25
1447.608312	675.0
1448.132808	674.25
1448.65725	678.75
1449.181636	678.0
1449.705967	676.25
1450.230243	678.75
1450.754464	675.75
1451.27863	678.5
1451.802741	673.75
1452.326797	675.75
1452.850797	677.75
1453.374743	679.0
1453.898633	678.0
1454.422468	678.0
1454.946249	674.25
1455.469974	677.75
1455.993644	676.75
1456.517259	675.75
1457.040819	675.25
1457.564324	679.0
1458.087773	676.25
1458.611168	676.0
1459.134508	676.5
1459.657793	674.25
1460.181022	676.25
1460.704197	678.0
1461.227316	677.75
1461.750381	678.5
1462.27339	680.75
1462.796345	691.0
1463.319244	688.75
1463.842089	677.25
1464.364878	674.75
1464.887613	675.5
1465.410292	674.25
1465.932916	672.0
1466.455486	674.75
1466.978	677.75
1467.50046	673.25
1468.022864	677.0
1468.545214	677.25
1469.067508	676.75
1469.589748	678.5
1470.111932	678.0
1470.634062	674.25
1471.156136	676.5
1471.678156	678.25
1472.20012	676.5
1472.72203	678.75
1473.243885	673.5
1473.765685	672.25
1474.28743	681.5
1474.80912	670.5
1475.330755	675.75
1475.852335	675.5
1476.37386	677.0
1476.89533	676.75
1477.416745	675.5
1477.938106	676.0
1478.459411	674.0
1478.980662	671.75
1479.501857	678.25
1480.022998	674.25
1480.544084	674.75
1481.065115	675.5
1481.586091	672.75
1482.107012	674.5
1482.627878	675.25
1483.14869	676.5
1483.669446	672.75
1484.190148	674.0
1484.710794	676.5
1485.231386	676.0
1485.751923	675.25
1486.272406	676.0
1486.792833	671.5
1487.313205	673.25
1487.833523	670.5
1488.353786	675.0
1488.873994	674.75
1489.394147	678.5
1489.914245	673.75
1490.434288	675.75
1490.954277	674.75
1491.474211	678.0
1491.99409	674.25
1492.513914	674.25
1493.033683	675.75
1493.553398	674.25
1494.073057	678.25
1494.592662	674.75
1495.112212	675.0
1495.631708	672.5
1496.151148	677.25
1496.670534	674.5
1497.189865	675.5
1497.709141	672.25
1498.228362	675.25
1498.747529	677.75
1499.266641	673.75
1499.785698	684.25
1500.3047	678.5
1500.823648	672.25
1501.34254	674.75
1501.861379	676.5
1502.380162	677.25
1502.89889	673.5
1503.417564	676.25
1503.936183	676.25
1504.454748	674.75
1504.973257	676.75
1505.491712	673.0
1506.010112	675.25
1506.528458	674.0
1507.046748	676.25
1507.564984	674.0
1508.083166	678.75
1508.601292	675.25
1509.119364	672.0
1509.637381	675.5
1510.155344	674.5
1510.673252	681.5
1511.191105	675.0
1511.708903	672.25
1512.226647	675.75
1512.744336	676.0
1513.261971	674.5
1513.77955	673.0
1514.297076	674.5
1514.814546	676.0
1515.331962	676.75
1515.849323	675.0
1516.366629	674.0
1516.883881	675.75
1517.401078	677.0
1517.918221	677.75
1518.952342	676.75
1519.469321	673.0
1519.986245	677.0
1520.503114	676.0
1521.019929	678.25
1521.536689	675.75
1522.053395	678.5
1522.570046	675.25
1523.086642	676.0
1523.603184	677.75
1524.119671	676.5
1524.636103	674.25
1525.152481	679.0
1525.668805	681.25
1526.185073	686.5
1526.701288	680.0
1527.217447	675.0
1527.733552	678.75
1528.249603	674.0
1528.765599	674.5
1529.28154	673.75
1529.797427	675.75
1530.313259	678.0
1530.829037	673.5
1531.34476	677.25
1531.860429	674.5
1532.376043	673.25
1532.891602	674.75
1533.407107	676.0
1533.922558	674.25
1534.437954	677.5
1534.953295	678.25
1535.468582	675.25
1535.983815	675.25
1536.498993	674.0
1537.014116	674.75
1537.529185	677.25
1538.044199	674.75
1538.559159	677.25
1539.074064	674.0
1539.588915	675.0
1540.103712	672.75
1540.618454	674.0
1541.133141	675.25
1541.647774	674.75
1542.162353	677.25
1542.676877	674.5
1543.191346	676.75
1543.705761	676.25
1544.220122	676.5
1544.734428	677.75
1545.24868	670.75
1545.762877	676.0
1546.27702	675.0
1546.791109	674.75
1547.305143	673.0
1547.819122	673.75
1548.333047	673.5
1548.846918	673.0
1549.360734	672.25
1549.874496	679.25
1550.388204	672.25
1550.901857	675.5
1551.415455	676.0
1551.929	674.25
1552.442489	674.75
1552.955925	675.25
1553.469306	676.75
1553.982632	675.5
1554.495905	676.5
1555.009123	674.75
1555.522286	672.0
1556.035395	675.75
1556.54845	672.75
1557.06145	676.25
1557.574396	676.0
1558.087288	675.5
1558.600125	673.5
1559.112908	675.5
1559.625637	673.75
1560.138311	676.75
1560.650931	671.25
1561.163497	672.25
1561.676008	675.75
1562.188465	675.75
1562.700867	673.25
1563.213216	677.75
1563.725509	676.25
1564.237749	676.5
1564.749934	679.0
1565.262065	674.25
1565.774142	674.5
1566.286164	676.5
1566.798132	674.5
1567.310046	675.75
1567.821906	676.25
1568.333711	678.0
1568.845462	675.0
1569.357158	675.5
1569.868801	676.75
1570.380389	677.75
1570.891922	673.75
1571.403402	674.0
1571.914827	674.0
1572.426198	676.25
1572.937515	675.0
1573.448777	672.25
1573.959985	673.75
1574.471139	675.5
1574.982239	677.5
1575.493285	673.5
1576.004276	675.0
1576.515213	675.5
1577.026096	675.0
1577.536924	674.25
1578.047698	677.5
1578.558419	675.5
1579.069084	677.25
1579.579696	675.25
1580.090254	673.0
1580.600757	674.5
1581.111206	675.25
1581.621601	675.5
1582.131941	678.25
1582.642228	674.25
1583.15246	677.0
1583.662638	675.75
1584.172762	675.0
1584.682832	673.5
1585.192847	674.75
1585.702809	673.5
1586.212716	674.0
1586.722569	675.5
1587.232368	674.0
1587.742113	675.0
1588.251803	673.25
1588.76144	672.5
1589.271022	674.5
1589.78055	673.5
1590.290024	674.25
1590.799444	675.0
1591.30881	673.0
1591.818121	673.75
1592.327379	673.25
