1042.414189	710.25
1042.980685	714.75
1043.547124	707.0
1044.113505	710.25
1044.679828	707.0
1045.246093	704.75
1045.8123	708.25
1046.378449	703.75
1046.94454	699.5
1047.510573	702.0
1048.076548	704.5
1048.642465	699.75
1049.208325	699.25
1049.774126	701.25
1050.339869	702.0
1050.905555	698.25
1051.471183	695.0
1052.036752	696.0
1052.602264	695.0
1053.167718	700.75
1053.733114	698.5
1054.298452	696.25
1054.863733	699.75
1055.428955	700.0
1055.994119	693.5
1056.559226	697.5
1057.124275	693.75
1057.689266	695.25
1058.254199	693.5
1058.819074	695.25
1059.383891	690.25
1059.94865	693.0
1060.513352	697.25
1061.077996	690.0
1061.642582	692.5
1062.20711	693.75
1062.77158	694.25
1063.335992	689.0
1063.900347	690.75
1064.464643	691.75
1065.028882	690.75
1065.593063	693.0
1066.157187	688.5
1066.721252	693.5
1067.28526	690.0
1067.84921	693.75
1068.413102	688.75
1068.976936	688.25
1069.540713	690.75
1070.104431	700.0
1070.668092	692.75
1071.231696	691.0
1071.795241	693.25
1072.358729	688.5
1072.922159	692.5
1073.485531	691.5
1074.048845	689.75
1074.612102	692.75
1075.175301	690.0
1075.738442	685.75
1076.301525	687.75
1076.864551	694.25
1077.427519	685.75
1077.990429	689.25
1078.553281	691.0
1079.116076	687.25
1079.678813	691.25
1080.241492	686.5
1080.804114	690.25
1081.366678	687.5
1081.929184	687.75
1082.491633	690.5
1083.054024	691.0
1083.616357	690.75
1084.178632	691.0
1084.74085	687.5
1085.30301	690.75
1085.865113	687.0
1086.427158	693.5
1086.989145	693.5
1087.551074	690.25
1088.112946	691.25
1088.67476	685.75
1089.236517	691.5
1089.798216	690.0
1090.359857	687.25
1090.92144	691.5
1091.482966	688.25
1092.044435	687.5
1092.605845	690.5
1093.167199	693.75
1093.728494	690.75
1094.289732	689.25
1094.850912	692.0
1095.412035	707.0
1095.9731	693.25
1096.534107	688.0
1097.095057	690.75
1097.65595	687.0
1098.216784	683.5
1098.777561	684.0
1099.338281	685.0
1099.898943	691.5
1100.459547	686.75
1101.020094	688.5
1101.580584	683.0
1102.141015	688.5
1102.701389	686.75
1103.261706	680.5
1103.821965	683.5
1104.382167	681.0
1104.942311	687.25
1105.502397	685.5
1106.062426	685.5
1106.622398	681.0
1107.182312	685.75
1107.742168	685.25
1108.301967	687.0
1108.861708	683.25
1109.421392	683.5
1109.981019	683.25
1110.540587	682.75
1111.100099	683.25
1111.659553	686.25
1112.218949	685.5
1112.778288	681.75
1113.33757	681.75
1113.896794	685.75
1114.45596	687.25
1115.015069	679.75
1115.574121	682.25
1116.133115	681.75
1116.692052	682.5
1117.250931	685.5
1117.809753	679.5
1118.368517	679.75
1118.927224	684.0
1119.485873	682.0
1120.044465	681.0
1120.603	684.25
1121.161477	682.75
1121.719897	684.25
1122.278259	677.0
1122.836564	679.5
1123.394812	678.5
1123.953002	679.25
1124.511135	679.75
1125.06921	681.0
1125.627228	678.5
1126.185189	683.75
1126.743092	680.75
1127.300938	678.5
1127.858726	680.25
1128.416457	680.25
1128.974131	680.5
1129.531748	680.0
1130.089307	680.25
1130.646808	683.5
1131.204252	680.0
1131.761639	680.5
1132.318969	682.5
1132.876241	679.75
1133.433456	682.0
1133.990614	680.25
1134.547714	683.25
1135.104757	681.25
1135.661743	677.75
1136.218671	678.5
1136.775542	676.25
1137.332356	679.25
1137.889112	680.25
1138.445811	680.0
1139.002453	681.5
1139.559037	680.0
1140.115565	679.0
1140.672035	682.0
1141.228447	678.0
1141.784803	680.25
1142.341101	680.0
1142.897342	680.75
1143.453525	678.5
1144.009651	681.5
1144.565721	679.25
1145.121732	678.75
1145.677687	677.0
1146.233584	681.75
1146.789424	678.5
1147.345207	680.0
1147.900933	678.25
1148.456601	679.0
1149.012212	677.75
1149.567766	678.0
1150.123263	679.0
1150.678702	680.75
1151.234085	680.5
1151.78941	681.25
1152.344678	676.25
1152.899888	676.75
1153.455042	676.75
1154.010138	681.5
1154.565177	678.0
1155.120159	677.25
1155.675084	678.25
1156.229951	678.0
1156.784762	679.0
1157.339515	677.25
1157.894211	681.75
1158.44885	678.25
1159.003432	677.5
1159.557956	678.0
1160.112424	680.0
1160.666834	682.25
1161.221187	675.5
1161.775483	679.0
1162.329722	682.75
1162.883904	681.25
1163.438029	680.0
1163.992096	678.75
1164.546107	677.0
1165.10006	675.25
1165.653956	677.5
1166.207795	680.75
1166.761577	678.0
1167.315302	680.75
1167.86897	679.25
1168.422581	679.0
1168.976134	681.75
1169.529631	675.0
1170.08307	677.75
1170.636453	679.5
1171.189778	679.75
1171.743046	677.75
1172.296257	680.25
1172.849412	673.25
1173.402509	679.75
1173.955549	680.5
1174.508532	681.0
1175.061458	679.5
1175.614327	677.5
1176.167138	681.5
1176.719893	679.0
1177.272591	679.75
1177.825232	683.5
1178.377816	679.5
1178.930342	675.25
1179.482812	676.5
1180.035225	679.5
1180.587581	675.75
1181.139879	682.25
1181.692121	682.75
1182.244306	677.25
1182.796434	680.75
1183.348504	682.25
1183.900518	675.0
1184.452475	676.75
1185.004375	680.0
1185.556218	676.5
1186.108004	679.75
1186.659733	680.0
1187.211405	676.75
1187.76302	680.0
1188.314578	678.5
1188.866079	676.75
1189.417523	676.0
1189.96891	674.0
1190.520241	676.25
1191.071514	676.0
1191.622731	677.75
1192.17389	680.0
1192.724993	678.25
1193.276039	698.75
1193.827027	674.25
1194.377959	680.25
1194.928834	678.5
1195.479653	677.75
1196.030414	677.0
1196.581118	676.75
1197.131766	677.25
1197.682356	671.75
1198.23289	680.25
1198.783367	676.0
1199.333786	676.75
1199.88415	678.75
1200.434456	679.0
1200.984705	681.0
1201.534898	676.0
1202.085033	673.75
1202.635112	676.75
1203.185134	675.25
1203.735099	678.75
1204.285007	677.0
1204.834859	677.0
1205.384653	676.25
1205.934391	675.75
1206.484072	677.25
1207.033696	677.75
1207.583263	676.5
1208.132774	679.25
1208.682228	677.25
1209.231624	673.25
1209.780965	677.75
1210.330248	673.5
1210.879474	677.25
1211.428644	679.75
1211.977757	678.75
1212.526813	676.75
1213.075813	677.75
1213.624755	675.75
1214.173641	675.5
1214.72247	675.25
1215.271242	676.75
1215.819958	677.25
1216.368617	676.0
1216.917219	680.5
1217.465764	674.75
1218.014253	675.0
1218.562685	675.75
1219.11106	675.0
1219.659378	677.5
1220.20764	676.5
1220.755845	676.25
1221.303993	675.75
1221.852085	677.0
1222.400119	675.75
1222.948097	680.0
1223.496019	676.0
1224.043883	678.5
1224.591691	676.25
1225.139443	673.5
1225.687137	680.5
1226.234775	674.25
1226.782357	672.75
1227.329881	678.5
1227.877349	677.0
1228.42476	680.75
1228.972115	677.25
1229.519413	680.0
1230.066654	679.25
1230.613839	673.75
1231.160967	680.25
1231.708038	677.0
1232.255053	676.75
1232.802011	679.5
1233.348912	674.25
1233.895757	677.25
1234.442545	677.25
1234.989277	679.0
1235.535951	673.5
1236.08257	676.0
1236.629131	679.75
1237.175636	677.75
1237.722085	676.5
1238.268477	678.5
1238.814812	679.0
1239.361091	681.0
1239.907313	675.25
1240.453478	676.25
1240.999587	678.0
1241.54564	676.75
1242.091636	677.0
1242.637575	677.5
1243.183457	680.0
1243.729284	676.5
1244.275053	677.5
1244.820766	684.5
1245.366423	677.25
1245.912022	675.75
1246.457566	676.5
1247.003053	676.0
1247.548483	677.75
1248.093857	676.5
1248.639174	677.25
1249.184435	677.75
1249.729639	678.0
1250.274787	682.25
1250.819878	679.0
1251.364912	678.25
1251.909891	678.5
1252.454812	681.25
1252.999677	677.75
1253.544486	678.0
1254.089238	678.25
1254.633934	676.75
1255.178573	677.25
1255.723156	677.0
1256.267682	678.5
1256.812152	681.5
1257.356565	680.75
1257.900922	679.5
1258.445223	678.5
1258.989467	681.75
1259.533654	682.25
1260.077785	695.5
1260.62186	680.25
1261.165878	678.0
1261.70984	679.25
1262.253745	679.25
1262.797594	680.25
1263.341386	683.25
1263.885123	683.0
1264.428802	688.25
1264.972425	698.5
1265.515992	724.5
1266.059503	713.75
1266.602957	691.25
1267.146354	684.0
1267.689696	681.25
1268.23298	680.75
1268.776209	676.25
1269.319381	683.75
1269.862497	680.25
1270.405556	676.75
1270.948559	677.25
1271.491506	676.25
1272.034396	679.5
1272.57723	681.5
1273.120007	681.5
1273.662728	677.75
1274.205393	675.75
1274.748002	676.75
1275.290554	681.25
1275.83305	680.75
1276.375489	677.25
1276.917872	676.0
1277.460199	674.5
1278.00247	678.5
1278.544684	679.25
1279.086842	678.5
1279.628943	682.5
1280.170989	675.75
1280.712978	676.5
1281.25491	677.0
1281.796787	682.75
1282.338607	680.0
1282.880371	685.25
1283.422078	689.25
1283.963729	695.25
1284.505324	713.5
1285.046863	800.75
1285.588345	1123.0
1286.129772	1218.0
1286.671142	842.75
1287.212455	715.25
1287.753713	696.5
1288.294914	686.5
1288.836059	686.75
1289.377147	682.0
1289.91818	686.0
1290.459156	680.75
1291.000076	680.25
1291.54094	677.75
1292.081747	677.75
1292.622499	679.5
1293.163194	676.5
1293.703833	676.0
1294.244415	675.0
1294.784942	677.0
1295.325412	678.75
1295.865826	678.75
1296.406184	676.5
1296.946486	677.0
1297.486731	682.0
1298.026921	679.5
1298.567054	679.5
1299.107131	677.75
1299.647152	676.75
1300.187116	678.5
1300.727025	681.0
1301.266877	678.25
1301.806673	676.0
1302.346413	675.0
1302.886097	680.0
1303.425725	678.5
1303.965297	678.75
1304.504812	675.75
1305.044272	676.5
1305.583675	678.25
1306.123022	677.25
1306.662313	678.75
1307.201548	675.75
1307.740727	676.0
1308.279849	675.75
1308.818916	679.25
1309.357926	679.75
1309.896881	676.75
1310.435779	677.25
1310.974621	675.25
1311.513407	676.25
1312.052137	677.25
1312.590811	677.75
1313.129429	675.0
1313.667991	677.5
1314.206497	678.25
1314.744946	677.75
1315.28334	676.5
1315.821678	675.25
1316.359959	678.25
1316.898184	677.0
1317.436354	677.0
1317.974467	678.5
1318.512525	678.0
1319.050526	682.25
1319.588471	676.0
1320.12636	680.0
1320.664194	676.75
1321.201971	679.75
1321.739692	673.75
1322.277357	676.25
1322.814967	677.25
1323.35252	679.5
1323.890017	682.5
1324.427458	679.25
1324.964843	677.0
1325.502173	676.0
1326.039446	683.0
1326.576663	678.25
1327.113824	678.75
1327.65093	677.75
1328.187979	679.25
1328.724972	674.25
1329.26191	678.25
1329.798791	677.0
1330.335617	676.75
1330.872386	678.25
1331.4091	679.25
1331.945758	677.25
1332.48236	675.5
1333.018905	679.75
1333.555395	678.0
1334.091829	677.5
1334.628207	674.75
1335.164529	676.75
1335.700796	676.75
1336.237006	678.75
1336.77316	674.75
1337.309259	675.0
1337.845301	678.75
1338.381288	679.25
1338.917219	677.0
1339.453094	678.25
1339.988913	675.5
1340.524676	679.5
1341.060383	675.75
1341.596034	677.0
1342.13163	675.5
1342.66717	674.25
1343.202653	680.25
1343.738081	677.25
1344.273453	677.75
1344.80877	681.25
1345.34403	678.0
1345.879235	676.25
1346.414383	673.75
1346.949476	679.25
1347.484513	676.0
1348.019494	677.75
1348.55442	678.25
1349.089289	677.25
1349.624103	681.5
1350.158861	675.0
1350.693563	680.75
1351.228209	675.5
1351.7628	678.25
1352.297334	673.5
1352.831813	679.0
1353.366236	679.5
1353.900604	679.75
1354.434915	676.5
1354.969171	680.5
1355.503371	677.0
1356.037515	676.5
1356.571604	675.75
1357.105636	675.25
1357.639613	678.25
1358.173535	675.25
1358.7074	679.0
1359.24121	679.25
1359.774964	677.5
1360.308662	676.25
1360.842304	678.75
1361.375891	678.25
1361.909422	676.5
1362.442897	679.25
1362.976317	676.0
1363.50968	673.5
1364.042989	675.5
1364.576241	676.0
1365.109438	681.25
1365.642579	678.5
1366.175664	681.25
1367.774585	684.5
1368.307448	680.5
1368.840255	674.5
1369.373006	675.75
1369.905701	680.5
1370.438341	689.5
1370.970925	692.5
1371.503454	683.25
1372.035926	691.0
1372.568344	947.0
1373.100705	678.0
1373.633011	678.0
1374.165261	677.0
1374.697456	678.75
1375.229595	680.75
1375.761678	676.75
1376.293705	679.5
1376.825677	680.0
1377.357594	678.25
1377.889455	677.75
1378.42126	676.0
1378.953009	677.75
1379.484703	680.75
1380.016342	677.75
1380.547924	680.0
1381.079452	682.25
1381.610923	678.25
1382.142339	682.75
1382.673699	681.5
1383.205004	679.75
1383.736253	679.75
1384.267447	679.5
1384.798585	683.5
1385.329668	685.0
1385.860695	688.0
1386.391666	684.0
1386.922582	691.0
1387.453442	702.75
1387.984247	759.25
1388.514996	1057.25
1389.04569	1708.0
1389.576328	1166.5
1390.10691	763.5
1390.637437	705.25
1391.167909	691.25
1391.698325	684.75
1392.228685	681.0
1392.75899	682.5
1393.28924	680.25
1393.819434	680.0
1394.349572	681.0
1394.879655	678.5
1395.409683	675.75
1395.939655	678.5
1396.469571	680.5
1396.999432	678.0
1397.529237	675.25
1398.058987	676.75
1398.588682	677.0
1399.118321	677.25
1399.647905	680.0
1400.177433	678.0
1400.706906	677.25
1401.236323	675.5
1401.765685	678.5
1402.294991	675.75
1402.824242	681.25
1403.353437	674.5
1403.882577	678.0
1404.411662	675.0
1404.940691	679.25
1405.469665	678.5
1405.998583	678.75
1406.527446	676.75
1407.056253	679.0
1407.585005	677.75
1408.113702	679.75
1408.642343	683.0
1409.170929	687.75
1409.69946	704.25
1410.227935	756.0
1410.756354	744.0
1411.284719	697.0
1411.813028	684.25
1412.341281	678.5
1412.869479	678.0
1413.397622	679.0
1413.92571	676.0
1414.453742	674.5
1414.981718	676.0
1415.50964	689.5
1416.037506	676.25
1416.565316	680.0
1417.093072	677.75
1417.620772	677.75
1418.148416	676.25
1418.676005	675.75
1419.203539	674.25
1419.731018	680.25
1420.258441	675.5
1420.785809	678.5
1421.313122	679.0
1421.840379	675.75
1422.367582	679.5
1422.894728	678.75
1423.42182	680.75
1423.948856	677.5
1424.475837	679.0
1425.002762	680.0
1425.529633	677.25
1426.056448	679.0
1426.583207	680.0
1427.109912	681.75
1427.636561	674.5
1428.163155	676.5
1428.689694	675.75
1429.216177	674.5
1429.742605	677.0
1430.268978	678.75
1430.795296	675.75
1431.321558	675.75
1431.847765	677.75
1432.373917	676.75
1432.900014	676.5
1433.426056	676.0
1433.952042	677.25
1434.477973	676.0
1435.003849	676.0
1435.529669	675.25
1436.055435	673.5
1436.581145	680.25
1437.1068	674.0
1437.632399	678.5
1438.157944	676.25
1438.683433	677.75
1439.208868	676.25
1439.734247	674.75
1440.25957	677.5
1440.784839	673.5
1441.310053	676.75
1441.835211	677.75
1442.360314	674.25
1442.885362	676.25
1443.410355	676.5
1443.935292	675.75
1444.460175	673.25
1444.985002	674.75
1445.509774	677.5
1446.034491	674.75
1446.559153	670.75
1447.08376	678.25
1447.608312	673.25
1448.132808	673.0
1448.65725	676.25
1449.181636	680.25
1449.705967	675.0
1450.230243	674.75
1450.754464	674.75
1451.27863	675.5
1451.802741	675.75
1452.326797	675.75
1452.850797	672.25
1453.374743	674.5
1453.898633	675.0
1454.422468	675.0
1454.946249	671.25
1455.469974	675.75
1455.993644	672.0
1456.517259	673.5
1457.040819	670.5
1457.564324	673.0
1458.087773	673.0
1458.611168	676.25
1459.134508	672.0
1459.657793	673.5
1460.181022	671.75
1460.704197	674.0
1461.227316	674.5
1461.750381	673.5
1462.27339	674.75
1462.796345	690.0
1463.319244	687.5
1463.842089	671.25
1464.364878	674.25
1464.887613	672.25
1465.410292	673.5
1465.932916	674.75
1466.455486	673.5
1466.978	674.75
1467.50046	676.0
1468.022864	675.0
1468.545214	673.25
1469.067508	673.5
1469.589748	675.5
1470.111932	675.0
1470.634062	674.5
1471.156136	673.75
1471.678156	675.25
1472.20012	672.75
1472.72203	672.75
1473.243885	672.75
1473.765685	672.25
1474.28743	673.25
1474.80912	674.75
1475.330755	675.5
1475.852335	678.0
1476.37386	671.75
1476.89533	674.25
1477.416745	670.25
1477.938106	672.75
1478.459411	671.5
1478.980662	673.25
1479.501857	675.5
1480.022998	671.75
1480.544084	673.75
1481.065115	673.75
1481.586091	675.0
1482.107012	672.25
1482.627878	674.25
1483.14869	672.25
1483.669446	672.75
1484.190148	673.25
1484.710794	673.25
1485.231386	674.5
1485.751923	679.25
1486.272406	674.25
1486.792833	674.0
1487.313205	673.75
1487.833523	673.25
1488.353786	669.75
1488.873994	672.5
1489.394147	671.75
1489.914245	675.0
1490.434288	673.0
1490.954277	674.25
1491.474211	672.5
1491.99409	673.25
1492.513914	672.75
1493.033683	675.75
1493.553398	671.75
1494.073057	673.0
1494.592662	668.0
1495.112212	673.5
1495.631708	673.5
1496.151148	673.5
1496.670534	675.25
1497.189865	674.25
1497.709141	671.75
1498.228362	673.75
1498.747529	675.5
1499.266641	672.0
1499.785698	683.5
1500.3047	673.5
1500.823648	672.75
1501.34254	675.25
1501.861379	672.25
1502.380162	671.75
1502.89889	673.75
1503.417564	668.75
1503.936183	673.25
1504.454748	675.0
1504.973257	673.75
1505.491712	671.75
1506.010112	672.75
1506.528458	673.5
1507.046748	674.25
1507.564984	672.75
1508.083166	674.75
1508.601292	674.5
1509.119364	670.0
1509.637381	672.5
1510.155344	672.75
1510.673252	680.25
1511.191105	673.5
1511.708903	675.0
1512.226647	672.5
1512.744336	672.0
1513.261971	672.5
1513.77955	672.0
1514.297076	673.25
1514.814546	671.25
1515.331962	673.5
1515.849323	672.5
1516.366629	673.75
1516.883881	673.25
1517.401078	674.25
1517.918221	673.75
1518.435309	672.25
1518.952342	670.25
1519.469321	675.0
1519.986245	672.0
1520.503114	672.75
1521.019929	673.75
1521.536689	670.75
1522.053395	669.25
1522.570046	670.5
1523.086642	672.5
1523.603184	673.25
1524.119671	673.0
1524.636103	673.5
1525.152481	674.75
1525.668805	678.0
1526.185073	690.25
1526.701288	679.0
1527.217447	671.5
1527.733552	673.25
1528.249603	672.75
1528.765599	671.5
1529.28154	673.5
1529.797427	671.75
1530.313259	671.5
1530.829037	670.75
1531.34476	674.25
1531.860429	672.5
1532.376043	672.75
1532.891602	675.0
1533.407107	674.75
1533.922558	671.75
1534.437954	671.25
1534.953295	674.75
1535.468582	673.5
1535.983815	669.75
1536.498993	673.5
1537.014116	673.25
1537.529185	673.75
1538.044199	674.25
1538.559159	673.5
1539.074064	672.0
1539.588915	673.0
1540.103712	673.25
1540.618454	676.5
1541.133141	672.75
1541.647774	672.0
1542.162353	671.5
1542.676877	670.75
1543.191346	674.5
1543.705761	674.0
1544.220122	671.5
1544.734428	670.75
1545.24868	672.75
1545.762877	675.5
1546.27702	671.25
1546.791109	675.0
1547.305143	676.0
1547.819122	674.5
1548.333047	673.25
1548.846918	673.25
1549.360734	671.75
1549.874496	671.0
1550.388204	674.25
1550.901857	675.5
1551.415455	668.5
1551.929	673.75
1552.442489	671.0
1552.955925	671.25
1553.469306	674.0
1553.982632	671.5
1554.495905	675.25
1555.009123	674.75
1555.522286	671.25
1556.035395	671.75
1556.54845	673.5
1557.06145	674.0
1557.574396	671.25
1558.087288	673.0
1558.600125	671.25
1559.112908	674.0
1559.625637	675.25
1560.138311	674.5
1560.650931	675.5
1561.163497	675.25
1561.676008	673.75
1562.188465	674.75
1562.700867	679.75
1563.213216	670.25
1563.725509	671.0
1564.237749	674.5
1564.749934	674.75
1565.262065	672.0
1565.774142	679.0
1566.286164	676.0
1566.798132	671.25
1567.310046	675.75
1567.821906	676.75
1568.333711	676.25
1568.845462	676.0
1569.357158	677.5
1569.868801	673.0
1570.380389	675.5
1570.891922	675.5
1571.403402	671.25
1571.914827	674.0
1572.426198	673.5
1572.937515	671.75
1573.448777	673.0
1573.959985	670.75
1574.471139	672.5
1574.982239	670.5
1575.493285	675.5
1576.004276	670.25
1576.515213	672.5
1577.026096	676.75
1577.536924	676.25
1578.047698	672.0
1578.558419	676.5
1579.069084	673.5
1579.579696	675.75
1580.090254	670.5
1580.600757	675.0
1581.111206	672.5
1581.621601	672.75
1582.131941	672.0
1582.642228	671.5
1583.15246	675.25
1583.662638	680.0
1584.172762	671.0
1584.682832	671.0
1585.192847	672.0
1585.702809	672.25
1586.212716	673.25
1586.722569	672.25
1587.232368	673.75
1587.742113	669.0
1588.251803	676.0
1588.76144	673.75
1589.271022	670.25
1589.78055	673.25
1590.290024	672.5
1590.799444	670.5
1591.30881	671.0
1591.818121	673.75
1592.327379	672.5
