1042.414189	686.25
1042.980685	685.5
1043.547124	682.25
1044.113505	686.5
1044.679828	681.25
1045.246093	681.5
1045.8123	680.25
1046.378449	677.25
1046.94454	682.0
1047.510573	675.25
1048.076548	675.25
1048.642465	677.0
1049.208325	674.5
1049.774126	673.25
1050.339869	675.0
1050.905555	677.25
1051.471183	674.25
1052.036752	672.75
1052.602264	673.0
1053.167718	674.0
1053.733114	672.5
1054.298452	668.5
1054.863733	670.5
1055.428955	669.0
1055.994119	670.25
1056.559226	673.25
1057.124275	670.5
1057.689266	669.75
1058.254199	669.75
1058.819074	671.5
1059.383891	670.25
1059.94865	671.0
1060.513352	667.5
1061.077996	671.5
1061.642582	669.25
1062.20711	671.0
1062.77158	670.0
1063.335992	669.75
1063.900347	666.0
1064.464643	669.75
1065.028882	670.25
1065.593063	667.75
1066.157187	669.0
1066.721252	669.0
1067.28526	669.5
1067.84921	667.0
1068.413102	669.0
1068.976936	666.5
1069.540713	665.5
1070.104431	676.25
1070.668092	665.0
1071.231696	667.25
1071.795241	668.0
1072.358729	668.0
1072.922159	667.5
1073.485531	668.25
1074.048845	666.25
1074.612102	665.5
1075.175301	668.0
1075.738442	668.5
1076.301525	668.25
1076.864551	669.0
1077.427519	670.0
1077.990429	667.75
1078.553281	669.75
1079.116076	664.5
1079.678813	671.0
1080.241492	666.25
1080.804114	668.5
1081.366678	664.25
1081.929184	665.0
1082.491633	666.0
1083.054024	664.25
1083.616357	668.0
1084.178632	668.25
1084.74085	666.5
1085.30301	667.0
1085.865113	666.25
1086.427158	663.75
1086.989145	666.75
1087.551074	665.25
1088.112946	667.75
1088.67476	665.75
1089.236517	666.25
1089.798216	666.75
1090.359857	665.25
1090.92144	667.0
1091.482966	666.5
1092.044435	667.5
1092.605845	666.75
1093.167199	663.75
1093.728494	668.0
1094.289732	664.75
1094.850912	663.75
1095.412035	681.5
1095.9731	667.5
1096.534107	662.75
1097.095057	674.0
1097.65595	667.25
1098.216784	662.5
1098.777561	666.25
1099.338281	664.5
1099.898943	666.25
1100.459547	665.5
1101.020094	664.5
1101.580584	668.75
1102.141015	665.75
1102.701389	663.25
1103.261706	666.25
1103.821965	665.5
1104.382167	664.0
1104.942311	664.0
1105.502397	666.25
1106.062426	664.75
1106.622398	666.0
1107.182312	665.25
1107.742168	666.5
1108.301967	665.75
1108.861708	664.25
1109.421392	665.5
1109.981019	668.0
1110.540587	663.75
1111.100099	666.75
1111.659553	665.75
1112.218949	665.0
1112.778288	665.5
1113.33757	663.75
1113.896794	661.75
1114.45596	664.5
1115.015069	665.75
1115.574121	666.0
1116.133115	664.0
1116.692052	663.5
1117.250931	665.25
1117.809753	667.75
1118.368517	666.5
1118.927224	665.0
1119.485873	665.5
1120.044465	666.0
1120.603	661.25
1121.161477	664.25
1121.719897	666.5
1122.278259	664.25
1122.836564	665.0
1123.394812	665.75
1123.953002	660.0
1124.511135	665.25
1125.06921	661.25
1125.627228	664.5
1126.185189	663.5
1126.743092	662.25
1127.300938	664.5
1127.858726	668.0
1128.416457	664.75
1128.974131	664.0
1129.531748	663.75
1130.089307	663.0
1130.646808	664.25
1131.204252	663.75
1131.761639	660.75
1132.318969	663.25
1132.876241	664.25
1133.433456	665.25
1133.990614	664.25
1134.547714	664.0
1135.104757	663.25
1135.661743	661.0
1136.218671	662.0
1136.775542	664.25
1137.332356	665.0
1137.889112	662.75
1138.445811	664.25
1139.002453	663.75
1139.559037	663.25
1140.115565	663.0
1140.672035	662.75
1141.228447	662.25
1141.784803	665.5
1142.341101	664.75
1142.897342	664.5
1143.453525	665.75
1144.009651	664.0
1144.565721	663.25
1145.121732	664.5
1145.677687	661.75
1146.233584	663.0
1146.789424	664.0
1147.345207	661.5
1147.900933	662.5
1148.456601	663.75
1149.012212	663.75
1149.567766	665.25
1150.123263	662.5
1150.678702	664.0
1151.234085	665.25
1151.78941	663.25
1152.344678	666.75
1152.899888	663.0
1153.455042	661.25
1154.010138	662.25
1154.565177	664.0
1155.120159	661.75
1155.675084	662.5
1156.229951	665.0
1156.784762	663.75
1157.339515	662.5
1157.894211	663.0
1158.44885	663.25
1159.003432	661.25
1159.557956	662.0
1160.112424	665.0
1160.666834	662.25
1161.221187	662.75
1161.775483	661.75
1162.329722	664.5
1162.883904	665.25
1163.438029	662.75
1163.992096	663.75
1164.546107	661.75
1165.10006	663.5
1165.653956	661.75
1166.207795	664.25
1166.761577	662.75
1167.315302	665.5
1167.86897	662.75
1168.422581	662.75
1168.976134	663.5
1169.529631	662.25
1170.08307	662.25
1170.636453	663.5
1171.189778	664.25
1171.743046	663.25
1172.296257	663.25
1172.849412	663.25
1173.402509	662.25
1173.955549	662.5
1174.508532	663.75
1175.061458	661.75
1175.614327	661.75
1176.167138	665.0
1176.719893	663.75
1177.272591	663.0
1177.825232	663.0
1178.377816	665.0
1178.930342	665.0
1179.482812	662.5
1180.035225	661.25
1180.587581	663.25
1181.139879	663.75
1181.692121	662.25
1182.244306	662.25
1182.796434	661.25
1183.348504	663.25
1183.900518	662.5
1184.452475	665.25
1185.004375	664.0
1185.556218	663.0
1186.108004	663.25
1186.659733	664.5
1187.211405	662.5
1187.76302	663.25
1188.314578	661.25
1188.866079	662.5
1189.417523	663.5
1189.96891	662.0
1190.520241	664.5
1191.071514	663.0
1191.622731	664.75
1192.17389	665.0
1192.724993	663.5
1193.276039	685.5
1193.827027	662.25
1194.377959	661.0
1194.928834	663.5
1195.479653	665.0
1196.030414	664.25
1196.581118	662.75
1197.131766	661.75
1197.682356	663.25
1198.23289	662.5
1198.783367	663.0
1199.333786	663.5
1199.88415	661.25
1200.434456	662.0
1200.984705	663.5
1201.534898	664.5
1202.085033	664.25
1202.635112	662.75
1203.185134	662.25
1203.735099	663.75
1204.285007	663.75
1204.834859	665.5
1205.384653	664.0
1205.934391	664.0
1206.484072	663.25
1207.033696	662.25
1207.583263	663.25
1208.132774	661.5
1208.682228	661.75
1209.231624	662.5
1209.780965	663.75
1210.330248	664.75
1210.879474	659.5
1211.428644	663.75
1211.977757	663.25
1212.526813	666.25
1213.075813	661.75
1213.624755	664.0
1214.173641	662.25
1214.72247	663.0
1215.271242	660.75
1215.819958	661.75
1216.368617	662.5
1216.917219	661.5
1217.465764	664.25
1218.014253	661.25
1218.562685	664.5
1219.11106	666.0
1219.659378	662.75
1220.20764	662.0
1220.755845	662.75
1221.303993	665.5
1221.852085	666.25
1222.400119	665.75
1222.948097	662.0
1223.496019	665.0
1224.043883	662.5
1224.591691	662.0
1225.139443	661.5
1225.687137	660.25
1226.234775	664.0
1226.782357	661.75
1227.329881	664.5
1227.877349	664.75
1228.42476	662.25
1228.972115	663.25
1229.519413	664.25
1230.066654	663.5
1230.613839	661.75
1231.160967	662.0
1231.708038	662.0
1232.255053	663.25
1232.802011	661.75
1233.348912	663.5
1233.895757	664.0
1234.442545	665.0
1234.989277	663.25
1235.535951	661.75
1236.08257	662.25
1236.629131	664.5
1237.175636	662.25
1237.722085	663.25
1238.268477	663.0
1238.814812	662.25
1239.361091	664.0
1239.907313	663.75
1240.453478	662.0
1240.999587	658.75
1241.54564	663.0
1242.091636	663.0
1242.637575	662.5
1243.183457	663.0
1243.729284	662.0
1244.275053	662.25
1244.820766	663.75
1245.366423	664.75
1245.912022	662.5
1246.457566	663.0
1247.003053	664.0
1247.548483	663.5
1248.093857	663.25
1248.639174	663.0
1249.184435	663.25
1249.729639	663.25
1250.274787	660.5
1250.819878	662.25
1251.364912	663.25
1251.909891	662.25
1252.454812	663.75
1252.999677	661.5
1253.544486	664.25
1254.089238	661.5
1254.633934	660.0
1255.178573	661.5
1255.723156	664.25
1256.267682	663.25
1256.812152	662.25
1257.356565	664.0
1257.900922	665.25
1258.445223	666.5
1258.989467	663.75
1259.533654	663.5
1260.077785	680.0
1260.62186	663.0
1261.165878	664.5
1261.70984	662.75
1262.253745	662.0
1262.797594	662.5
1263.341386	662.25
1263.885123	664.0
1264.428802	664.0
1264.972425	665.25
1265.515992	666.0
1266.059503	663.5
1266.602957	667.5
1267.146354	664.25
1267.689696	663.75
1268.23298	666.0
1268.776209	663.25
1269.319381	665.75
1269.862497	660.25
1270.405556	665.0
1270.948559	663.0
1271.491506	660.0
1272.034396	660.5
1272.57723	661.5
1273.120007	661.75
1273.662728	662.5
1274.205393	664.75
1274.748002	662.5
1275.290554	662.25
1275.83305	665.0
1276.375489	663.75
1276.917872	663.0
1277.460199	662.0
1278.00247	665.5
1278.544684	663.25
1279.086842	661.75
1279.628943	661.75
1280.170989	663.0
1280.712978	663.75
1281.25491	662.0
1281.796787	664.5
1282.338607	665.25
1282.880371	666.25
1283.422078	664.25
1283.963729	666.0
1284.505324	675.5
1285.046863	692.75
1285.588345	709.0
1286.129772	680.5
1286.671142	670.0
1287.212455	662.5
1287.753713	665.75
1288.294914	662.25
1288.836059	664.75
1289.377147	663.75
1289.91818	662.25
1290.459156	665.25
1291.000076	664.25
1291.54094	662.25
1292.081747	664.75
1292.622499	663.5
1293.163194	661.25
1293.703833	664.0
1294.244415	662.5
1294.784942	661.5
1295.325412	662.5
1295.865826	659.75
1296.406184	661.75
1296.946486	663.75
1297.486731	662.75
1298.026921	661.75
1298.567054	662.75
1299.107131	662.5
1299.647152	663.5
1300.187116	663.75
1300.727025	664.75
1301.266877	663.75
1301.806673	664.0
1302.346413	664.0
1302.886097	661.25
1303.425725	664.75
1303.965297	662.0
1304.504812	661.25
1305.044272	661.0
1305.583675	660.5
1306.123022	662.0
1306.662313	660.0
1307.201548	663.75
1307.740727	667.0
1308.279849	660.25
1308.818916	663.75
1309.357926	664.25
1309.896881	660.75
1310.435779	663.75
1310.974621	663.0
1311.513407	661.0
1312.052137	663.5
1312.590811	662.5
1313.129429	664.25
1313.667991	663.5
1314.206497	662.0
1314.744946	664.5
1315.28334	664.25
1315.821678	662.75
1316.359959	664.0
1316.898184	663.25
1317.436354	663.0
1317.974467	664.5
1318.512525	662.0
1319.050526	662.75
1319.588471	663.0
1320.12636	664.0
1320.664194	661.5
1321.201971	663.25
1321.739692	665.25
1322.277357	662.75
1322.814967	662.0
1323.35252	662.0
1323.890017	668.5
1324.427458	663.75
1324.964843	662.0
1325.502173	665.25
1326.039446	663.25
1326.576663	660.5
1327.113824	661.0
1327.65093	663.0
1328.187979	665.5
1328.724972	662.5
1329.26191	663.75
1329.798791	662.75
1330.335617	664.25
1330.872386	664.5
1332.48236	659.0
1333.018905	661.5
1333.555395	662.5
1334.091829	665.5
1334.628207	661.75
1335.164529	662.25
1335.700796	663.25
1336.237006	661.5
1336.77316	661.5
1337.309259	665.25
1337.845301	659.5
1338.381288	663.25
1338.917219	662.0
1339.453094	665.0
1339.988913	661.5
1340.524676	661.25
1341.060383	661.75
1341.596034	665.0
1342.13163	663.75
1342.66717	661.0
1343.202653	661.75
1343.738081	663.0
1344.273453	664.0
1344.80877	662.75
1345.34403	662.0
1345.879235	663.0
1346.414383	662.75
1346.949476	663.25
1347.484513	661.0
1348.019494	663.25
1348.55442	662.75
1349.089289	662.5
1349.624103	662.5
1350.158861	662.75
1350.693563	660.0
1351.228209	662.5
1351.7628	663.75
1352.297334	662.25
1352.831813	660.0
1353.366236	660.25
1353.900604	663.75
1354.434915	661.25
1354.969171	661.75
1355.503371	662.25
1356.037515	661.75
1356.571604	662.25
1357.105636	663.0
1357.639613	664.75
1358.173535	660.5
1358.7074	664.5
1359.24121	663.0
1359.774964	661.5
1360.308662	664.5
1360.842304	662.0
1361.375891	660.5
1361.909422	660.0
1362.442897	660.5
1362.976317	663.25
1363.50968	665.0
1364.042989	664.25
1364.576241	662.75
1365.109438	664.0
1365.642579	663.25
1366.175664	664.0
1366.708693	660.5
1367.241667	665.5
1367.774585	662.5
1368.307448	664.0
1368.840255	662.5
1369.373006	663.75
1369.905701	664.75
1370.438341	659.75
1370.970925	666.25
1371.503454	662.75
1372.035926	664.5
1372.568344	661.75
1373.100705	661.5
1373.633011	659.75
1374.165261	664.25
1374.697456	665.0
1375.229595	664.75
1375.761678	662.75
1376.293705	661.75
1376.825677	661.75
1377.357594	662.25
1377.889455	662.0
1378.42126	664.0
1378.953009	664.75
1379.484703	662.5
1380.016342	660.25
1380.547924	662.0
1381.079452	665.25
1381.610923	662.5
1382.142339	662.75
1382.673699	665.0
1383.205004	662.25
1383.736253	665.25
1384.267447	663.25
1384.798585	663.25
1385.329668	663.75
1385.860695	663.0
1386.391666	663.75
1386.922582	669.5
1387.453442	671.5
1387.984247	685.25
1388.514996	729.0
1389.04569	732.25
1389.576328	680.5
1390.10691	669.0
1390.637437	666.0
1391.167909	666.25
1391.698325	662.0
1392.228685	662.0
1392.75899	662.75
1393.28924	662.25
1393.819434	665.25
1394.349572	662.5
1394.879655	664.25
1395.409683	660.75
1395.939655	662.0
1396.469571	663.75
1396.999432	665.0
1397.529237	662.5
1398.058987	661.75
1398.588682	660.25
1399.118321	663.5
1399.647905	661.75
1400.177433	662.25
1400.706906	663.5
1401.236323	663.0
1401.765685	661.75
1402.294991	661.0
1402.824242	662.5
1403.353437	662.0
1403.882577	664.0
1404.411662	661.5
1404.940691	661.0
1405.469665	664.0
1405.998583	662.0
1406.527446	662.25
1407.056253	662.75
1407.585005	662.25
1408.113702	664.5
1408.642343	664.0
1409.170929	666.0
1409.69946	665.75
1410.227935	668.5
1410.756354	666.25
1411.284719	663.25
1411.813028	663.25
1412.341281	662.75
1412.869479	662.0
1413.397622	662.0
1413.92571	663.5
1414.453742	661.75
1414.981718	660.75
1415.50964	675.25
1416.037506	662.5
1416.565316	664.0
1417.093072	661.5
1417.620772	662.5
1418.148416	663.25
1418.676005	661.0
1419.203539	661.0
1419.731018	661.0
1420.258441	660.0
1420.785809	662.25
1421.313122	662.5
1421.840379	661.25
1422.367582	664.0
1422.894728	661.75
1423.42182	661.75
1423.948856	663.75
1424.475837	663.5
1425.002762	664.0
1425.529633	665.5
1426.056448	661.25
1426.583207	659.75
1427.109912	661.75
1427.636561	661.25
1428.163155	662.5
1428.689694	661.5
1429.216177	662.5
1429.742605	662.5
1430.268978	665.25
1430.795296	662.5
1431.321558	662.25
1431.847765	661.75
1432.373917	661.0
1432.900014	662.0
1433.426056	658.75
1433.952042	665.0
1434.477973	661.75
1435.003849	660.75
1435.529669	660.0
1436.055435	661.0
1436.581145	663.5
1437.1068	662.25
1437.632399	662.75
1438.157944	661.25
1438.683433	664.0
1439.208868	661.0
1439.734247	661.5
1440.25957	662.75
1440.784839	663.0
1441.310053	661.5
1441.835211	663.25
1442.360314	662.5
1442.885362	660.5
1443.410355	665.25
1443.935292	661.25
1444.460175	663.75
1444.985002	663.25
1445.509774	663.5
1446.034491	662.5
1446.559153	661.25
1447.08376	659.5
1447.608312	663.25
1448.132808	664.0
1448.65725	661.5
1449.181636	661.75
1449.705967	663.25
1450.230243	662.25
1450.754464	662.75
1451.27863	662.75
1451.802741	660.25
1452.326797	661.0
1452.850797	661.5
1453.374743	661.75
1453.898633	664.0
1454.422468	661.5
1454.946249	664.5
1455.469974	659.75
1455.993644	664.25
1456.517259	661.0
1457.040819	666.0
1457.564324	661.25
1458.087773	664.0
1458.611168	662.75
1459.134508	661.0
1459.657793	664.25
1460.181022	664.25
1460.704197	663.25
1461.227316	663.5
1461.750381	663.25
1462.27339	664.75
1462.796345	665.75
1463.319244	665.0
1463.842089	664.0
1464.364878	661.25
1464.887613	664.0
1465.410292	663.75
1465.932916	661.75
1466.455486	662.5
1466.978	663.75
1467.50046	658.75
1468.022864	665.75
1468.545214	663.25
1469.067508	662.0
1469.589748	665.75
1470.111932	659.5
1470.634062	661.75
1471.156136	662.5
1471.678156	660.0
1472.20012	662.25
1472.72203	659.25
1473.243885	665.0
1473.765685	662.0
1474.28743	660.25
1474.80912	662.25
1475.330755	661.75
1475.852335	662.0
1476.37386	662.5
1476.89533	660.75
1477.416745	660.75
1477.938106	661.5
1478.459411	659.25
1478.980662	666.5
1479.501857	664.5
1480.022998	662.25
1480.544084	662.75
1481.065115	662.75
1481.586091	661.25
1482.107012	661.75
1482.627878	663.25
1483.14869	662.5
1483.669446	662.25
1484.190148	660.0
1484.710794	661.25
1485.231386	662.25
1485.751923	663.5
1486.272406	662.75
1486.792833	661.75
1487.313205	662.25
1487.833523	660.0
1488.353786	664.0
1488.873994	660.75
1489.394147	659.5
1489.914245	663.5
1490.434288	662.75
1490.954277	660.5
1491.474211	661.25
1491.99409	663.5
1492.513914	661.25
1493.033683	662.0
1493.553398	663.0
1494.073057	662.75
1494.592662	661.5
1495.112212	660.75
1495.631708	661.75
1496.151148	663.5
1496.670534	663.25
1497.189865	661.25
1497.709141	661.5
1498.228362	661.0
1498.747529	663.0
1499.266641	660.0
1499.785698	670.0
1500.3047	662.0
1500.823648	660.0
1501.34254	664.25
1501.861379	662.25
1502.380162	663.5
1502.89889	658.75
1503.417564	665.25
1503.936183	662.75
1504.454748	661.25
1504.973257	663.25
1505.491712	663.0
1506.010112	662.25
1506.528458	661.0
1507.046748	659.5
1507.564984	664.0
1508.083166	663.0
1508.601292	662.5
1509.119364	661.75
1509.637381	664.25
1510.155344	661.0
1510.673252	670.25
1511.191105	664.75
1511.708903	661.0
1512.226647	663.75
1512.744336	661.0
1513.261971	662.0
1513.77955	662.5
1514.297076	662.0
1514.814546	662.0
1515.331962	664.5
1515.849323	661.25
1516.366629	661.75
1516.883881	660.25
1517.401078	662.0
1517.918221	660.0
1518.435309	660.75
1518.952342	662.75
1519.469321	663.25
1519.986245	660.25
1520.503114	661.75
1521.019929	664.75
1521.536689	663.0
1522.053395	662.75
1522.570046	663.5
1523.086642	663.75
1523.603184	659.75
1524.119671	664.75
1524.636103	662.75
1525.152481	662.75
1525.668805	664.0
1526.185073	663.75
1526.701288	662.25
1527.217447	663.25
1527.733552	663.5
1528.249603	661.5
1528.765599	661.5
1529.28154	660.75
1529.797427	663.0
1530.313259	662.0
1530.829037	663.75
1531.34476	661.25
1531.860429	662.0
1532.376043	662.25
1532.891602	660.0
1533.407107	662.75
1533.922558	663.25
1534.437954	662.75
1534.953295	664.25
1535.468582	661.5
1535.983815	661.0
1536.498993	662.0
1537.014116	662.25
1537.529185	662.75
1538.044199	660.5
1538.559159	660.25
1539.074064	661.5
1539.588915	661.75
1540.103712	662.25
1540.618454	662.0
1541.133141	662.0
1541.647774	665.0
1542.162353	663.0
1542.676877	661.75
1543.191346	664.5
1543.705761	663.5
1544.220122	661.0
1544.734428	661.75
1545.24868	661.5
1545.762877	662.5
1546.27702	661.5
1546.791109	661.75
1547.305143	660.0
1547.819122	663.75
1548.333047	661.25
1548.846918	662.75
1549.360734	661.75
1549.874496	663.5
1550.388204	664.0
1550.901857	662.0
1551.415455	662.75
1551.929	664.5
1552.442489	661.5
1552.955925	661.75
1553.469306	662.25
1553.982632	660.0
1554.495905	662.0
1555.009123	657.5
1555.522286	664.0
1556.035395	662.5
1556.54845	661.75
1557.06145	661.25
1557.574396	662.75
1558.087288	661.5
1558.600125	660.5
1559.112908	664.25
1559.625637	665.0
1560.138311	662.0
1560.650931	662.5
1561.163497	663.5
1561.676008	663.5
1562.188465	663.25
1562.700867	663.5
1563.213216	661.0
1563.725509	663.75
1564.237749	660.5
1564.749934	662.5
1565.262065	660.25
1565.774142	662.0
1566.286164	661.25
1566.798132	661.75
1567.310046	660.75
1567.821906	663.0
1568.333711	662.0
1568.845462	666.25
1569.357158	661.0
1569.868801	664.0
1570.380389	664.0
1570.891922	661.75
1571.403402	662.5
1571.914827	662.0
1572.426198	661.5
1572.937515	660.5
1573.448777	661.0
1573.959985	660.0
1574.471139	663.0
1574.982239	663.0
1575.493285	661.25
1576.004276	664.75
1576.515213	660.75
1577.026096	665.25
1577.536924	661.75
1578.047698	661.75
1578.558419	663.75
1579.069084	665.25
1579.579696	663.0
1580.090254	665.25
1580.600757	663.0
1581.111206	663.75
1581.621601	661.25
1582.131941	662.0
1582.642228	661.25
1583.15246	663.0
1583.662638	662.5
1584.172762	664.5
1584.682832	659.5
1585.192847	662.0
1585.702809	665.0
1586.212716	661.75
1586.722569	659.5
1587.232368	664.0
1587.742113	661.5
1588.251803	662.75
1588.76144	662.5
1589.271022	663.5
1589.78055	660.75
1590.290024	661.75
1590.799444	661.5
1591.30881	659.75
1591.818121	659.25
1592.327379	659.25
