1042.414189	700.0
1042.980685	700.25
1043.547124	703.25
1044.113505	703.5
1044.679828	699.5
1045.246093	698.25
1045.8123	701.75
1046.378449	691.25
1046.94454	697.25
1047.510573	697.25
1048.076548	693.0
1048.642465	691.0
1049.208325	689.0
1049.774126	686.25
1050.339869	691.75
1050.905555	689.5
1051.471183	688.25
1052.036752	683.5
1052.602264	681.25
1053.167718	683.75
1053.733114	681.25
1054.298452	679.5
1054.863733	681.75
1055.428955	681.25
1055.994119	684.75
1056.559226	685.0
1057.124275	680.0
1057.689266	682.75
1058.254199	679.5
1058.819074	685.25
1059.383891	682.25
1059.94865	680.25
1060.513352	682.75
1061.077996	682.0
1061.642582	681.0
1062.20711	677.25
1062.77158	681.0
1063.335992	684.5
1063.900347	684.25
1064.464643	681.5
1065.028882	682.75
1065.593063	678.75
1066.157187	677.5
1066.721252	680.25
1067.28526	681.25
1067.84921	678.25
1068.413102	681.25
1068.976936	677.25
1069.540713	679.75
1070.104431	687.5
1070.668092	680.5
1071.231696	679.0
1071.795241	682.0
1072.358729	676.25
1072.922159	681.5
1073.485531	678.0
1074.048845	678.25
1074.612102	678.0
1075.175301	680.25
1075.738442	680.75
1076.301525	676.75
1076.864551	675.0
1077.427519	676.75
1077.990429	680.5
1078.553281	682.0
1079.116076	676.25
1079.678813	678.25
1080.241492	676.75
1080.804114	677.0
1081.366678	678.5
1081.929184	676.25
1082.491633	678.5
1083.054024	678.5
1083.616357	678.0
1084.178632	679.5
1084.74085	677.25
1085.30301	676.0
1085.865113	677.5
1086.427158	678.0
1086.989145	675.0
1087.551074	679.25
1088.112946	675.75
1088.67476	674.0
1089.236517	677.0
1089.798216	677.5
1090.359857	675.25
1090.92144	676.75
1091.482966	678.0
1092.044435	676.75
1092.605845	677.0
1093.167199	674.5
1093.728494	672.5
1094.289732	678.0
1094.850912	675.5
1095.412035	694.75
1095.9731	676.5
1096.534107	675.5
1097.095057	682.0
1097.65595	674.5
1098.216784	673.5
1098.777561	676.0
1099.338281	675.5
1099.898943	673.75
1100.459547	671.75
1101.020094	672.75
1101.580584	672.75
1102.141015	672.0
1102.701389	673.0
1103.261706	674.75
1103.821965	675.75
1104.382167	674.0
1104.942311	677.5
1105.502397	676.5
1106.062426	675.5
1106.622398	678.0
1107.182312	677.25
1107.742168	672.25
1108.301967	675.5
1108.861708	673.5
1109.421392	676.25
1109.981019	676.75
1110.540587	675.0
1111.100099	674.5
1111.659553	673.5
1112.218949	673.5
1112.778288	670.75
1113.33757	675.25
1113.896794	673.25
1114.45596	675.5
1115.015069	672.75
1115.574121	674.0
1116.133115	673.75
1116.692052	674.5
1117.250931	671.75
1117.809753	670.5
1118.368517	673.75
1118.927224	670.0
1119.485873	676.75
1120.044465	671.0
1120.603	671.25
1121.161477	675.25
1121.719897	672.0
1122.278259	674.0
1122.836564	672.75
1123.394812	671.0
1123.953002	671.75
1124.511135	674.0
1125.06921	670.5
1125.627228	674.25
1126.185189	673.25
1126.743092	672.0
1127.300938	672.25
1127.858726	674.0
1128.416457	674.25
1128.974131	674.5
1129.531748	674.75
1130.089307	673.5
1130.646808	673.0
1131.204252	677.75
1131.761639	673.25
1132.318969	673.75
1132.876241	673.5
1133.433456	674.5
1133.990614	671.75
1134.547714	670.5
1135.104757	672.5
1135.661743	672.75
1136.218671	673.25
1136.775542	669.75
1137.332356	674.0
1137.889112	674.5
1138.445811	674.0
1139.002453	672.5
1139.559037	672.25
1140.115565	675.0
1140.672035	668.75
1141.228447	671.5
1141.784803	671.5
1142.341101	668.25
1142.897342	667.75
1143.453525	667.0
1144.009651	670.25
1144.565721	674.25
1145.121732	669.5
1145.677687	670.75
1146.233584	672.5
1146.789424	672.75
1147.345207	673.5
1147.900933	672.5
1148.456601	669.75
1149.012212	673.75
1149.567766	671.5
1150.123263	672.5
1150.678702	670.0
1151.234085	671.5
1151.78941	676.5
1152.344678	671.25
1152.899888	670.0
1153.455042	669.5
1154.010138	670.75
1154.565177	672.0
1155.120159	673.5
1155.675084	671.0
1156.229951	670.75
1156.784762	671.25
1157.339515	672.5
1157.894211	670.25
1158.44885	669.5
1159.003432	673.75
1159.557956	671.25
1160.112424	670.25
1160.666834	670.25
1161.221187	671.5
1161.775483	672.75
1162.329722	671.5
1162.883904	671.0
1163.438029	671.0
1163.992096	673.75
1164.546107	670.5
1165.10006	671.75
1165.653956	668.5
1166.207795	673.0
1166.761577	672.75
1167.315302	671.25
1167.86897	670.5
1168.422581	670.5
1168.976134	672.25
1169.529631	673.0
1170.08307	667.5
1170.636453	668.25
1171.189778	673.0
1171.743046	671.0
1172.296257	670.75
1172.849412	666.75
1173.402509	669.75
1173.955549	672.75
1174.508532	673.5
1175.061458	671.0
1175.614327	671.0
1176.167138	671.0
1176.719893	671.0
1177.272591	671.0
1177.825232	668.75
1178.377816	673.0
1178.930342	674.75
1179.482812	671.75
1180.035225	667.5
1180.587581	669.25
1181.139879	671.0
1181.692121	667.75
1182.244306	672.5
1182.796434	668.75
1183.348504	672.0
1183.900518	672.5
1184.452475	672.25
1185.004375	672.25
1185.556218	671.0
1186.108004	673.75
1186.659733	672.0
1187.211405	671.25
1187.76302	671.25
1188.314578	672.0
1188.866079	671.75
1189.417523	671.25
1189.96891	668.25
1190.520241	670.5
1191.071514	670.5
1191.622731	673.0
1192.17389	670.75
1192.724993	670.75
1193.276039	689.0
1193.827027	672.5
1194.377959	670.5
1194.928834	669.25
1195.479653	668.0
1196.030414	672.0
1196.581118	670.25
1197.131766	670.0
1197.682356	670.25
1198.23289	674.25
1198.783367	665.25
1199.333786	667.5
1199.88415	670.25
1200.434456	668.25
1200.984705	669.0
1201.534898	670.5
1202.085033	673.0
1202.635112	671.0
1203.185134	672.25
1203.735099	670.25
1204.285007	668.0
1204.834859	669.75
1205.384653	667.25
1205.934391	671.5
1206.484072	669.25
1207.033696	668.25
1207.583263	670.75
1208.132774	669.75
1208.682228	671.75
1209.231624	671.25
1209.780965	671.75
1210.330248	667.75
1210.879474	671.75
1211.428644	667.5
1211.977757	668.75
1212.526813	671.0
1213.075813	667.5
1213.624755	670.25
1214.173641	671.0
1214.72247	668.75
1215.271242	670.5
1215.819958	668.75
1216.368617	670.0
1216.917219	668.25
1217.465764	671.25
1218.014253	669.0
1218.562685	671.0
1219.11106	665.75
1219.659378	672.75
1220.20764	671.0
1220.755845	669.25
1221.303993	667.75
1221.852085	670.25
1222.400119	670.5
1222.948097	670.25
1223.496019	666.0
1224.043883	672.75
1224.591691	671.75
1225.139443	672.75
1225.687137	670.75
1226.234775	670.25
1226.782357	670.0
1227.329881	672.0
1227.877349	669.75
1228.42476	668.25
1228.972115	668.25
1229.519413	667.5
1230.066654	669.25
1230.613839	670.75
1231.160967	672.5
1231.708038	674.5
1232.255053	671.25
1232.802011	669.5
1233.348912	670.0
1233.895757	671.25
1234.442545	668.0
1234.989277	671.75
1235.535951	671.0
1236.08257	671.75
1236.629131	669.5
1237.175636	670.5
1237.722085	671.0
1238.268477	671.0
1238.814812	672.5
1239.361091	666.75
1239.907313	670.5
1240.453478	670.0
1240.999587	671.5
1241.54564	667.25
1242.091636	670.5
1242.637575	669.0
1243.183457	666.25
1243.729284	667.5
1244.275053	669.75
1244.820766	671.25
1245.366423	674.5
1245.912022	669.75
1246.457566	670.75
1247.003053	670.75
1247.548483	670.75
1248.093857	672.5
1248.639174	668.5
1249.184435	671.75
1249.729639	672.0
1250.274787	670.5
1250.819878	669.5
1251.364912	668.25
1251.909891	669.5
1252.454812	672.25
1252.999677	670.75
1253.544486	668.25
1254.089238	670.5
1254.633934	669.5
1255.178573	671.5
1255.723156	667.0
1256.267682	669.5
1256.812152	670.0
1257.356565	672.0
1257.900922	669.0
1258.445223	670.25
1258.989467	670.0
1259.533654	671.0
1260.077785	689.0
1260.62186	669.75
1261.165878	669.5
1261.70984	670.5
1262.253745	671.5
1262.797594	670.5
1263.341386	673.75
1263.885123	674.0
1264.428802	679.75
1264.972425	676.75
1265.515992	675.25
1266.059503	675.0
1266.602957	672.5
1267.146354	671.75
1267.689696	671.25
1268.23298	671.5
1268.776209	669.75
1269.319381	672.5
1269.862497	673.5
1270.405556	670.5
1270.948559	671.0
1271.491506	673.0
1272.034396	668.0
1272.57723	672.0
1273.120007	669.25
1273.662728	667.5
1274.205393	672.25
1274.748002	671.75
1275.290554	671.25
1275.83305	671.75
1276.375489	670.0
1276.917872	670.0
1277.460199	673.25
1278.00247	672.0
1278.544684	669.75
1279.086842	673.5
1279.628943	669.75
1280.170989	670.75
1280.712978	667.75
1281.25491	673.0
1281.796787	671.75
1282.338607	674.0
1282.880371	677.75
1283.422078	683.0
1283.963729	692.5
1284.505324	729.75
1285.046863	760.25
1285.588345	740.75
1286.129772	696.25
1286.671142	685.0
1287.212455	674.0
1287.753713	674.75
1288.294914	673.0
1288.836059	673.5
1289.377147	669.25
1289.91818	670.0
1290.459156	670.25
1291.000076	669.5
1291.54094	672.25
1292.081747	670.25
1292.622499	669.5
1293.163194	668.0
1293.703833	670.0
1294.244415	669.0
1294.784942	667.25
1295.325412	670.75
1295.865826	670.5
1296.406184	668.0
1296.946486	672.75
1297.486731	667.75
1298.026921	672.25
1298.567054	668.75
1299.107131	668.25
1299.647152	669.5
1300.187116	671.75
1300.727025	668.0
1301.266877	670.5
1301.806673	668.75
1302.346413	668.25
1302.886097	668.75
1303.425725	667.75
1303.965297	670.0
1304.504812	670.75
1305.044272	669.75
1305.583675	672.5
1306.123022	670.25
1306.662313	670.0
1307.201548	668.25
1307.740727	669.5
1308.279849	669.5
1308.818916	671.25
1309.357926	668.0
1309.896881	674.0
1310.435779	668.75
1310.974621	664.75
1311.513407	672.5
1312.052137	669.25
1312.590811	670.25
1313.129429	668.75
1313.667991	672.5
1314.206497	670.25
1314.744946	666.5
1315.28334	670.0
1315.821678	668.75
1316.359959	673.25
1316.898184	671.0
1317.436354	670.25
1317.974467	671.0
1318.512525	671.0
1319.050526	670.25
1319.588471	672.75
1320.12636	670.25
1320.664194	672.0
1321.201971	668.5
1321.739692	670.5
1322.277357	668.0
1322.814967	670.0
1323.35252	699.75
1324.964843	676.0
1325.502173	669.75
1326.039446	668.75
1326.576663	668.75
1327.113824	668.75
1327.65093	671.5
1328.187979	673.25
1328.724972	668.25
1329.26191	668.25
1329.798791	666.5
1330.335617	669.0
1330.872386	668.5
1331.4091	668.25
1331.945758	669.75
1332.48236	668.75
1333.018905	671.5
1333.555395	671.0
1334.091829	669.75
1334.628207	666.0
1335.164529	672.0
1335.700796	671.75
1336.237006	668.5
1336.77316	670.5
1337.309259	669.75
1337.845301	668.25
1338.381288	669.75
1338.917219	669.5
1339.453094	669.5
1339.988913	666.0
1340.524676	666.25
1341.060383	668.25
1341.596034	667.0
1342.13163	667.25
1342.66717	668.5
1343.202653	668.5
1343.738081	670.75
1344.273453	669.25
1344.80877	667.5
1345.34403	672.75
1345.879235	668.25
1346.414383	667.25
1346.949476	670.5
1347.484513	668.25
1348.019494	671.5
1348.55442	670.75
1349.089289	669.25
1349.624103	669.0
1350.158861	668.0
1350.693563	668.75
1351.228209	670.0
1351.7628	666.0
1352.297334	667.25
1352.831813	670.25
1353.366236	667.75
1353.900604	668.5
1354.434915	667.25
1354.969171	667.0
1355.503371	670.25
1356.037515	667.0
1356.571604	669.25
1357.105636	669.25
1357.639613	670.0
1358.173535	670.75
1358.7074	670.75
1359.24121	668.0
1359.774964	670.5
1360.308662	672.0
1360.842304	670.25
1361.375891	669.5
1361.909422	670.25
1362.442897	672.25
1362.976317	669.5
1363.50968	668.5
1364.042989	669.75
1364.576241	670.0
1365.109438	668.75
1365.642579	672.25
1366.175664	669.0
1366.708693	668.0
1367.241667	671.5
1367.774585	667.5
1368.307448	669.0
1368.840255	670.75
1369.373006	670.75
1369.905701	672.0
1370.438341	674.5
1370.970925	673.0
1371.503454	672.0
1372.035926	666.5
1372.568344	669.75
1373.100705	669.75
1373.633011	668.25
1374.165261	670.5
1374.697456	670.0
1375.229595	669.25
1375.761678	670.75
1376.293705	671.0
1376.825677	668.25
1377.357594	668.75
1377.889455	671.25
1378.42126	669.0
1378.953009	671.0
1379.484703	667.0
1380.016342	670.75
1380.547924	668.25
1381.079452	670.75
1381.610923	671.5
1382.142339	667.5
1382.673699	671.25
1383.205004	671.75
1383.736253	670.5
1384.267447	670.5
1384.798585	671.25
1385.329668	670.75
1385.860695	672.75
1386.391666	674.5
1386.922582	687.25
1387.453442	696.75
1387.984247	752.5
1388.514996	850.25
1389.04569	797.25
1389.576328	707.5
1390.10691	682.5
1390.637437	675.25
1391.167909	673.75
1391.698325	672.0
1392.228685	670.75
1392.75899	674.25
1393.28924	670.75
1393.819434	676.25
1394.349572	672.5
1394.879655	668.0
1395.409683	673.25
1395.939655	672.0
1396.469571	669.75
1396.999432	671.0
1397.529237	668.5
1398.058987	670.5
1398.588682	670.0
1399.118321	671.25
1399.647905	669.75
1400.177433	673.25
1400.706906	671.75
1401.236323	666.25
1401.765685	667.0
1402.294991	669.0
1402.824242	668.0
1403.353437	670.0
1403.882577	668.5
1404.411662	670.25
1404.940691	670.25
1405.469665	667.25
1405.998583	672.75
1406.527446	667.5
1407.056253	670.5
1407.585005	669.25
1408.113702	674.25
1408.642343	672.0
1409.170929	673.75
1409.69946	682.5
1410.227935	678.5
1410.756354	675.0
1411.284719	673.75
1411.813028	673.0
1412.341281	668.5
1412.869479	671.75
1413.397622	668.75
1413.92571	667.75
1414.453742	671.0
1414.981718	666.75
1415.50964	683.0
1416.037506	670.0
1416.565316	668.75
1417.093072	668.75
1417.620772	669.25
1418.148416	667.0
1418.676005	670.25
1419.203539	669.5
1419.731018	668.0
1420.258441	670.25
1420.785809	673.25
1421.313122	667.0
1421.840379	668.75
1422.367582	668.0
1422.894728	668.0
1423.42182	668.25
1423.948856	671.0
1424.475837	668.25
1425.002762	667.75
1425.529633	668.0
1426.056448	672.5
1426.583207	667.0
1427.109912	670.5
1427.636561	670.75
1428.163155	669.75
1428.689694	668.75
1429.216177	669.75
1429.742605	669.5
1430.268978	669.25
1430.795296	671.25
1431.321558	673.5
1431.847765	667.25
1432.373917	672.75
1432.900014	667.0
1433.426056	671.0
1433.952042	668.75
1434.477973	670.0
1435.003849	667.25
1435.529669	669.25
1436.055435	669.75
1436.581145	669.25
1437.1068	669.25
1437.632399	666.0
1438.157944	670.25
1438.683433	670.0
1439.208868	667.5
1439.734247	667.0
1440.25957	668.0
1440.784839	670.5
1441.310053	669.0
1441.835211	671.0
1442.360314	666.25
1442.885362	671.5
1443.410355	667.25
1443.935292	670.0
1444.460175	671.0
1444.985002	666.75
1445.509774	670.5
1446.034491	668.75
1446.559153	669.75
1447.08376	666.75
1447.608312	668.5
1448.132808	667.5
1448.65725	667.0
1449.181636	668.0
1449.705967	669.75
1450.230243	669.25
1450.754464	669.25
1451.27863	668.5
1451.802741	668.75
1452.326797	669.5
1452.850797	670.25
1453.374743	672.5
1453.898633	669.0
1454.422468	667.5
1454.946249	665.75
1455.469974	667.5
1455.993644	667.75
1456.517259	666.5
1457.040819	667.25
1457.564324	670.0
1458.087773	667.75
1458.611168	669.5
1459.134508	667.5
1459.657793	666.25
1460.181022	668.75
1460.704197	670.0
1461.227316	671.75
1461.750381	665.0
1462.27339	673.0
1462.796345	686.5
1463.319244	687.25
1463.842089	671.0
1464.364878	667.5
1464.887613	670.25
1465.410292	669.5
1465.932916	667.0
1466.455486	669.5
1466.978	666.5
1467.50046	668.25
1468.022864	669.25
1468.545214	667.75
1469.067508	672.0
1469.589748	666.5
1470.111932	669.5
1470.634062	666.5
1471.156136	670.5
1471.678156	670.0
1472.20012	671.0
1472.72203	667.5
1473.243885	665.75
1473.765685	668.0
1474.28743	669.25
1474.80912	668.0
1475.330755	666.75
1475.852335	667.5
1476.37386	669.5
1476.89533	667.25
1477.416745	668.25
1477.938106	670.75
1478.459411	665.5
1478.980662	668.0
1479.501857	669.25
1480.022998	666.5
1480.544084	667.25
1481.065115	667.0
1481.586091	667.5
1482.107012	666.75
1482.627878	668.25
1483.14869	668.0
1483.669446	664.0
1484.190148	666.25
1484.710794	669.0
1485.231386	667.75
1485.751923	667.25
1486.272406	667.75
1486.792833	668.0
1487.313205	667.75
1487.833523	669.75
1488.353786	668.0
1488.873994	666.0
1489.394147	668.75
1489.914245	668.5
1490.434288	669.25
1490.954277	669.5
1491.474211	670.75
1491.99409	667.25
1492.513914	667.0
1493.033683	664.75
1493.553398	668.75
1494.073057	667.25
1494.592662	667.5
1495.112212	667.75
1495.631708	668.75
1496.151148	670.25
1496.670534	664.75
1497.189865	665.0
1497.709141	666.5
1498.228362	669.25
1498.747529	670.25
1499.266641	669.0
1499.785698	679.5
1500.3047	668.75
1500.823648	669.0
1501.34254	668.0
1501.861379	669.0
1502.380162	666.0
1502.89889	668.0
1503.417564	668.0
1503.936183	669.0
1504.454748	670.25
1504.973257	666.25
1505.491712	669.0
1506.010112	666.75
1506.528458	665.75
1507.046748	668.75
1507.564984	667.0
1508.083166	668.25
1508.601292	669.25
1509.119364	668.5
1509.637381	667.5
1510.155344	668.25
1510.673252	679.5
1511.191105	668.0
1511.708903	668.75
1512.226647	668.75
1512.744336	667.75
1513.261971	667.75
1513.77955	667.5
1514.297076	665.75
1514.814546	670.25
1515.331962	667.75
1515.849323	670.25
1516.366629	669.25
1516.883881	665.75
1517.401078	666.25
1517.918221	669.5
1518.435309	666.75
1518.952342	669.5
1519.469321	663.75
1519.986245	669.0
1520.503114	668.0
1521.019929	672.25
1521.536689	666.75
1522.053395	669.5
1522.570046	670.75
1523.086642	668.5
1523.603184	668.0
1524.119671	666.75
1524.636103	664.5
1525.152481	670.25
1525.668805	678.5
1526.185073	686.25
1526.701288	671.75
1527.217447	667.0
1527.733552	666.0
1528.249603	667.25
1528.765599	668.0
1529.28154	670.25
1529.797427	670.25
1530.313259	667.75
1530.829037	669.0
1531.34476	667.75
1531.860429	669.25
1532.376043	668.0
1532.891602	671.5
1533.407107	669.0
1533.922558	667.5
1534.437954	669.25
1534.953295	668.25
1535.468582	669.5
1535.983815	668.25
1536.498993	669.25
1537.014116	667.5
1537.529185	670.0
1538.044199	669.75
1538.559159	670.5
1539.074064	667.0
1539.588915	667.0
1540.103712	668.0
1540.618454	668.0
1541.133141	668.75
1541.647774	669.75
1542.162353	665.75
1542.676877	667.75
1543.191346	669.25
1543.705761	667.5
1544.220122	668.5
1544.734428	669.75
1545.24868	670.75
1545.762877	670.25
1546.27702	669.75
1546.791109	669.5
1547.305143	667.75
1547.819122	667.0
1548.333047	670.0
1548.846918	668.75
1549.360734	670.25
1549.874496	671.5
1550.388204	668.75
1550.901857	666.5
1551.415455	670.75
1551.929	673.5
1552.442489	665.25
1552.955925	670.0
1553.469306	669.75
1553.982632	669.25
1554.495905	670.25
1555.009123	668.25
1555.522286	669.25
1556.035395	666.75
1556.54845	664.5
1557.06145	669.75
1557.574396	671.0
1558.087288	670.25
1558.600125	669.75
1559.112908	668.75
1559.625637	668.5
1560.138311	669.75
1560.650931	668.5
1561.163497	668.75
1561.676008	669.0
1562.188465	671.75
1562.700867	668.0
1563.213216	667.25
1563.725509	670.75
1564.237749	670.0
1564.749934	669.75
1565.262065	668.5
1565.774142	671.5
1566.286164	670.75
1566.798132	669.5
1567.310046	671.0
1567.821906	672.5
1568.333711	669.75
1568.845462	670.0
1569.357158	669.5
1569.868801	668.5
1570.380389	671.75
1570.891922	670.5
1571.403402	669.0
1571.914827	669.75
1572.426198	670.25
1572.937515	666.25
1573.448777	669.25
1573.959985	669.25
1574.471139	668.25
1574.982239	668.75
1575.493285	667.0
1576.004276	669.25
1576.515213	667.75
1577.026096	667.25
1577.536924	666.5
1578.047698	669.75
1578.558419	668.0
1579.069084	672.25
1579.579696	666.5
1580.090254	666.75
1580.600757	669.5
1581.111206	668.75
1581.621601	668.75
1582.131941	667.5
1582.642228	668.5
1583.15246	668.0
1583.662638	668.75
1584.172762	668.75
1584.682832	669.75
1585.192847	668.25
1585.702809	669.75
1586.212716	671.75
1586.722569	666.75
1587.232368	666.25
1587.742113	668.5
1588.251803	668.75
1588.76144	671.25
1589.271022	665.75
1589.78055	668.75
1590.290024	669.25
1590.799444	670.5
1591.30881	666.75
1591.818121	670.25
1592.327379	666.0
