1042.414189	709.0
1042.980685	705.5
1043.547124	701.0
1044.113505	702.0
1044.679828	697.25
1045.246093	695.5
1045.8123	694.5
1046.378449	694.75
1046.94454	695.5
1047.510573	690.75
1048.076548	691.0
1048.642465	689.0
1049.208325	693.5
1049.774126	689.5
1050.339869	694.75
1050.905555	689.75
1051.471183	688.25
1052.036752	688.25
1052.602264	684.0
1053.167718	686.0
1053.733114	689.5
1054.298452	684.25
1054.863733	685.5
1055.428955	684.0
1055.994119	683.5
1056.559226	686.5
1057.124275	682.0
1057.689266	682.0
1058.254199	686.25
1058.819074	686.25
1059.383891	680.75
1059.94865	680.75
1060.513352	680.75
1061.077996	683.0
1061.642582	682.25
1062.20711	680.5
1062.77158	681.75
1063.335992	682.25
1063.900347	677.0
1064.464643	683.0
1065.028882	680.25
1065.593063	685.25
1066.157187	682.75
1066.721252	679.5
1067.28526	680.0
1067.84921	677.75
1068.413102	679.0
1068.976936	677.75
1069.540713	682.75
1070.104431	686.75
1070.668092	679.5
1071.231696	680.25
1071.795241	678.25
1072.358729	675.75
1072.922159	679.75
1073.485531	677.25
1074.048845	684.75
1074.612102	678.75
1075.175301	679.5
1075.738442	678.75
1076.301525	677.25
1076.864551	679.75
1077.427519	678.0
1077.990429	676.25
1078.553281	680.0
1079.116076	677.0
1079.678813	681.25
1080.241492	677.75
1080.804114	679.75
1081.366678	676.75
1081.929184	676.25
1082.491633	677.25
1083.054024	677.25
1083.616357	675.5
1084.178632	681.75
1084.74085	677.5
1085.30301	674.5
1085.865113	675.25
1086.427158	677.75
1086.989145	674.0
1087.551074	677.0
1088.112946	676.75
1088.67476	678.5
1089.236517	674.25
1089.798216	675.75
1090.359857	677.25
1090.92144	677.75
1091.482966	673.5
1092.044435	676.5
1092.605845	678.75
1093.167199	677.0
1093.728494	676.75
1094.289732	674.25
1094.850912	677.25
1095.412035	694.25
1095.9731	676.25
1096.534107	677.5
1097.095057	683.0
1097.65595	674.5
1098.216784	672.5
1098.777561	675.25
1099.338281	678.5
1099.898943	674.25
1100.459547	675.0
1101.020094	675.25
1101.580584	676.25
1102.141015	674.5
1102.701389	676.75
1103.261706	672.5
1103.821965	676.5
1104.382167	673.25
1104.942311	677.0
1105.502397	673.75
1106.062426	678.5
1106.622398	671.5
1107.182312	673.25
1107.742168	674.0
1108.301967	676.25
1108.861708	671.75
1109.421392	676.75
1109.981019	673.0
1110.540587	674.5
1111.100099	675.75
1111.659553	675.0
1112.218949	678.5
1112.778288	675.5
1113.33757	672.75
1113.896794	672.5
1114.45596	673.25
1115.015069	673.75
1115.574121	675.0
1116.133115	673.25
1116.692052	674.25
1117.250931	673.75
1117.809753	671.75
1118.368517	673.0
1118.927224	676.5
1119.485873	674.25
1120.044465	673.75
1120.603	672.75
1121.161477	674.25
1121.719897	671.75
1122.278259	672.25
1122.836564	676.25
1123.394812	672.0
1123.953002	674.5
1124.511135	673.0
1125.06921	673.5
1125.627228	672.75
1126.185189	674.25
1126.743092	675.75
1127.300938	672.75
1127.858726	671.25
1128.416457	671.5
1128.974131	670.0
1129.531748	675.75
1130.089307	673.0
1130.646808	675.75
1131.204252	674.0
1131.761639	673.75
1132.318969	672.25
1132.876241	672.25
1133.433456	674.5
1133.990614	673.5
1134.547714	673.5
1135.104757	677.25
1135.661743	671.75
1136.218671	669.5
1136.775542	672.5
1137.332356	668.25
1137.889112	673.5
1138.445811	674.0
1139.002453	671.0
1139.559037	675.75
1140.115565	672.25
1140.672035	672.0
1141.228447	671.25
1141.784803	673.25
1142.341101	674.75
1142.897342	671.0
1143.453525	671.0
1144.009651	674.75
1144.565721	672.25
1145.121732	669.0
1145.677687	672.0
1146.233584	670.75
1146.789424	674.75
1147.345207	675.5
1147.900933	671.75
1148.456601	672.0
1149.012212	669.0
1149.567766	668.0
1150.123263	671.5
1150.678702	672.25
1151.234085	673.0
1151.78941	672.0
1152.344678	673.75
1152.899888	673.5
1153.455042	674.0
1154.010138	673.5
1154.565177	674.0
1155.120159	672.75
1155.675084	669.5
1156.229951	673.0
1156.784762	672.0
1157.339515	672.5
1157.894211	673.0
1158.44885	673.75
1159.003432	673.5
1159.557956	672.0
1160.112424	670.0
1160.666834	671.75
1161.221187	668.75
1161.775483	673.0
1162.329722	672.25
1162.883904	671.25
1163.438029	671.25
1163.992096	674.25
1164.546107	670.75
1165.10006	674.0
1165.653956	671.5
1166.207795	672.25
1166.761577	673.25
1167.315302	671.25
1167.86897	666.5
1168.422581	669.25
1168.976134	669.25
1169.529631	669.5
1170.08307	669.25
1170.636453	672.5
1171.189778	672.25
1171.743046	670.0
1172.296257	672.0
1172.849412	673.25
1173.402509	668.75
1173.955549	673.5
1174.508532	669.5
1175.061458	672.0
1175.614327	668.75
1176.167138	668.5
1176.719893	673.25
1177.272591	669.25
1177.825232	673.75
1178.377816	668.75
1178.930342	671.5
1179.482812	670.25
1180.035225	673.75
1180.587581	670.0
1181.139879	671.75
1181.692121	670.5
1182.244306	669.5
1182.796434	673.25
1183.348504	672.75
1183.900518	671.25
1184.452475	670.5
1185.004375	670.25
1185.556218	672.25
1186.108004	672.25
1186.659733	669.0
1187.211405	668.75
1187.76302	671.25
1188.314578	672.5
1188.866079	669.25
1189.417523	672.25
1189.96891	670.5
1190.520241	669.5
1191.071514	671.75
1191.622731	671.75
1192.17389	669.0
1192.724993	671.25
1193.276039	690.75
1193.827027	671.75
1194.377959	670.25
1194.928834	672.25
1195.479653	669.75
1196.030414	671.0
1196.581118	670.5
1197.131766	671.75
1197.682356	671.75
1198.23289	669.0
1198.783367	670.75
1199.333786	673.0
1199.88415	667.25
1200.434456	667.5
1200.984705	671.75
1201.534898	669.0
1202.085033	671.0
1202.635112	669.75
1203.185134	669.5
1203.735099	669.75
1204.285007	670.5
1204.834859	671.5
1205.384653	669.25
1205.934391	671.75
1206.484072	671.25
1207.033696	667.5
1207.583263	668.0
1208.132774	669.75
1208.682228	670.25
1209.231624	670.0
1209.780965	672.25
1210.330248	669.75
1210.879474	672.5
1211.428644	671.0
1211.977757	672.0
1212.526813	666.25
1213.075813	670.5
1213.624755	674.25
1214.173641	668.5
1214.72247	671.5
1215.271242	670.0
1215.819958	667.5
1216.368617	674.0
1216.917219	670.5
1217.465764	671.25
1218.014253	669.0
1218.562685	669.5
1219.11106	669.75
1219.659378	673.25
1220.20764	669.25
1220.755845	671.5
1221.303993	673.5
1221.852085	671.25
1222.400119	671.0
1222.948097	669.5
1223.496019	672.0
1224.043883	670.5
1224.591691	672.25
1225.139443	672.0
1225.687137	668.75
1226.234775	670.5
1226.782357	675.0
1227.329881	671.0
1227.877349	668.5
1228.42476	670.75
1228.972115	672.5
1229.519413	672.0
1230.066654	671.75
1230.613839	671.25
1231.160967	673.0
1231.708038	673.5
1232.255053	667.75
1232.802011	675.25
1233.348912	672.25
1233.895757	669.0
1234.442545	670.0
1234.989277	667.5
1235.535951	669.25
1236.08257	668.5
1236.629131	669.25
1237.175636	670.0
1237.722085	671.25
1238.268477	668.75
1238.814812	671.5
1239.361091	671.0
1239.907313	669.25
1240.453478	668.75
1240.999587	670.0
1241.54564	671.5
1242.091636	668.0
1242.637575	669.5
1243.183457	672.0
1243.729284	670.75
1244.275053	670.0
1244.820766	670.0
1245.366423	670.75
1245.912022	671.75
1246.457566	672.0
1247.003053	671.75
1247.548483	670.25
1248.093857	673.5
1248.639174	669.75
1249.184435	670.75
1249.729639	669.75
1250.274787	671.25
1250.819878	673.0
1251.364912	671.25
1251.909891	668.75
1252.454812	670.5
1252.999677	670.5
1253.544486	671.5
1254.089238	669.75
1254.633934	668.5
1255.178573	668.25
1255.723156	671.75
1256.267682	670.75
1256.812152	667.5
1257.356565	672.5
1257.900922	668.5
1258.445223	673.0
1258.989467	671.0
1259.533654	669.25
1260.077785	687.25
1260.62186	669.5
1261.165878	671.25
1261.70984	672.75
1262.253745	672.5
1262.797594	671.0
1263.341386	672.0
1263.885123	670.5
1264.428802	675.25
1264.972425	679.25
1265.515992	684.0
1266.059503	681.5
1266.602957	675.25
1267.146354	670.75
1267.689696	676.0
1268.23298	673.75
1268.776209	671.5
1269.319381	673.0
1269.862497	670.25
1270.405556	672.25
1270.948559	670.5
1271.491506	669.25
1272.034396	673.0
1272.57723	672.0
1273.120007	671.25
1273.662728	667.75
1274.205393	671.5
1274.748002	666.5
1275.290554	673.25
1275.83305	672.75
1276.375489	671.5
1276.917872	670.25
1277.460199	674.0
1278.00247	669.0
1278.544684	669.75
1279.086842	668.75
1279.628943	671.5
1280.170989	674.75
1280.712978	670.0
1281.25491	670.0
1281.796787	673.0
1282.338607	673.75
1282.880371	674.5
1283.422078	677.25
1283.963729	683.0
1284.505324	697.75
1285.046863	762.0
1285.588345	854.5
1286.129772	785.5
1286.671142	703.0
1287.212455	680.0
1287.753713	678.0
1288.294914	676.75
1288.836059	672.5
1289.377147	672.5
1289.91818	671.75
1290.459156	670.25
1291.000076	672.0
1291.54094	671.5
1292.081747	672.75
1292.622499	671.5
1293.163194	671.5
1293.703833	671.0
1294.244415	672.25
1294.784942	670.75
1295.325412	669.0
1295.865826	671.5
1296.406184	671.25
1296.946486	672.75
1297.486731	671.75
1298.026921	670.25
1298.567054	671.75
1299.107131	671.0
1299.647152	671.25
1300.187116	673.75
1300.727025	674.75
1301.266877	668.75
1301.806673	669.0
1302.346413	670.75
1302.886097	670.5
1303.425725	673.5
1303.965297	672.0
1304.504812	672.75
1305.044272	671.25
1305.583675	673.25
1306.123022	669.25
1306.662313	670.0
1307.201548	670.5
1307.740727	671.75
1308.279849	671.5
1308.818916	672.0
1309.357926	671.75
1309.896881	671.75
1310.435779	673.75
1310.974621	668.75
1311.513407	667.0
1312.052137	672.25
1312.590811	671.5
1313.129429	668.25
1313.667991	667.25
1314.206497	671.25
1314.744946	672.0
1315.28334	667.25
1315.821678	670.25
1316.359959	670.0
1316.898184	669.0
1317.436354	673.75
1317.974467	671.0
1318.512525	668.0
1319.050526	670.25
1319.588471	671.5
1320.12636	671.25
1320.664194	672.0
1321.201971	671.25
1321.739692	670.25
1322.277357	671.25
1322.814967	667.25
1323.35252	671.75
1323.890017	676.75
1324.427458	672.25
1324.964843	668.0
1325.502173	671.25
1326.039446	672.5
1326.576663	670.25
1327.113824	671.0
1327.65093	669.75
1328.187979	671.25
1328.724972	669.5
1329.26191	672.5
1329.798791	671.25
1330.335617	668.5
1330.872386	672.0
1331.4091	669.5
1331.945758	671.25
1332.48236	669.0
1333.018905	671.25
1333.555395	671.0
1334.091829	672.5
1334.628207	669.25
1335.164529	671.5
1335.700796	669.5
1336.237006	674.25
1336.77316	670.0
1337.309259	670.5
1337.845301	669.25
1338.381288	667.5
1338.917219	670.25
1339.453094	670.75
1339.988913	672.75
1340.524676	668.5
1341.060383	669.75
1341.596034	667.25
1342.13163	670.0
1342.66717	672.75
1343.202653	667.75
1343.738081	671.5
1344.273453	671.75
1344.80877	669.75
1345.34403	671.0
1345.879235	669.75
1346.414383	669.25
1346.949476	669.5
1347.484513	670.0
1348.019494	669.75
1348.55442	670.75
1349.089289	669.75
1349.624103	669.75
1350.158861	670.25
1350.693563	668.75
1351.228209	670.25
1351.7628	670.75
1352.297334	674.0
1352.831813	670.0
1353.366236	669.25
1353.900604	668.5
1354.434915	670.5
1354.969171	670.25
1355.503371	670.75
1356.037515	669.75
1356.571604	668.75
1357.105636	671.75
1357.639613	672.0
1358.173535	671.5
1358.7074	668.5
1359.24121	669.0
1359.774964	672.75
1360.308662	670.25
1360.842304	670.5
1361.375891	671.0
1361.909422	670.5
1362.442897	671.75
1362.976317	667.75
1363.50968	672.25
1364.042989	671.25
1364.576241	669.25
1365.109438	673.5
1365.642579	671.25
1366.175664	672.5
1366.708693	671.25
1367.241667	670.25
1367.774585	670.5
1368.307448	668.5
1368.840255	669.75
1369.373006	669.0
1369.905701	672.25
1370.438341	673.0
1370.970925	674.5
1371.503454	671.75
1372.035926	670.5
1372.568344	669.25
1373.100705	672.5
1373.633011	670.0
1374.165261	669.5
1374.697456	670.5
1375.229595	673.0
1375.761678	671.75
1376.293705	672.25
1376.825677	673.25
1377.357594	669.5
1377.889455	670.0
1378.42126	672.75
1378.953009	672.0
1379.484703	670.75
1380.016342	668.5
1380.547924	669.5
1381.079452	670.5
1381.610923	669.25
1382.142339	672.5
1382.673699	673.0
1383.205004	670.0
1383.736253	672.5
1384.267447	671.75
1384.798585	673.25
1385.329668	670.5
1385.860695	671.5
1386.391666	676.25
1386.922582	679.0
1387.453442	683.0
1387.984247	720.5
1388.514996	865.75
1389.04569	970.25
1389.576328	774.75
1390.10691	693.75
1390.637437	676.5
1391.167909	672.5
1391.698325	677.0
1392.228685	673.75
1392.75899	669.5
1393.28924	672.75
1393.819434	673.5
1394.349572	671.25
1394.879655	671.75
1395.409683	672.0
1395.939655	672.75
1396.469571	672.0
1396.999432	670.5
1397.529237	671.25
1398.058987	671.0
1398.588682	673.0
1399.118321	673.0
1399.647905	672.75
1400.177433	670.5
1400.706906	669.75
1401.236323	669.25
1401.765685	669.5
1402.294991	672.0
1402.824242	671.75
1403.353437	671.25
1403.882577	671.5
1404.411662	668.5
1404.940691	672.0
1405.469665	670.75
1405.998583	670.25
1407.585005	676.5
1408.113702	669.75
1408.642343	674.0
1409.170929	675.75
1409.69946	682.25
1410.227935	694.0
1410.756354	685.75
1411.284719	679.25
1411.813028	673.0
1412.341281	669.75
1412.869479	669.75
1413.397622	673.5
1413.92571	669.0
1414.453742	672.5
1414.981718	671.75
1415.50964	681.0
1416.037506	668.25
1416.565316	672.25
1417.093072	665.0
1417.620772	670.25
1418.148416	668.0
1418.676005	669.75
1419.203539	670.0
1419.731018	669.75
1420.258441	668.75
1420.785809	669.25
1421.313122	668.5
1421.840379	670.5
1422.367582	671.5
1422.894728	666.25
1423.42182	671.5
1423.948856	669.0
1424.475837	668.0
1425.002762	666.75
1425.529633	670.75
1426.056448	672.75
1426.583207	671.5
1427.109912	669.5
1427.636561	668.75
1428.163155	671.25
1428.689694	670.5
1429.216177	668.75
1429.742605	671.0
1430.268978	671.75
1430.795296	670.75
1431.321558	668.5
1431.847765	675.25
1432.373917	668.25
1432.900014	671.0
1433.426056	671.75
1433.952042	670.25
1434.477973	670.5
1435.003849	669.25
1435.529669	669.0
1436.055435	670.25
1436.581145	670.75
1437.1068	669.0
1437.632399	670.5
1438.157944	671.25
1438.683433	668.25
1439.208868	668.0
1439.734247	670.25
1440.25957	671.25
1440.784839	668.75
1441.310053	668.75
1441.835211	672.75
1442.360314	671.25
1442.885362	671.75
1443.410355	667.25
1443.935292	670.0
1444.460175	668.25
1444.985002	667.0
1445.509774	670.75
1446.034491	670.5
1446.559153	672.5
1447.08376	672.25
1447.608312	671.25
1448.132808	667.5
1448.65725	670.0
1449.181636	670.5
1449.705967	670.5
1450.230243	668.0
1450.754464	667.75
1451.27863	667.25
1451.802741	668.25
1452.326797	669.5
1452.850797	669.75
1453.374743	667.75
1453.898633	669.0
1454.422468	669.0
1454.946249	671.5
1455.469974	668.75
1455.993644	672.5
1456.517259	666.75
1457.040819	668.5
1457.564324	672.5
1458.087773	670.0
1458.611168	670.0
1459.134508	670.0
1459.657793	667.5
1460.181022	669.75
1460.704197	667.25
1461.227316	672.5
1461.750381	671.0
1462.27339	673.0
1462.796345	685.75
1463.319244	683.0
1463.842089	669.75
1464.364878	671.25
1464.887613	670.25
1465.410292	671.5
1465.932916	668.75
1466.455486	669.5
1466.978	668.5
1467.50046	669.25
1468.022864	666.5
1468.545214	672.5
1469.067508	670.5
1469.589748	670.75
1470.111932	671.25
1470.634062	668.25
1471.156136	668.5
1471.678156	669.0
1472.20012	669.5
1472.72203	669.75
1473.243885	668.25
1473.765685	672.25
1474.28743	669.5
1474.80912	669.75
1475.330755	668.75
1475.852335	669.5
1476.37386	669.25
1476.89533	670.25
1477.416745	665.5
1477.938106	667.5
1478.459411	672.5
1478.980662	668.0
1479.501857	668.25
1480.022998	670.0
1480.544084	669.5
1481.065115	668.25
1481.586091	667.5
1482.107012	669.25
1482.627878	671.5
1483.14869	668.0
1483.669446	673.5
1484.190148	668.25
1484.710794	669.25
1485.231386	668.75
1485.751923	668.25
1486.272406	666.25
1486.792833	666.0
1487.313205	666.5
1487.833523	670.0
1488.353786	667.0
1488.873994	670.0
1489.394147	669.75
1489.914245	668.5
1490.434288	670.75
1490.954277	670.25
1491.474211	669.0
1491.99409	670.75
1492.513914	666.5
1493.033683	668.0
1493.553398	668.0
1494.073057	667.25
1494.592662	670.25
1495.112212	670.75
1495.631708	666.25
1496.151148	668.25
1496.670534	668.0
1497.189865	668.25
1497.709141	668.75
1498.228362	671.25
1498.747529	673.0
1499.266641	670.25
1499.785698	678.0
1500.3047	665.25
1500.823648	669.5
1501.34254	668.25
1501.861379	668.0
1502.380162	668.75
1502.89889	670.25
1503.417564	669.0
1503.936183	669.0
1504.454748	665.75
1504.973257	670.5
1505.491712	666.75
1506.010112	666.75
1506.528458	669.25
1507.046748	672.5
1507.564984	670.75
1508.083166	669.5
1508.601292	667.75
1509.119364	671.25
1509.637381	671.0
1510.155344	666.5
1510.673252	678.75
1511.191105	668.5
1511.708903	670.5
1512.226647	668.25
1512.744336	671.0
1513.261971	667.5
1513.77955	669.0
1514.297076	668.25
1514.814546	666.25
1515.331962	670.75
1515.849323	666.75
1516.366629	669.0
1516.883881	670.5
1517.401078	672.5
1517.918221	668.75
1518.435309	671.25
1518.952342	671.0
1519.469321	665.75
1519.986245	666.75
1520.503114	666.5
1521.019929	669.0
1521.536689	668.75
1522.053395	665.25
1522.570046	669.75
1523.086642	669.25
1523.603184	667.75
1524.119671	671.75
1524.636103	667.25
1525.152481	670.75
1525.668805	673.5
1526.185073	682.25
1526.701288	671.5
1527.217447	669.0
1527.733552	667.75
1528.249603	671.75
1528.765599	668.75
1529.28154	668.0
1529.797427	668.5
1530.313259	670.0
1530.829037	673.25
1531.34476	668.0
1531.860429	670.0
1532.376043	671.75
1532.891602	669.5
1533.407107	667.5
1533.922558	670.5
1534.437954	669.5
1534.953295	672.0
1535.468582	669.5
1535.983815	668.0
1536.498993	672.5
1537.014116	667.25
1537.529185	669.75
1538.044199	670.0
1538.559159	669.75
1539.074064	669.25
1539.588915	669.75
1540.103712	670.5
1540.618454	670.0
1541.133141	668.75
1541.647774	671.75
1542.162353	668.75
1542.676877	667.5
1543.191346	672.5
1543.705761	671.0
1544.220122	668.5
1544.734428	672.5
1545.24868	670.5
1545.762877	668.75
1546.27702	669.5
1546.791109	668.25
1547.305143	670.5
1547.819122	669.75
1548.333047	668.5
1548.846918	668.5
1549.360734	670.5
1549.874496	670.25
1550.388204	667.5
1550.901857	670.75
1551.415455	670.0
1551.929	667.5
1552.442489	670.5
1552.955925	667.0
1553.469306	665.5
1553.982632	668.0
1554.495905	668.5
1555.009123	670.0
1555.522286	669.25
1556.035395	671.0
1556.54845	666.25
1557.06145	670.25
1557.574396	672.75
1558.087288	668.5
1558.600125	668.0
1559.112908	670.0
1559.625637	669.75
1560.138311	667.0
1560.650931	670.75
1561.163497	670.0
1561.676008	668.25
1562.188465	673.0
1562.700867	669.75
1563.213216	668.5
1563.725509	670.5
1564.237749	673.25
1564.749934	667.75
1565.262065	666.5
1565.774142	670.25
1566.286164	672.25
1566.798132	667.5
1567.310046	671.0
1567.821906	674.0
1568.333711	673.25
1568.845462	668.5
1569.357158	670.25
1569.868801	672.75
1570.380389	668.0
1570.891922	672.25
1571.403402	670.75
1571.914827	669.75
1572.426198	673.25
1572.937515	669.25
1573.448777	669.25
1573.959985	668.75
1574.471139	670.25
1574.982239	670.5
1575.493285	668.5
1576.004276	669.5
1576.515213	668.25
1577.026096	668.0
1577.536924	670.0
1578.047698	670.25
1578.558419	671.5
1579.069084	670.0
1579.579696	670.75
1580.090254	666.5
1580.600757	669.0
1581.111206	671.5
1581.621601	668.5
1582.131941	666.75
1582.642228	669.75
1583.15246	669.25
1583.662638	669.25
1584.172762	665.75
1584.682832	667.0
1585.192847	670.25
1585.702809	668.25
1586.212716	671.0
1586.722569	671.25
1587.232368	669.75
1587.742113	672.0
1588.251803	668.25
1588.76144	670.5
1589.271022	667.5
1589.78055	669.0
1590.290024	666.0
1590.799444	669.25
1591.30881	669.75
1591.818121	670.25
1592.327379	668.0
