1042.414189	709.5
1042.980685	709.0
1043.547124	708.5
1044.113505	704.5
1044.679828	701.5
1045.246093	703.75
1045.8123	705.25
1046.378449	700.0
1046.94454	699.5
1047.510573	700.5
1048.076548	693.75
1048.642465	694.25
1049.208325	701.0
1049.774126	694.75
1050.339869	695.0
1050.905555	690.75
1051.471183	695.25
1052.036752	693.25
1052.602264	689.0
1053.167718	691.5
1053.733114	692.5
1054.298452	690.25
1054.863733	691.0
1055.428955	691.75
1055.994119	689.75
1056.559226	690.25
1057.124275	692.5
1057.689266	692.75
1058.254199	692.5
1058.819074	693.5
1059.383891	690.75
1059.94865	691.0
1060.513352	689.25
1061.077996	692.25
1061.642582	686.5
1062.20711	691.75
1062.77158	687.5
1063.335992	690.0
1063.900347	685.25
1064.464643	692.5
1065.028882	689.0
1065.593063	690.25
1066.157187	692.25
1066.721252	690.75
1067.28526	688.5
1067.84921	690.0
1068.413102	688.25
1068.976936	688.0
1069.540713	684.0
1070.104431	692.5
1070.668092	684.5
1071.231696	679.75
1071.795241	679.75
1072.358729	685.5
1072.922159	679.0
1073.485531	679.25
1074.048845	684.5
1074.612102	683.75
1075.175301	683.75
1075.738442	678.5
1076.301525	684.5
1076.864551	682.5
1077.427519	679.0
1077.990429	682.25
1078.553281	681.75
1079.116076	680.5
1079.678813	680.25
1080.241492	682.0
1080.804114	680.5
1081.366678	682.25
1081.929184	681.25
1082.491633	680.75
1083.054024	679.5
1083.616357	680.75
1084.178632	679.5
1084.74085	682.0
1085.30301	678.0
1085.865113	680.5
1086.427158	679.5
1086.989145	679.0
1087.551074	676.25
1088.112946	679.5
1088.67476	676.0
1089.236517	678.25
1089.798216	677.5
1090.359857	675.75
1090.92144	683.5
1091.482966	678.5
1092.044435	676.5
1092.605845	677.0
1093.167199	679.75
1093.728494	677.75
1094.289732	679.25
1094.850912	677.25
1095.412035	693.5
1095.9731	676.5
1096.534107	677.0
1097.095057	683.75
1097.65595	676.75
1098.216784	674.25
1098.777561	675.75
1099.338281	676.25
1099.898943	678.25
1100.459547	678.25
1101.020094	674.5
1101.580584	678.0
1102.141015	673.75
1102.701389	674.75
1103.261706	676.0
1103.821965	677.25
1104.382167	674.5
1104.942311	675.25
1105.502397	676.75
1106.062426	674.25
1106.622398	678.5
1107.182312	675.25
1107.742168	674.75
1108.301967	674.5
1108.861708	678.0
1109.421392	675.0
1109.981019	672.75
1110.540587	674.75
1111.100099	675.75
1111.659553	675.5
1112.218949	674.25
1112.778288	673.75
1113.33757	676.0
1113.896794	676.0
1114.45596	675.0
1115.015069	678.75
1115.574121	674.0
1116.133115	677.75
1116.692052	675.5
1117.250931	678.75
1117.809753	676.25
1118.368517	677.0
1118.927224	671.5
1119.485873	677.75
1120.044465	674.75
1120.603	676.0
1121.161477	673.0
1121.719897	676.5
1122.278259	674.25
1122.836564	675.75
1123.394812	673.25
1123.953002	673.25
1124.511135	671.5
1125.06921	672.0
1125.627228	677.5
1126.185189	674.25
1126.743092	672.5
1127.300938	674.25
1127.858726	672.25
1128.416457	675.75
1128.974131	674.5
1129.531748	675.5
1130.089307	675.75
1130.646808	673.0
1131.204252	676.25
1131.761639	678.75
1132.318969	673.75
1132.876241	673.5
1133.433456	675.25
1133.990614	673.75
1134.547714	674.25
1135.104757	674.5
1135.661743	673.25
1136.218671	672.5
1136.775542	673.25
1137.332356	673.25
1137.889112	672.5
1138.445811	675.75
1139.002453	675.5
1139.559037	675.0
1140.115565	676.25
1140.672035	675.0
1141.228447	672.5
1141.784803	672.5
1142.341101	674.25
1142.897342	675.25
1143.453525	677.0
1144.009651	669.5
1144.565721	672.25
1145.121732	672.75
1145.677687	677.75
1146.233584	673.5
1146.789424	669.5
1147.345207	674.25
1147.900933	673.25
1148.456601	673.5
1149.012212	675.0
1149.567766	673.5
1150.123263	673.75
1150.678702	672.75
1151.234085	676.75
1151.78941	675.25
1152.344678	672.0
1152.899888	673.25
1153.455042	672.25
1154.010138	674.5
1154.565177	670.25
1155.120159	673.5
1155.675084	671.5
1156.229951	673.25
1156.784762	672.5
1157.339515	673.75
1157.894211	675.75
1158.44885	675.5
1159.003432	670.5
1159.557956	675.75
1160.112424	675.5
1160.666834	674.25
1161.221187	673.25
1161.775483	674.0
1162.329722	673.0
1162.883904	673.25
1163.438029	672.5
1163.992096	672.75
1164.546107	673.5
1165.10006	671.75
1165.653956	672.25
1166.207795	675.25
1166.761577	672.5
1167.315302	673.25
1167.86897	673.0
1168.422581	672.5
1168.976134	670.25
1169.529631	673.5
1170.08307	669.75
1170.636453	676.75
1171.189778	670.75
1171.743046	671.75
1172.296257	675.5
1172.849412	672.5
1173.402509	674.75
1173.955549	672.0
1174.508532	673.5
1175.061458	672.75
1175.614327	673.5
1176.167138	673.75
1176.719893	675.0
1177.272591	670.5
1177.825232	670.25
1178.377816	673.25
1178.930342	670.5
1179.482812	669.75
1180.035225	676.0
1180.587581	674.0
1181.139879	673.0
1181.692121	669.25
1182.244306	672.25
1182.796434	671.5
1183.348504	673.75
1183.900518	672.5
1184.452475	674.0
1185.004375	674.75
1185.556218	672.5
1186.108004	673.75
1186.659733	670.25
1187.211405	671.5
1187.76302	670.5
1188.314578	671.0
1188.866079	670.75
1189.417523	673.0
1189.96891	670.75
1190.520241	670.5
1191.071514	671.0
1191.622731	674.5
1192.17389	672.25
1192.724993	672.75
1193.276039	694.5
1193.827027	669.75
1194.377959	671.0
1194.928834	672.75
1195.479653	668.75
1196.030414	670.0
1196.581118	669.75
1197.131766	672.25
1197.682356	672.0
1198.23289	670.75
1198.783367	671.75
1199.333786	673.75
1199.88415	673.25
1200.434456	673.0
1200.984705	673.5
1201.534898	673.5
1202.085033	671.75
1202.635112	670.25
1203.185134	672.0
1203.735099	672.0
1204.285007	672.75
1204.834859	672.5
1205.384653	671.25
1205.934391	675.0
1206.484072	671.25
1207.033696	673.0
1207.583263	669.5
1208.132774	672.5
1208.682228	673.75
1209.231624	670.25
1209.780965	672.75
1210.330248	673.0
1210.879474	673.25
1211.428644	673.25
1211.977757	674.75
1212.526813	668.5
1213.075813	670.0
1213.624755	671.25
1214.173641	673.0
1214.72247	670.5
1215.271242	673.5
1215.819958	672.0
1216.368617	674.0
1216.917219	669.75
1217.465764	672.25
1218.014253	673.0
1218.562685	671.25
1219.11106	672.25
1219.659378	670.0
1220.20764	671.75
1220.755845	669.75
1221.303993	669.25
1221.852085	670.0
1222.400119	669.25
1222.948097	673.25
1223.496019	672.5
1224.043883	672.25
1224.591691	673.0
1225.139443	668.25
1225.687137	672.0
1226.234775	674.0
1226.782357	670.75
1227.329881	671.25
1227.877349	673.25
1228.42476	669.75
1228.972115	671.5
1229.519413	671.5
1230.066654	673.5
1230.613839	673.25
1231.160967	671.25
1231.708038	672.5
1232.255053	672.5
1232.802011	671.5
1233.348912	671.0
1233.895757	673.25
1234.442545	672.25
1234.989277	671.5
1235.535951	671.25
1236.08257	672.25
1236.629131	672.5
1237.175636	675.0
1237.722085	670.75
1238.268477	676.75
1238.814812	670.75
1239.361091	672.5
1239.907313	671.5
1240.453478	671.75
1240.999587	673.25
1241.54564	671.25
1242.091636	672.25
1242.637575	671.5
1243.183457	672.5
1243.729284	671.0
1244.275053	669.5
1244.820766	671.5
1245.366423	671.75
1245.912022	671.75
1246.457566	669.0
1247.003053	671.25
1247.548483	672.25
1248.093857	670.5
1248.639174	669.75
1249.184435	670.25
1249.729639	668.25
1250.274787	672.75
1250.819878	673.5
1251.364912	674.75
1251.909891	670.5
1252.454812	674.25
1252.999677	672.25
1253.544486	671.0
1254.089238	672.5
1254.633934	671.25
1255.178573	673.25
1255.723156	670.0
1256.267682	670.75
1256.812152	672.0
1257.356565	670.75
1257.900922	671.75
1258.445223	672.5
1258.989467	673.0
1259.533654	669.5
1260.077785	682.75
1260.62186	674.0
1261.165878	669.0
1261.70984	672.5
1262.253745	671.0
1262.797594	668.0
1263.341386	670.0
1263.885123	671.0
1264.428802	673.25
1264.972425	671.25
1265.515992	675.5
1266.059503	675.0
1266.602957	670.75
1267.146354	671.5
1267.689696	670.25
1268.23298	673.0
1268.776209	669.5
1269.319381	667.75
1269.862497	671.5
1270.405556	672.0
1270.948559	672.0
1271.491506	671.5
1272.034396	672.0
1272.57723	672.0
1273.120007	667.75
1273.662728	673.5
1274.205393	670.5
1274.748002	667.0
1275.290554	669.75
1275.83305	671.75
1276.375489	672.75
1276.917872	671.75
1277.460199	669.5
1278.00247	667.25
1278.544684	668.0
1279.086842	668.75
1279.628943	673.75
1280.170989	669.0
1280.712978	671.25
1281.25491	673.0
1281.796787	670.5
1282.338607	672.0
1282.880371	671.0
1283.422078	672.25
1283.963729	670.0
1284.505324	674.75
1285.046863	674.25
1285.588345	691.75
1286.129772	726.0
1286.671142	691.5
1287.212455	671.75
1287.753713	672.25
1288.294914	670.0
1288.836059	670.25
1289.377147	667.75
1289.91818	671.25
1290.459156	670.25
1291.000076	669.0
1291.54094	671.25
1292.081747	669.25
1292.622499	670.75
1293.163194	670.75
1293.703833	668.75
1294.244415	675.25
1294.784942	671.0
1295.325412	669.5
1295.865826	671.25
1296.406184	667.25
1296.946486	669.25
1297.486731	669.5
1298.026921	671.0
1298.567054	668.75
1299.107131	670.0
1299.647152	671.75
1300.187116	670.25
1300.727025	671.75
1301.266877	670.25
1301.806673	669.25
1302.346413	671.75
1302.886097	672.75
1303.425725	669.5
1303.965297	672.5
1304.504812	668.5
1305.044272	667.5
1305.583675	668.75
1306.123022	671.5
1306.662313	668.75
1307.201548	667.5
1307.740727	672.75
1308.279849	670.5
1308.818916	667.0
1309.357926	669.0
1309.896881	673.0
1310.435779	670.5
1310.974621	668.0
1311.513407	669.0
1312.052137	671.75
1312.590811	669.5
1313.129429	670.5
1313.667991	670.75
1314.206497	670.25
1314.744946	670.25
1315.28334	670.25
1315.821678	667.5
1316.359959	666.75
1316.898184	669.75
1317.436354	670.0
1317.974467	668.5
1318.512525	669.75
1319.050526	670.25
1319.588471	670.75
1320.12636	671.0
1320.664194	665.5
1321.201971	668.0
1321.739692	667.25
1322.277357	672.25
1322.814967	671.5
1323.35252	667.75
1323.890017	674.75
1324.427458	667.75
1324.964843	671.5
1325.502173	668.25
1326.039446	671.25
1326.576663	671.25
1327.113824	668.0
1327.65093	669.5
1328.187979	670.5
1328.724972	667.75
1329.26191	668.5
1329.798791	671.75
1330.335617	667.0
1330.872386	669.0
1331.4091	670.5
1331.945758	670.5
1332.48236	668.5
1333.018905	669.75
1333.555395	668.25
1334.091829	669.5
1334.628207	670.25
1335.164529	669.75
1335.700796	670.75
1336.237006	669.75
1336.77316	669.5
1337.309259	668.75
1337.845301	672.25
1338.381288	670.5
1338.917219	671.0
1339.453094	670.0
1339.988913	668.0
1340.524676	672.0
1341.060383	669.0
1341.596034	669.0
1342.13163	667.5
1342.66717	672.5
1343.202653	666.5
1343.738081	670.25
1344.273453	670.75
1344.80877	668.0
1345.34403	673.0
1345.879235	668.75
1346.414383	669.75
1346.949476	671.0
1347.484513	671.25
1348.019494	667.0
1348.55442	668.75
1349.089289	669.25
1349.624103	669.0
1350.158861	669.25
1350.693563	667.25
1351.228209	667.75
1351.7628	672.25
1352.297334	669.25
1352.831813	670.25
1353.366236	669.25
1353.900604	671.0
1354.434915	667.25
1354.969171	671.75
1355.503371	668.25
1356.037515	671.0
1357.105636	671.25
1357.639613	671.75
1358.173535	668.0
1358.7074	669.5
1359.24121	673.0
1359.774964	671.0
1360.308662	668.25
1360.842304	667.0
1361.375891	672.75
1361.909422	670.25
1362.442897	670.5
1362.976317	669.0
1363.50968	671.5
1364.042989	673.5
1364.576241	672.75
1365.109438	670.25
1365.642579	669.25
1366.175664	671.75
1366.708693	669.5
1367.241667	667.75
1367.774585	670.0
1368.307448	673.75
1368.840255	669.25
1369.373006	667.75
1369.905701	669.0
1370.438341	670.75
1370.970925	673.75
1371.503454	668.25
1372.035926	668.0
1372.568344	670.5
1373.100705	669.0
1373.633011	667.75
1374.165261	669.0
1374.697456	668.0
1375.229595	668.25
1375.761678	669.75
1376.293705	671.25
1376.825677	668.25
1377.357594	670.0
1377.889455	666.25
1378.42126	668.25
1378.953009	669.0
1379.484703	669.25
1380.016342	671.25
1380.547924	667.5
1381.079452	671.0
1381.610923	667.75
1382.142339	668.25
1382.673699	672.75
1383.205004	669.5
1383.736253	669.0
1384.267447	668.25
1384.798585	668.25
1385.329668	668.75
1385.860695	673.75
1386.391666	670.25
1386.922582	669.25
1387.453442	670.75
1387.984247	672.0
1388.514996	688.75
1389.04569	747.5
1389.576328	722.5
1390.10691	676.0
1390.637437	673.75
1391.167909	671.75
1391.698325	668.0
1392.228685	670.5
1392.75899	667.5
1393.28924	665.75
1393.819434	673.25
1394.349572	671.25
1394.879655	670.25
1395.409683	671.75
1395.939655	668.0
1396.469571	670.75
1396.999432	668.25
1397.529237	669.0
1398.058987	669.75
1398.588682	670.25
1399.118321	671.5
1399.647905	671.25
1400.177433	671.0
1400.706906	670.5
1401.236323	670.0
1401.765685	667.75
1402.294991	668.25
1402.824242	667.75
1403.353437	670.25
1403.882577	668.0
1404.411662	669.75
1404.940691	671.25
1405.469665	669.25
1405.998583	669.5
1406.527446	667.25
1407.056253	670.5
1407.585005	672.0
1408.113702	668.0
1408.642343	669.5
1409.170929	673.0
1409.69946	671.0
1410.227935	675.25
1410.756354	675.0
1411.284719	670.5
1411.813028	670.25
1412.341281	671.0
1412.869479	667.25
1413.397622	670.25
1413.92571	668.0
1414.453742	670.75
1414.981718	671.25
1415.50964	681.0
1416.037506	669.75
1416.565316	670.0
1417.093072	670.5
1417.620772	666.75
1418.148416	669.0
1418.676005	669.75
1419.203539	669.75
1419.731018	668.0
1420.258441	669.5
1420.785809	668.75
1421.313122	670.25
1421.840379	667.0
1422.367582	667.75
1422.894728	672.25
1423.42182	669.0
1423.948856	664.5
1424.475837	669.25
1425.002762	669.5
1425.529633	668.75
1426.056448	670.25
1426.583207	667.75
1427.109912	670.5
1427.636561	667.75
1428.163155	670.5
1428.689694	667.75
1429.216177	669.75
1429.742605	670.0
1430.268978	671.25
1430.795296	672.25
1431.321558	667.75
1431.847765	669.5
1432.373917	668.5
1432.900014	673.75
1433.426056	671.25
1433.952042	668.75
1434.477973	671.25
1435.003849	669.75
1435.529669	670.5
1436.055435	669.5
1436.581145	668.25
1437.1068	668.0
1437.632399	672.75
1438.157944	669.25
1438.683433	668.75
1439.208868	672.5
1439.734247	670.0
1440.25957	671.25
1440.784839	667.0
1441.310053	672.0
1441.835211	670.5
1442.360314	670.0
1442.885362	667.25
1443.410355	668.0
1443.935292	669.75
1444.460175	668.75
1444.985002	671.25
1445.509774	673.0
1446.034491	672.25
1446.559153	668.25
1447.08376	671.0
1447.608312	667.75
1448.132808	673.25
1448.65725	670.0
1449.181636	670.0
1449.705967	668.25
1450.230243	668.5
1450.754464	669.5
1451.27863	669.5
1451.802741	668.75
1452.326797	669.5
1452.850797	667.75
1453.374743	667.75
1453.898633	670.25
1454.422468	669.0
1454.946249	669.25
1455.469974	666.5
1455.993644	670.75
1456.517259	668.75
1457.040819	668.25
1457.564324	668.5
1458.087773	670.5
1458.611168	673.0
1459.134508	667.25
1459.657793	672.0
1460.181022	669.5
1460.704197	670.0
1461.227316	674.25
1461.750381	669.25
1462.27339	670.25
1462.796345	681.75
1463.319244	677.25
1463.842089	666.75
1464.364878	669.75
1464.887613	670.0
1465.410292	668.75
1465.932916	668.25
1466.455486	667.5
1466.978	669.5
1467.50046	667.25
1468.022864	670.5
1468.545214	668.75
1469.067508	671.5
1469.589748	667.75
1470.111932	670.0
1470.634062	672.5
1471.156136	670.0
1471.678156	665.5
1472.20012	673.0
1472.72203	671.0
1473.243885	667.25
1473.765685	669.0
1474.28743	672.25
1474.80912	668.75
1475.330755	670.0
1475.852335	668.75
1476.37386	668.5
1476.89533	670.25
1477.416745	670.5
1477.938106	670.25
1478.459411	672.25
1478.980662	670.5
1479.501857	670.75
1480.022998	671.0
1480.544084	667.0
1481.065115	668.0
1481.586091	671.75
1482.107012	669.25
1482.627878	669.75
1483.14869	667.0
1483.669446	669.5
1484.190148	670.0
1484.710794	671.25
1485.231386	669.75
1485.751923	667.5
1486.272406	668.5
1486.792833	666.75
1487.313205	671.0
1487.833523	671.25
1488.353786	667.5
1488.873994	667.0
1489.394147	666.25
1489.914245	668.75
1490.434288	668.5
1490.954277	671.25
1491.474211	671.0
1491.99409	671.75
1492.513914	671.25
1493.033683	670.75
1493.553398	670.25
1494.073057	668.0
1494.592662	668.5
1495.112212	667.5
1495.631708	669.25
1496.151148	668.5
1496.670534	667.5
1497.189865	668.75
1497.709141	669.0
1498.228362	670.25
1498.747529	667.25
1499.266641	667.5
1499.785698	680.5
1500.3047	668.5
1500.823648	668.5
1501.34254	670.0
1501.861379	669.0
1502.380162	668.5
1502.89889	665.75
1503.417564	667.25
1503.936183	667.5
1504.454748	669.5
1504.973257	667.25
1505.491712	669.0
1506.010112	668.25
1506.528458	669.75
1507.046748	668.75
1507.564984	667.0
1508.083166	671.0
1508.601292	669.5
1509.119364	667.25
1509.637381	670.25
1510.155344	667.5
1510.673252	680.75
1511.191105	667.75
1511.708903	669.25
1512.226647	670.0
1512.744336	669.25
1513.261971	670.5
1513.77955	667.75
1514.297076	671.25
1514.814546	667.0
1515.331962	671.0
1515.849323	668.5
1516.366629	671.75
1516.883881	666.75
1517.401078	669.75
1517.918221	668.75
1518.435309	671.75
1518.952342	668.25
1519.469321	667.75
1519.986245	671.25
1520.503114	668.25
1521.019929	668.75
1521.536689	671.5
1522.053395	670.5
1522.570046	670.75
1523.086642	672.5
1523.603184	670.5
1524.119671	669.75
1524.636103	672.0
1525.152481	669.0
1525.668805	673.75
1526.185073	680.75
1526.701288	668.25
1527.217447	669.0
1527.733552	670.0
1528.249603	669.5
1528.765599	669.0
1529.28154	666.5
1529.797427	670.75
1530.313259	669.75
1530.829037	668.75
1531.34476	672.0
1531.860429	670.0
1532.376043	671.25
1532.891602	666.75
1533.407107	666.5
1533.922558	668.75
1534.437954	667.75
1534.953295	668.5
1535.468582	669.5
1535.983815	668.75
1536.498993	667.25
1537.014116	669.0
1537.529185	671.0
1538.044199	670.25
1538.559159	672.5
1539.074064	670.5
1539.588915	671.0
1540.103712	668.25
1540.618454	672.75
1541.133141	668.25
1541.647774	669.25
1542.162353	665.75
1542.676877	668.75
1543.191346	673.0
1543.705761	665.5
1544.220122	670.0
1544.734428	669.5
1545.24868	669.5
1545.762877	668.75
1546.27702	667.0
1546.791109	669.75
1547.305143	670.75
1547.819122	667.75
1548.333047	669.25
1548.846918	670.75
1549.360734	670.75
1549.874496	668.5
1550.388204	670.0
1550.901857	668.0
1551.415455	667.5
1551.929	671.5
1552.442489	670.5
1552.955925	670.0
1553.469306	667.25
1553.982632	668.0
1554.495905	668.25
1555.009123	669.75
1555.522286	671.0
1556.035395	670.25
1556.54845	671.5
1557.06145	669.0
1557.574396	669.0
1558.087288	671.0
1558.600125	670.0
1559.112908	670.25
1559.625637	668.5
1560.138311	670.75
1560.650931	669.5
1561.163497	674.0
1561.676008	669.0
1562.188465	669.75
1562.700867	668.75
1563.213216	673.0
1563.725509	669.0
1564.237749	666.5
1564.749934	671.25
1565.262065	672.0
1565.774142	670.5
1566.286164	669.5
1566.798132	670.25
1567.310046	671.5
1567.821906	669.5
1568.333711	670.25
1568.845462	673.0
1569.357158	670.75
1569.868801	675.75
1570.891922	671.25
1571.403402	671.5
1571.914827	670.0
1572.426198	670.5
1572.937515	670.0
1573.448777	673.0
1573.959985	669.75
1574.471139	670.5
1574.982239	668.75
1575.493285	668.25
1576.004276	665.25
1576.515213	667.75
1577.026096	669.25
1577.536924	670.75
1578.047698	672.75
1578.558419	672.5
1579.069084	670.25
1579.579696	670.25
1580.090254	670.25
1580.600757	668.75
1581.111206	670.25
1581.621601	669.0
1582.131941	665.5
1582.642228	671.5
1583.15246	668.5
1583.662638	670.0
1584.172762	670.0
1584.682832	669.0
1585.192847	669.25
1585.702809	670.0
1586.212716	671.25
1586.722569	671.75
1587.232368	670.75
1587.742113	669.75
1588.251803	668.0
1588.76144	669.75
1589.271022	666.75
1589.78055	667.25
1590.290024	665.5
1590.799444	672.5
1591.30881	669.25
1591.818121	667.25
1592.327379	665.75
