1042.414189	699.5
1042.980685	694.25
1043.547124	694.25
1044.113505	696.5
1044.679828	695.25
1045.246093	691.25
1045.8123	688.5
1046.378449	692.25
1046.94454	691.0
1047.510573	686.75
1048.076548	686.25
1048.642465	682.5
1049.208325	684.0
1049.774126	680.25
1050.339869	684.25
1050.905555	681.75
1051.471183	678.75
1052.036752	679.0
1052.602264	681.5
1053.167718	681.5
1053.733114	679.75
1054.298452	682.0
1054.863733	677.75
1055.428955	675.5
1055.994119	675.0
1056.559226	674.0
1057.124275	677.25
1057.689266	676.5
1058.254199	672.5
1058.819074	676.5
1059.383891	675.75
1059.94865	677.0
1060.513352	674.25
1061.077996	674.75
1061.642582	673.5
1062.20711	671.5
1062.77158	670.0
1063.335992	673.5
1063.900347	674.5
1064.464643	673.5
1065.028882	671.5
1065.593063	673.5
1066.157187	674.5
1066.721252	672.5
1067.28526	671.25
1067.84921	672.5
1068.413102	670.5
1068.976936	670.5
1069.540713	676.25
1070.104431	675.75
1070.668092	673.25
1071.231696	673.75
1071.795241	671.5
1072.358729	672.25
1072.922159	674.75
1073.485531	669.75
1074.048845	671.0
1074.612102	671.25
1075.175301	672.0
1075.738442	670.75
1076.301525	667.25
1076.864551	674.75
1077.427519	669.0
1077.990429	669.5
1078.553281	669.5
1079.116076	672.75
1079.678813	671.5
1080.241492	673.0
1080.804114	669.5
1081.366678	673.75
1081.929184	672.25
1082.491633	672.0
1083.054024	670.75
1083.616357	673.75
1084.178632	672.5
1084.74085	670.0
1085.30301	670.75
1085.865113	671.25
1086.427158	670.0
1086.989145	671.25
1087.551074	672.5
1088.112946	667.25
1088.67476	670.5
1089.236517	669.5
1089.798216	668.75
1090.359857	670.75
1090.92144	671.5
1091.482966	672.5
1092.044435	671.75
1092.605845	672.0
1093.167199	666.5
1093.728494	667.5
1094.289732	668.0
1094.850912	671.75
1095.412035	685.75
1095.9731	670.5
1096.534107	670.5
1097.095057	674.0
1097.65595	669.5
1098.216784	670.0
1098.777561	672.0
1099.338281	668.5
1099.898943	670.0
1100.459547	667.0
1101.020094	670.0
1101.580584	669.0
1102.141015	670.75
1102.701389	670.75
1103.261706	672.25
1103.821965	665.5
1104.382167	669.25
1104.942311	668.5
1105.502397	667.0
1106.062426	667.25
1106.622398	664.75
1107.182312	668.75
1107.742168	668.0
1108.301967	671.5
1108.861708	666.75
1109.421392	671.25
1109.981019	669.25
1110.540587	668.5
1111.100099	672.0
1111.659553	665.5
1112.218949	670.25
1112.778288	670.5
1113.33757	669.25
1113.896794	667.0
1114.45596	669.5
1115.015069	668.75
1115.574121	667.5
1116.133115	666.5
1116.692052	668.0
1117.250931	666.75
1117.809753	665.75
1118.368517	665.0
1118.927224	666.0
1119.485873	664.75
1120.044465	666.25
1120.603	669.5
1121.161477	665.5
1121.719897	667.0
1122.278259	668.25
1122.836564	668.5
1123.394812	669.5
1123.953002	666.25
1124.511135	666.0
1125.06921	669.0
1125.627228	667.75
1126.185189	666.75
1126.743092	665.5
1127.300938	666.0
1127.858726	668.5
1128.416457	667.5
1128.974131	666.0
1129.531748	665.75
1130.089307	665.75
1130.646808	666.0
1131.204252	667.0
1131.761639	664.5
1132.318969	667.25
1132.876241	664.5
1133.433456	665.0
1133.990614	668.5
1134.547714	667.0
1135.104757	667.75
1135.661743	666.75
1136.218671	664.25
1136.775542	670.0
1137.332356	665.75
1137.889112	666.75
1138.445811	665.0
1139.002453	664.5
1139.559037	664.75
1140.115565	664.75
1140.672035	666.75
1141.228447	667.5
1141.784803	666.5
1142.341101	665.75
1142.897342	666.75
1143.453525	664.75
1144.009651	666.0
1144.565721	665.0
1145.121732	665.75
1145.677687	666.0
1146.233584	667.5
1146.789424	666.75
1147.345207	668.25
1147.900933	667.25
1148.456601	667.25
1149.012212	663.25
1149.567766	667.75
1150.123263	669.0
1150.678702	667.0
1151.234085	665.75
1151.78941	664.5
1152.344678	662.25
1152.899888	665.75
1153.455042	668.75
1154.010138	664.75
1154.565177	666.5
1155.120159	665.25
1155.675084	665.0
1156.229951	663.0
1156.784762	662.75
1157.339515	667.5
1157.894211	667.0
1158.44885	666.75
1159.003432	664.25
1159.557956	665.75
1160.112424	665.25
1160.666834	667.0
1161.221187	667.0
1161.775483	667.5
1162.329722	672.0
1162.883904	666.25
1163.438029	665.0
1163.992096	666.5
1164.546107	666.75
1165.10006	667.5
1165.653956	667.0
1166.207795	664.5
1166.761577	666.5
1167.315302	665.75
1167.86897	665.75
1168.422581	667.75
1168.976134	664.0
1169.529631	669.0
1170.08307	667.25
1170.636453	665.0
1171.189778	665.25
1171.743046	666.5
1172.296257	665.75
1172.849412	662.5
1173.402509	665.0
1173.955549	666.0
1174.508532	668.0
1175.061458	665.25
1175.614327	663.25
1176.167138	665.0
1176.719893	664.0
1177.272591	665.25
1177.825232	666.5
1178.377816	666.75
1178.930342	664.0
1179.482812	665.75
1180.035225	665.25
1180.587581	665.0
1181.139879	667.5
1181.692121	666.25
1182.244306	664.25
1182.796434	666.5
1183.348504	663.75
1183.900518	667.0
1184.452475	666.5
1185.004375	665.25
1185.556218	664.25
1186.108004	662.25
1186.659733	664.25
1187.211405	664.0
1187.76302	668.5
1188.314578	665.75
1188.866079	663.75
1189.417523	668.25
1189.96891	667.5
1190.520241	668.0
1191.071514	665.5
1191.622731	668.0
1192.17389	665.25
1192.724993	666.25
1193.276039	685.75
1193.827027	664.5
1194.377959	665.5
1194.928834	665.0
1195.479653	666.75
1196.030414	664.75
1196.581118	663.0
1197.131766	664.5
1197.682356	667.25
1198.23289	665.75
1198.783367	665.25
1199.333786	668.0
1199.88415	664.0
1200.434456	666.25
1200.984705	665.25
1201.534898	665.0
1202.085033	663.75
1202.635112	668.0
1203.185134	666.0
1203.735099	666.0
1204.285007	662.75
1204.834859	667.25
1205.384653	666.5
1205.934391	662.75
1206.484072	665.5
1207.033696	665.5
1207.583263	664.5
1208.132774	664.5
1208.682228	665.0
1209.231624	668.0
1209.780965	666.75
1210.330248	664.75
1210.879474	663.5
1211.428644	665.5
1211.977757	664.25
1212.526813	665.0
1213.075813	666.0
1213.624755	664.25
1214.173641	664.25
1214.72247	665.5
1215.271242	666.25
1215.819958	664.75
1216.368617	665.25
1216.917219	664.75
1217.465764	664.25
1218.014253	664.5
1218.562685	663.5
1219.11106	667.0
1219.659378	667.25
1220.20764	667.0
1220.755845	666.75
1221.303993	662.0
1221.852085	665.0
1222.400119	665.5
1222.948097	667.25
1223.496019	666.5
1224.043883	666.75
1224.591691	668.0
1225.139443	665.25
1225.687137	666.25
1226.234775	668.75
1226.782357	666.5
1227.329881	665.5
1227.877349	665.25
1228.42476	664.5
1228.972115	665.25
1229.519413	667.75
1230.066654	663.25
1230.613839	664.5
1231.160967	665.25
1231.708038	667.5
1232.255053	666.0
1232.802011	664.25
1233.348912	665.75
1233.895757	666.25
1234.442545	666.5
1234.989277	666.0
1235.535951	666.5
1236.08257	667.25
1236.629131	665.0
1237.175636	665.25
1237.722085	664.0
1238.268477	667.0
1238.814812	664.75
1239.361091	665.5
1239.907313	664.25
1240.453478	669.25
1240.999587	667.75
1241.54564	664.5
1242.091636	665.0
1242.637575	666.5
1243.183457	665.0
1243.729284	668.25
1244.275053	666.5
1244.820766	668.0
1245.366423	662.5
1245.912022	663.5
1246.457566	667.25
1247.003053	665.5
1247.548483	665.0
1248.093857	663.5
1248.639174	664.75
1249.184435	667.5
1249.729639	665.75
1250.274787	665.75
1250.819878	666.25
1251.364912	667.0
1251.909891	665.0
1252.454812	666.25
1252.999677	665.0
1253.544486	666.0
1254.089238	664.0
1254.633934	668.25
1255.178573	661.25
1255.723156	666.5
1256.267682	665.75
1256.812152	664.75
1257.356565	665.0
1257.900922	666.75
1258.445223	665.0
1258.989467	667.75
1259.533654	665.75
1260.077785	679.25
1260.62186	665.25
1261.165878	666.5
1261.70984	666.0
1262.253745	669.5
1262.797594	668.75
1263.341386	673.25
1263.885123	673.25
1264.428802	678.25
1264.972425	680.0
1265.515992	678.0
1266.059503	670.0
1266.602957	671.0
1267.146354	668.25
1267.689696	667.25
1268.23298	667.5
1268.776209	666.75
1269.319381	668.25
1269.862497	665.25
1270.405556	669.5
1270.948559	665.25
1271.491506	664.25
1272.034396	667.75
1272.57723	671.75
1273.120007	668.0
1273.662728	668.5
1274.205393	664.25
1274.748002	665.5
1275.290554	667.5
1275.83305	666.0
1276.375489	666.25
1276.917872	669.0
1277.460199	666.0
1278.00247	667.75
1278.544684	666.75
1279.086842	665.5
1279.628943	667.5
1280.170989	666.5
1280.712978	669.75
1281.25491	669.75
1281.796787	674.25
1282.338607	674.75
1282.880371	685.5
1283.422078	700.0
1283.963729	735.75
1284.505324	833.0
1285.046863	914.0
1285.588345	833.0
1286.129772	728.5
1286.671142	688.75
1287.212455	678.75
1287.753713	672.25
1288.294914	675.25
1288.836059	668.75
1289.377147	669.25
1289.91818	666.0
1290.459156	667.25
1291.000076	667.75
1291.54094	666.75
1292.081747	667.25
1292.622499	664.25
1293.163194	669.5
1293.703833	666.75
1294.244415	667.5
1294.784942	665.75
1295.325412	667.25
1295.865826	663.5
1296.406184	666.25
1296.946486	664.5
1297.486731	664.25
1298.026921	667.0
1298.567054	664.75
1299.107131	666.75
1299.647152	667.0
1300.187116	666.5
1300.727025	666.75
1301.266877	667.5
1301.806673	666.0
1302.346413	667.0
1302.886097	666.5
1303.425725	665.0
1303.965297	664.25
1304.504812	665.0
1305.044272	664.75
1305.583675	667.5
1306.123022	665.75
1306.662313	665.5
1307.201548	665.5
1307.740727	665.75
1308.279849	665.0
1308.818916	667.0
1309.357926	665.0
1309.896881	664.5
1310.435779	665.0
1310.974621	663.75
1311.513407	669.0
1312.052137	667.0
1312.590811	666.25
1313.129429	665.0
1313.667991	665.0
1314.206497	664.5
1314.744946	666.0
1315.28334	666.0
1315.821678	669.75
1316.359959	663.0
1316.898184	665.75
1317.436354	669.0
1317.974467	664.25
1318.512525	666.5
1319.050526	664.25
1319.588471	666.0
1320.12636	667.5
1320.664194	666.5
1321.201971	666.25
1321.739692	665.0
1322.277357	662.5
1322.814967	666.0
1323.35252	664.0
1323.890017	670.25
1324.427458	666.25
1324.964843	666.75
1325.502173	664.75
1326.039446	668.25
1326.576663	663.75
1327.113824	667.5
1327.65093	666.25
1328.187979	666.5
1328.724972	666.75
1329.26191	667.5
1329.798791	665.75
1330.335617	665.75
1330.872386	665.5
1331.4091	663.5
1331.945758	664.0
1332.48236	664.0
1333.018905	666.75
1333.555395	666.25
1334.091829	665.25
1334.628207	664.25
1335.164529	666.75
1335.700796	667.75
1336.237006	669.25
1336.77316	668.5
1337.309259	669.5
1337.845301	665.0
1338.381288	665.5
1338.917219	664.25
1339.453094	666.0
1339.988913	664.5
1340.524676	665.5
1341.060383	667.0
1341.596034	667.25
1342.13163	666.0
1342.66717	666.75
1343.202653	665.0
1343.738081	665.5
1344.273453	666.5
1344.80877	667.25
1345.34403	665.0
1345.879235	666.0
1346.414383	664.75
1346.949476	664.5
1347.484513	664.5
1348.019494	664.0
1348.55442	664.5
1349.089289	667.0
1349.624103	667.75
1350.158861	664.25
1350.693563	668.0
1351.228209	665.5
1351.7628	665.0
1352.297334	664.75
1352.831813	667.5
1353.366236	666.25
1353.900604	668.25
1354.434915	667.25
1354.969171	667.5
1355.503371	670.0
1356.037515	665.75
1356.571604	666.75
1357.105636	665.25
1357.639613	667.5
1358.173535	667.0
1358.7074	663.75
1359.24121	664.5
1359.774964	665.5
1360.308662	663.25
1360.842304	667.25
1361.375891	660.75
1361.909422	666.75
1362.442897	669.5
1362.976317	665.25
1363.50968	668.0
1364.042989	669.5
1364.576241	668.25
1365.109438	664.25
1365.642579	665.0
1366.175664	668.0
1366.708693	667.0
1367.241667	668.5
1367.774585	667.75
1368.307448	669.0
1368.840255	668.25
1369.373006	666.5
1369.905701	670.75
1370.438341	675.25
1370.970925	670.0
1371.503454	667.25
1372.035926	665.0
1372.568344	666.75
1373.100705	668.0
1373.633011	666.25
1374.165261	663.75
1374.697456	665.0
1375.229595	666.5
1375.761678	665.75
1376.293705	667.25
1376.825677	667.5
1377.357594	666.25
1377.889455	666.75
1378.42126	667.0
1378.953009	667.0
1379.484703	670.5
1380.016342	667.5
1380.547924	665.25
1381.079452	667.75
1381.610923	669.0
1382.142339	666.75
1382.673699	667.5
1383.205004	671.0
1383.736253	670.25
1384.267447	672.5
1384.798585	671.5
1385.329668	671.75
1385.860695	679.0
1386.391666	682.0
1386.922582	702.75
1387.453442	742.5
1387.984247	904.5
1388.514996	1122.0
1389.04569	958.25
1389.576328	751.75
1390.10691	694.75
1390.637437	685.0
1391.167909	678.25
1391.698325	674.0
1392.228685	672.0
1392.75899	670.0
1393.28924	665.75
1393.819434	668.25
1394.349572	666.25
1394.879655	663.5
1395.409683	666.5
1395.939655	667.5
1396.469571	665.5
1396.999432	667.25
1397.529237	663.75
1398.058987	666.75
1398.588682	666.25
1399.118321	667.0
1399.647905	666.0
1400.177433	664.25
1400.706906	665.75
1401.236323	669.0
1401.765685	663.5
1402.294991	669.25
1402.824242	667.5
1403.353437	669.75
1403.882577	665.5
1404.411662	666.5
1404.940691	669.25
1405.469665	666.75
1405.998583	669.0
1406.527446	669.0
1407.056253	670.0
1407.585005	666.75
1408.113702	673.75
1408.642343	672.25
1409.170929	681.0
1409.69946	691.25
1410.227935	693.25
1410.756354	685.75
1411.284719	673.75
1411.813028	667.75
1412.341281	667.0
1412.869479	664.75
1413.397622	667.75
1413.92571	665.75
1414.453742	667.5
1414.981718	664.5
1415.50964	675.0
1416.037506	664.5
1416.565316	666.75
1417.093072	665.0
1417.620772	667.25
1418.148416	663.5
1418.676005	665.75
1419.203539	664.25
1419.731018	666.0
1420.258441	668.5
1420.785809	665.25
1421.313122	667.0
1421.840379	665.5
1422.367582	668.75
1422.894728	663.75
1423.42182	665.25
1423.948856	665.5
1424.475837	665.0
1425.002762	665.75
1425.529633	665.5
1426.056448	667.0
1426.583207	663.75
1427.109912	666.25
1427.636561	665.0
1428.163155	662.5
1428.689694	666.25
1429.216177	666.5
1429.742605	664.0
1430.268978	666.5
1430.795296	666.5
1431.321558	664.0
1431.847765	665.5
1432.373917	664.0
1432.900014	666.0
1433.426056	666.25
1433.952042	665.5
1434.477973	664.0
1435.003849	664.5
1435.529669	662.5
1436.055435	662.75
1436.581145	662.5
1437.1068	663.75
1437.632399	663.5
1438.157944	664.5
1438.683433	662.5
1439.208868	661.5
1439.734247	666.5
1440.25957	664.25
1440.784839	664.5
1441.310053	664.5
1441.835211	663.0
1442.360314	664.0
1442.885362	664.75
1443.410355	665.0
1443.935292	668.5
1444.460175	667.5
1444.985002	661.5
1445.509774	663.25
1446.034491	664.5
1446.559153	666.25
1447.08376	668.0
1447.608312	664.0
1448.132808	664.0
1448.65725	666.25
1449.181636	663.25
1449.705967	663.75
1450.230243	661.0
1450.754464	663.5
1451.27863	663.5
1451.802741	665.0
1452.326797	664.25
1452.850797	664.0
1453.374743	663.5
1453.898633	662.5
1454.422468	666.25
1454.946249	663.25
1455.469974	667.25
1455.993644	667.5
1456.517259	659.5
1457.040819	662.5
1457.564324	666.0
1458.087773	663.5
1458.611168	662.5
1459.134508	664.25
1459.657793	664.0
1460.181022	664.0
1460.704197	664.5
1461.227316	668.0
1461.750381	664.25
1462.27339	665.0
1462.796345	669.75
1463.319244	666.75
1463.842089	665.25
1464.364878	662.75
1464.887613	662.25
1465.410292	667.0
1465.932916	665.25
1466.455486	664.0
1466.978	665.25
1467.50046	664.25
1468.022864	667.5
1468.545214	664.5
1469.067508	668.5
1469.589748	664.25
1470.111932	665.25
1470.634062	664.5
1471.156136	666.5
1471.678156	664.0
1472.20012	666.25
1472.72203	665.25
1473.243885	666.0
1473.765685	664.0
1474.28743	663.5
1474.80912	663.0
1475.330755	666.0
1475.852335	661.25
1476.37386	664.0
1476.89533	663.0
1477.416745	665.0
1477.938106	662.25
1478.459411	666.0
1478.980662	664.0
1479.501857	663.25
1480.022998	663.75
1480.544084	663.75
1481.065115	664.0
1481.586091	664.25
1482.107012	663.25
1482.627878	662.5
1483.14869	664.5
1483.669446	664.0
1484.190148	666.0
1484.710794	664.75
1485.231386	663.25
1485.751923	664.25
1486.272406	666.0
1486.792833	663.25
1487.313205	664.25
1487.833523	663.0
1488.353786	662.25
1488.873994	665.25
1489.394147	662.75
1489.914245	661.75
1490.434288	663.5
1490.954277	667.0
1491.474211	664.0
1491.99409	663.0
1492.513914	663.25
1493.033683	663.25
1493.553398	665.0
1494.073057	665.25
1494.592662	666.75
1495.112212	666.0
1495.631708	663.25
1496.151148	666.25
1496.670534	664.25
1497.189865	666.75
1497.709141	662.0
1498.228362	666.75
1498.747529	667.25
1499.266641	663.75
1499.785698	672.0
1500.3047	663.75
1500.823648	663.5
1501.34254	662.5
1501.861379	664.25
1502.380162	664.75
1502.89889	663.25
1503.417564	662.5
1503.936183	664.25
1504.454748	666.75
1504.973257	664.5
1505.491712	663.25
1506.010112	664.0
1506.528458	661.5
1507.046748	661.75
1507.564984	664.25
1508.083166	665.0
1508.601292	664.5
1509.119364	663.5
1509.637381	666.0
1510.155344	664.75
1510.673252	672.25
1511.191105	662.75
1511.708903	666.25
1512.226647	665.75
1512.744336	663.5
1513.261971	663.0
1513.77955	663.75
1514.297076	663.75
1514.814546	663.25
1515.331962	664.75
1515.849323	663.75
1516.366629	668.0
1516.883881	664.5
1517.401078	666.25
1517.918221	663.75
1518.435309	664.25
1518.952342	662.25
1519.469321	663.25
1519.986245	664.25
1520.503114	663.0
1521.019929	664.75
1521.536689	661.5
1522.053395	664.0
1522.570046	663.75
1523.086642	664.75
1523.603184	663.75
1524.119671	663.5
1524.636103	662.75
1525.152481	664.0
1525.668805	667.0
1526.185073	667.5
1526.701288	665.5
1527.217447	664.5
1527.733552	663.5
1528.249603	664.5
1528.765599	664.25
1529.28154	661.5
1529.797427	663.25
1530.313259	666.75
1530.829037	664.0
1531.34476	662.25
1531.860429	664.0
1532.376043	664.75
1532.891602	663.25
1533.407107	663.25
1533.922558	662.25
1534.437954	665.0
1534.953295	664.75
1535.468582	666.25
1535.983815	661.75
1536.498993	664.0
1537.014116	665.25
1537.529185	662.0
1538.044199	660.25
1538.559159	666.75
1539.074064	663.75
1539.588915	665.75
1540.103712	665.25
1540.618454	662.75
1541.133141	664.75
1541.647774	664.0
1542.162353	665.25
1542.676877	663.75
1543.191346	663.0
1543.705761	662.75
1544.220122	664.0
1544.734428	665.25
1545.24868	666.0
1545.762877	665.75
1546.27702	667.5
1546.791109	664.0
1547.305143	665.75
1547.819122	665.75
1548.333047	665.25
1548.846918	662.5
1549.360734	664.0
1549.874496	666.0
1550.388204	661.75
1550.901857	665.25
1551.415455	664.75
1551.929	662.5
1552.442489	664.0
1552.955925	661.0
1553.469306	663.5
1553.982632	671.25
1555.522286	795.0
1556.035395	661.5
1556.54845	662.25
1557.06145	666.5
1557.574396	666.25
1558.087288	665.75
1558.600125	663.5
1559.112908	666.25
1559.625637	662.25
1560.138311	665.5
1560.650931	664.0
1561.163497	665.5
1561.676008	663.25
1562.188465	664.5
1562.700867	665.25
1563.213216	665.0
1563.725509	665.0
1564.237749	664.5
1564.749934	665.25
1565.262065	666.5
1565.774142	666.5
1566.286164	661.5
1566.798132	663.75
1567.310046	666.0
1567.821906	666.0
1568.333711	666.0
1568.845462	661.25
1569.357158	663.0
1569.868801	662.0
1570.380389	666.5
1570.891922	663.25
1571.403402	665.0
1571.914827	661.0
1572.426198	662.0
1572.937515	665.0
1573.448777	664.5
1573.959985	664.25
1574.471139	665.0
1574.982239	664.5
1575.493285	665.25
1576.004276	665.75
1576.515213	661.5
1577.026096	664.25
1577.536924	663.5
1578.047698	663.5
1578.558419	665.0
1579.069084	665.25
1579.579696	663.25
1580.090254	663.5
1580.600757	662.0
1581.111206	662.5
1581.621601	664.0
1582.131941	665.5
1582.642228	665.75
1583.15246	665.5
1583.662638	665.75
1584.172762	668.25
1584.682832	665.75
1585.192847	662.0
1585.702809	662.75
1586.212716	665.25
1586.722569	665.25
1587.232368	664.25
1587.742113	664.0
1588.251803	665.5
1588.76144	666.25
1589.271022	662.25
1589.78055	664.75
1590.290024	660.75
1590.799444	666.0
1591.30881	664.0
1591.818121	663.25
1592.327379	661.75
