1042.452273	673.0
1043.018714	671.5999756
1043.585098	673.5999756
1044.151424	673.0
1044.717692	671.7999878
1045.283903	672.4000244
1045.850056	670.5999756
1046.416151	671.5999756
1046.982188	671.0
1047.548167	670.2000122
1048.114089	667.0
1048.679953	668.7999878
1049.24576	667.5999756
1049.811509	669.4000244
1050.3772	670.2000122
1050.942833	669.2000122
1051.508408	667.0
1052.073926	668.4000244
1052.639387	667.2000122
1053.204789	669.5999756
1053.770134	666.7999878
1054.335421	667.7999878
1054.900651	669.4000244
1055.465823	665.5999756
1056.030937	666.4000244
1056.595993	667.7999878
1057.160992	668.4000244
1057.725934	665.2000122
1058.290817	665.7999878
1058.855643	665.7999878
1059.420411	665.4000244
1059.985122	662.5999756
1060.549775	665.2000122
1061.114371	663.4000244
1061.678908	666.0
1062.243389	666.2000122
1062.807811	668.4000244
1064.500733	667.0
1065.064925	667.4000244
1065.62906	664.7999878
1066.193137	665.2000122
1066.757156	664.2000122
1067.321118	666.2000122
1067.885022	667.7999878
1068.448869	666.7999878
1069.012658	667.5999756
1069.57639	663.7999878
1070.140063	673.4000244
1070.70368	666.2000122
1071.267239	663.2000122
1071.83074	665.2000122
1072.394184	665.7999878
1072.95757	665.7999878
1073.520899	664.2000122
1074.08417	664.5999756
1074.647383	662.7999878
1075.21054	664.7999878
1075.773638	665.0
1076.336679	663.2000122
1076.899663	666.0
1077.462589	665.4000244
1078.025457	663.4000244
1078.588268	665.4000244
1079.151022	666.5999756
1079.713718	665.0
1080.276356	668.2000122
1080.838937	663.4000244
1081.401461	663.5999756
1081.963927	663.4000244
1082.526336	665.5999756
1083.088687	665.4000244
1083.650981	666.4000244
1084.213217	664.5999756
1084.775396	664.5999756
1085.337517	666.2000122
1085.899581	662.5999756
1086.461587	664.2000122
1087.023536	664.0
1087.585428	663.7999878
1088.147262	666.5999756
1088.709039	665.4000244
1089.270758	663.7999878
1089.83242	663.4000244
1090.394024	664.0
1090.955571	666.7999878
1091.517061	664.5999756
1092.078493	663.2000122
1092.639868	664.7999878
1093.201185	662.7999878
1093.762445	666.2000122
1094.323648	664.7999878
1094.884793	664.4000244
1095.445881	662.7999878
1096.006911	662.7999878
1096.567884	663.2000122
1097.1288	670.5999756
1097.689659	664.5999756
1098.25046	666.2000122
1098.811203	664.7999878
1099.37189	664.2000122
1099.932518	663.4000244
1100.49309	663.2000122
1101.053604	664.7999878
1101.614061	665.5999756
1102.174461	664.5999756
1102.734803	664.2000122
1103.295088	664.7999878
1103.855316	663.7999878
1104.415486	663.7999878
1104.975599	664.4000244
1105.535655	661.7999878
1106.095653	664.5999756
1106.655594	664.4000244
1107.215478	663.0
1107.775305	665.4000244
1108.335074	663.0
1108.894786	663.2000122
1109.45444	662.4000244
1110.014038	665.5999756
1110.573578	664.4000244
1111.133061	662.4000244
1111.692486	665.2000122
1112.251854	666.0
1112.811165	663.4000244
1113.370419	663.7999878
1113.929616	664.7999878
1114.488755	664.2000122
1115.047837	663.5999756
1115.606862	661.0
1116.16583	664.0
1116.72474	664.7999878
1117.283593	668.0
1117.842389	662.0
1118.401128	660.0
1118.959809	662.2000122
1119.518433	665.0
1120.077	665.0
1120.63551	664.0
1121.193963	666.0
1121.752358	664.5999756
1122.310697	663.5999756
1122.868978	665.4000244
1123.427202	665.5999756
1123.985368	661.4000244
1124.543478	664.0
1125.10153	665.2000122
1125.659526	665.5999756
1126.217464	662.5999756
1126.775345	664.2000122
1127.333168	664.4000244
1127.890935	666.2000122
1128.448644	665.0
1129.006297	663.4000244
1129.563892	662.2000122
1130.12143	664.4000244
1130.678911	661.5999756
1131.236335	664.2000122
1131.793701	664.7999878
1132.351011	664.7999878
1132.908263	664.4000244
1133.465458	662.5999756
1134.022597	664.7999878
1134.579678	663.2000122
1135.136702	664.5999756
1135.693669	662.7999878
1136.250578	664.4000244
1136.807431	662.4000244
1137.364227	663.7999878
1137.920965	662.0
1138.477647	663.2000122
1139.034271	665.2000122
1139.590839	665.5999756
1140.147349	664.7999878
1140.703802	662.2000122
1141.260198	662.7999878
1141.816537	664.7999878
1142.37282	665.5999756
1142.929045	663.7999878
1143.485213	666.2000122
1144.041323	661.5999756
1144.597377	666.4000244
1145.153374	663.2000122
1145.709314	664.5999756
1146.265197	662.5999756
1146.821023	666.2000122
1147.376792	664.5999756
1147.932503	666.4000244
1148.488158	663.4000244
1149.043756	661.2000122
1149.599297	665.2000122
1150.154781	665.0
1150.710207	666.5999756
1151.265577	664.0
1151.82089	666.0
1152.376146	664.2000122
1152.931345	663.0
1153.486487	664.5999756
1154.041572	666.0
1154.5966	665.5999756
1155.151571	666.7999878
1155.706485	663.4000244
1156.261342	663.4000244
1156.816142	666.4000244
1157.370885	663.7999878
1157.925572	665.0
1158.480201	664.7999878
1159.034774	664.2000122
1159.589289	663.2000122
1160.143748	664.7999878
1160.698149	662.7999878
1161.252494	665.0
1161.806782	664.4000244
1162.361013	665.4000244
1162.915187	665.2000122
1163.469304	663.2000122
1164.023364	663.4000244
1164.577368	661.7999878
1165.131314	663.2000122
1165.685204	665.0
1166.239036	663.4000244
1166.792812	662.4000244
1167.346531	664.0
1167.900193	662.5999756
1168.453798	663.2000122
1169.007347	666.5999756
1169.560838	665.0
1170.114273	663.5999756
1170.66765	664.0
1171.220971	666.4000244
1171.774235	662.5999756
1172.327443	664.2000122
1172.880593	663.7999878
1173.433687	663.7999878
1173.986723	666.4000244
1174.539703	662.4000244
1175.092626	663.2000122
1175.645493	665.4000244
1176.198302	663.4000244
1176.751055	667.4000244
1177.303751	664.7999878
1177.85639	664.7999878
1178.408972	665.0
1178.961498	660.7999878
1179.513966	664.4000244
1180.066378	665.4000244
1180.618733	662.7999878
1181.171032	664.4000244
1181.723273	665.7999878
1182.275458	663.0
1182.827586	662.2000122
1183.379657	666.0
1183.931672	662.2000122
1184.48363	663.5999756
1185.035531	664.4000244
1185.587375	665.4000244
1186.139162	663.7999878
1186.690893	664.7999878
1187.242567	664.2000122
1187.794184	664.7999878
1188.345745	662.7999878
1188.897249	663.4000244
1189.448696	662.7999878
1190.000086	663.5999756
1190.55142	665.2000122
1191.102697	664.2000122
1191.653918	664.4000244
1192.205081	664.2000122
1192.756188	662.5999756
1193.307238	686.4000244
1193.858232	664.7999878
1194.409169	664.2000122
1194.960049	665.0
1195.510872	664.0
1196.061639	663.5999756
1196.612349	660.2000122
1197.163003	663.7999878
1197.713599	664.7999878
1198.264139	664.7999878
1198.814623	664.5999756
1199.36505	664.7999878
1199.91542	663.7999878
1200.465734	662.5999756
1201.01599	667.0
1201.566191	660.7999878
1202.116334	663.4000244
1202.666421	665.5999756
1203.216452	666.0
1203.766425	664.7999878
1204.316343	664.7999878
1204.866203	664.0
1205.416007	664.7999878
1205.965754	665.4000244
1206.515445	663.4000244
1207.065079	665.5999756
1207.614657	662.5999756
1208.164177	664.0
1208.713642	664.7999878
1209.26305	662.5999756
1209.812401	661.7999878
1210.361695	664.4000244
1210.910933	665.2000122
1211.460115	662.2000122
1212.00924	663.5999756
1212.558308	666.5999756
1213.10732	664.2000122
1213.656275	662.5999756
1214.205174	665.7999878
1214.754016	666.2000122
1215.302801	664.4000244
1215.85153	664.4000244
1216.400203	666.2000122
1216.948819	661.7999878
1217.497378	664.5999756
1218.045881	664.5999756
1218.594327	664.5999756
1219.142717	666.4000244
1219.691051	665.2000122
1220.239327	663.7999878
1220.787548	666.2000122
1221.335712	666.4000244
1221.883819	663.0
1222.43187	668.0
1222.979864	666.0
1223.527802	664.0
1224.075683	666.4000244
1224.623508	666.5999756
1225.171277	665.7999878
1225.718989	663.7999878
1226.266644	666.5999756
1226.814243	665.0
1227.361786	664.0
1227.909272	664.4000244
1228.456702	665.2000122
1229.004075	667.2000122
1229.551392	664.0
1230.098652	666.7999878
1230.645856	663.7999878
1231.193003	663.7999878
1231.740094	668.5999756
1232.287129	666.7999878
1232.834107	664.5999756
1233.381029	668.4000244
1233.927894	668.2000122
1234.474703	667.4000244
1235.021455	665.2000122
1235.568151	665.0
1236.114791	667.2000122
1236.661374	667.0
1237.207901	665.2000122
1237.754372	664.0
1238.300786	667.4000244
1238.847144	664.5999756
1239.393445	663.7999878
1239.93969	667.7999878
1240.485879	665.2000122
1241.032011	668.7999878
1241.578087	664.7999878
1242.124106	667.4000244
1242.67007	667.5999756
1243.215976	670.0
1243.761827	666.5999756
1244.307621	668.0
1244.853359	670.2000122
1245.39904	668.0
1245.944665	667.2000122
1246.490234	667.2000122
1247.035746	668.7999878
1247.581203	669.5999756
1248.126602	669.4000244
1248.671946	666.5999756
1249.217233	668.2000122
1249.762464	666.4000244
1250.307638	667.2000122
1250.852757	666.7999878
1251.397819	668.7999878
1251.942824	666.5999756
1252.487774	670.4000244
1253.032667	669.5999756
1253.577503	668.2000122
1254.122284	668.5999756
1254.667008	666.0
1255.211676	670.7999878
1255.756288	669.4000244
1256.300843	667.4000244
1256.845342	671.0
1257.389785	671.2000122
1257.934172	679.7999878
1258.478502	677.7999878
1259.022776	673.4000244
1259.566994	677.0
1260.111156	697.7999878
1260.655261	678.5999756
1261.199311	681.5999756
1261.743304	694.0
1262.28724	692.5999756
1262.831121	697.5999756
1263.374945	699.5999756
1263.918713	700.2000122
1264.462425	694.2000122
1265.006081	688.4000244
1265.54968	685.5999756
1266.093223	678.0
1266.636711	679.5999756
1267.180141	675.5999756
1267.723516	676.2000122
1268.266835	676.4000244
1268.810097	675.5999756
1269.353303	672.4000244
1269.896453	676.2000122
1270.439547	675.5999756
1270.982584	672.7999878
1271.525566	675.2000122
1272.068491	672.5999756
1272.61136	675.0
1273.154173	676.5999756
1273.69693	678.2000122
1274.239631	675.4000244
1274.782275	674.0
1275.324864	675.4000244
1275.867396	680.0
1276.409872	680.5999756
1276.952292	680.5999756
1277.494656	680.4000244
1278.036964	683.0
1278.579215	684.2000122
1279.121411	690.7999878
1279.66355	694.2000122
1280.205634	706.4000244
1280.747661	720.2000122
1281.289632	753.4000244
1281.831547	830.0
1282.373406	979.5999756
1282.915209	1178.400024
1283.456955	1271.800049
1283.998646	1150.400024
1284.540281	954.2000122
1285.081859	815.4000244
1285.623381	753.4000244
1286.164848	724.0
1286.706258	703.7999878
1287.247612	692.7999878
1287.788911	690.5999756
1288.330153	685.2000122
1288.871339	681.2000122
1289.412469	681.2000122
1289.953543	676.5999756
1290.494561	676.7999878
1291.035523	676.5999756
1291.576428	675.7999878
1292.117278	678.0
1292.658072	674.5999756
1293.19881	678.0
1293.739492	675.5999756
1294.280118	673.2000122
1294.820687	674.2000122
1295.361201	671.5999756
1295.901659	675.4000244
1296.442061	673.5999756
1296.982406	672.7999878
1297.522696	671.2000122
1298.06293	671.7999878
1298.603108	672.0
1299.143229	668.5999756
1299.683295	670.4000244
1300.223305	669.4000244
1300.763259	670.2000122
1301.303157	667.0
1301.842999	671.7999878
1302.382785	670.2000122
1302.922515	670.0
1303.462189	670.5999756
1304.001807	669.2000122
1304.541369	667.5999756
1305.080875	673.5999756
1305.620326	668.0
1306.15972	669.0
1306.699058	671.7999878
1307.238341	668.4000244
1307.777567	667.5999756
1308.316738	670.5999756
1308.855853	667.7999878
1309.394912	668.5999756
1309.933915	670.2000122
1310.472862	667.2000122
1311.011753	669.0
1311.550588	669.0
1312.089367	668.2000122
1312.62809	666.7999878
1313.166758	666.5999756
1313.70537	670.2000122
1314.243925	667.4000244
1314.782425	666.4000244
1315.320869	666.5999756
1315.859257	667.2000122
1316.397589	666.0
1316.935866	668.2000122
1317.474086	666.7999878
1318.012251	669.4000244
1318.55036	668.4000244
1319.088413	667.5999756
1319.62641	667.0
1320.164351	667.5999756
1320.702236	668.5999756
1321.240066	669.2000122
1321.777839	668.2000122
1322.315557	665.4000244
1322.853219	668.2000122
1323.390826	670.7999878
1323.928376	673.5999756
1324.465871	666.4000244
1325.003309	668.2000122
1325.540692	668.4000244
1326.07802	670.2000122
1326.615291	668.0
1327.152506	670.0
1327.689666	665.7999878
1328.22677	663.7999878
1328.763818	669.5999756
1329.300811	667.4000244
1329.837747	663.4000244
1330.374628	668.5999756
1330.911453	666.7999878
1331.448222	669.0
1331.984936	668.5999756
1332.521594	665.0
1333.058196	669.7999878
1333.594742	667.7999878
1334.131232	667.4000244
1334.667667	668.5999756
1335.204046	667.5999756
1335.740369	669.7999878
1336.276637	665.5999756
1336.812848	668.2000122
1337.349004	667.0
1337.885105	669.4000244
1338.421149	668.2000122
1338.957138	667.2000122
1339.493071	665.0
1340.028949	666.4000244
1340.56477	666.7999878
1341.100536	670.0
1341.636246	668.0
1342.171901	666.7999878
1342.7075	668.7999878
1343.243043	668.2000122
1343.77853	668.7999878
1344.313962	667.0
1344.849338	667.0
1345.384659	669.0
1345.919923	670.0
1346.455133	666.4000244
1346.990286	668.0
1347.525384	668.5999756
1348.060426	667.4000244
1348.595412	669.2000122
1349.130343	670.2000122
1349.665218	670.0
1350.200037	666.2000122
1350.734801	667.7999878
1351.269509	667.4000244
1351.804162	668.5999756
1352.338758	669.0
1352.8733	668.7999878
1353.407785	667.7999878
1353.942215	670.7999878
1354.476589	667.4000244
1355.010908	668.5999756
1355.545171	669.2000122
1356.079379	670.0
1356.61353	669.5999756
1357.147627	667.5999756
1357.681667	669.7999878
1358.215652	669.7999878
1358.749582	670.2000122
1359.283456	671.0
1359.817274	674.2000122
1360.351037	671.7999878
1360.884744	671.0
1361.418395	672.2000122
1361.951991	670.0
1362.485531	671.0
1363.019016	670.0
1363.552445	672.5999756
1364.085819	672.2000122
1364.619137	673.4000244
1365.1524	674.5999756
1365.685607	674.0
1366.218758	669.4000244
1366.751854	673.7999878
1367.284894	669.5999756
1367.817879	672.2000122
1368.350808	676.7999878
1368.883682	678.4000244
1369.4165	688.0
1369.949263	696.4000244
1370.48197	688.2000122
1371.014622	677.2000122
1371.547218	673.5999756
1372.079758	674.0
1372.612244	673.0
1373.144673	677.7999878
1373.677047	673.7999878
1374.209366	676.4000244
1374.741629	676.4000244
1375.273836	677.5999756
1375.805989	676.7999878
1376.338085	675.0
1376.870126	678.4000244
1377.402112	680.5999756
1377.934042	678.2000122
1378.465917	682.0
1378.997736	681.4000244
1379.5295	684.0
1380.061208	684.4000244
1380.592861	686.4000244
1381.124459	689.4000244
1381.656	688.7999878
1382.187487	693.5999756
1382.718918	696.7999878
1383.250294	700.2000122
1383.781614	708.4000244
1384.312879	719.4000244
1384.844088	737.7999878
1385.375242	775.2000122
1385.90634	839.2000122
1386.437383	994.7999878
1386.968371	1374.400024
1387.499303	1869.199951
1388.03018	1830.400024
1388.561001	1272.0
1389.091767	931.5999756
1389.622478	805.5999756
1390.153133	743.5999756
1390.683733	719.0
1391.214277	707.2000122
1391.744766	701.7999878
1392.2752	693.0
1392.805578	691.2000122
1393.335901	687.0
1393.866168	687.0
1394.396381	683.2000122
1394.926537	686.2000122
1395.456639	678.4000244
1395.986685	679.4000244
1396.516675	679.5999756
1397.046611	680.2000122
1397.576491	675.5999756
1398.106315	676.0
1398.636084	677.5999756
1399.165798	677.2000122
1399.695457	675.2000122
1400.22506	675.5999756
1400.754608	676.0
1401.284101	677.2000122
1401.813538	678.7999878
1402.34292	678.0
1402.872247	678.0
1403.401518	673.7999878
1403.930734	676.2000122
1404.459895	680.5999756
1404.989	682.5999756
1405.51805	681.5999756
1406.047045	685.7999878
1406.575984	687.4000244
1407.104869	690.2000122
1407.633697	703.2000122
1408.162471	712.4000244
1408.691189	721.0
1409.219852	730.2000122
1409.74846	721.5999756
1410.277013	710.2000122
1410.80551	698.7999878
1411.333952	685.5999756
1411.862339	681.5999756
1412.39067	680.7999878
1412.918946	674.7999878
1413.447167	671.5999756
1413.975333	674.4000244
1414.503444	672.4000244
1415.031499	669.4000244
1415.559499	682.2000122
1416.087444	668.0
1416.615333	668.4000244
1417.143167	666.7999878
1417.670947	668.0
1418.19867	667.4000244
1418.726339	669.7999878
1419.253952	669.7999878
1419.781511	670.4000244
1420.309014	667.5999756
1420.836461	669.7999878
1421.363854	669.2000122
1421.891191	666.2000122
1422.418474	665.7999878
1422.945701	671.4000244
1423.472872	666.2000122
1423.999989	666.2000122
1424.52705	668.4000244
1425.054057	666.2000122
1425.581008	668.2000122
1426.107904	669.7999878
1426.634745	666.0
1427.16153	667.0
1427.688261	667.0
1428.214936	668.0
1428.741556	667.7999878
1429.268121	668.2000122
1429.794631	668.0
1430.321085	665.7999878
1430.847485	666.2000122
1431.373829	666.0
1431.900118	666.5999756
1432.426353	665.2000122
1432.952532	665.5999756
1433.478655	664.7999878
1434.004724	667.2000122
1434.530738	664.4000244
1435.056696	665.0
1435.5826	665.7999878
1436.108448	667.5999756
1436.634241	663.0
1437.159979	665.0
1437.685662	664.7999878
1438.21129	662.5999756
1438.736863	663.5999756
1439.262381	663.5999756
1439.787843	662.5999756
1440.313251	664.7999878
1440.838603	664.0
1441.3639	663.0
1441.889143	662.0
1442.41433	664.4000244
1442.939462	660.4000244
1443.464539	663.2000122
1443.989561	664.0
1444.514528	662.5999756
1445.03944	665.0
1445.564297	663.5999756
1446.089099	663.7999878
1446.613846	663.4000244
1447.138537	663.4000244
1447.663174	665.2000122
1448.187756	663.0
1448.712282	663.4000244
1449.236754	665.0
1449.761171	662.7999878
1450.285532	662.5999756
1450.809839	662.0
1451.33409	661.0
1451.858287	661.0
1452.382428	663.4000244
1452.906515	664.0
1453.430546	661.0
1453.954523	660.5999756
1454.478444	661.2000122
1455.002311	661.4000244
1455.526123	660.5999756
1456.049879	663.0
1456.573581	661.5999756
1457.097227	661.4000244
1457.620819	661.4000244
1458.144356	662.5999756
1458.667837	662.5999756
1459.191264	662.2000122
1459.714636	662.0
1460.237952	659.7999878
1460.761214	659.7999878
1461.284421	664.7999878
1461.807573	663.2000122
1462.33067	661.5999756
1462.853712	663.5999756
1463.376699	663.4000244
1463.899632	660.2000122
1464.422509	662.5999756
1464.945331	662.4000244
1465.468099	662.7999878
1465.990811	660.7999878
1466.513469	663.2000122
1467.036071	663.5999756
1467.558619	661.7999878
1468.081112	661.4000244
1468.60355	662.2000122
1469.125933	661.7999878
1469.648261	660.5999756
1470.170534	663.0
1470.692752	661.0
1471.214916	662.0
1471.737024	663.0
1472.259078	664.4000244
1472.781077	663.0
1473.303021	663.7999878
1473.82491	663.7999878
1474.346744	662.2000122
1474.868523	660.7999878
1475.390248	660.2000122
1475.911917	662.4000244
1476.433532	663.2000122
1476.955092	660.7999878
1477.476597	665.2000122
1477.998047	659.5999756
1478.519442	660.5999756
1479.040783	661.2000122
1479.562068	662.4000244
1480.083299	662.0
1480.604475	659.4000244
1481.125596	661.7999878
1481.646663	660.5999756
1482.167674	662.2000122
1482.688631	662.5999756
1483.209533	662.4000244
1483.73038	662.7999878
1484.251172	663.0
1484.771909	660.4000244
1485.292592	661.2000122
1485.81322	665.4000244
1486.333793	659.4000244
1486.854311	660.7999878
1487.374775	660.7999878
1487.895183	663.7999878
1488.415537	661.2000122
1488.935836	662.2000122
1489.456081	662.4000244
1489.97627	660.2000122
1490.496405	658.4000244
1491.016485	661.5999756
1491.536511	661.7999878
1492.056481	663.7999878
1492.576397	660.2000122
1493.096258	661.2000122
1493.616064	662.2000122
1494.135816	660.0
1494.655513	659.7999878
1495.175155	663.2000122
1495.694742	663.4000244
1496.214274	661.4000244
1496.733752	661.7999878
1497.253175	661.7999878
1497.772544	660.2000122
1498.291858	662.5999756
1498.811116	659.4000244
1499.330321	662.5999756
1499.84947	669.2000122
1500.368565	665.4000244
1500.887605	662.4000244
1501.406591	661.5999756
1501.925521	661.0
1502.444397	662.2000122
1502.963219	661.0
1503.481985	659.5999756
1504.000697	661.2000122
1504.519355	662.2000122
1505.037957	663.0
1505.556505	661.0
1506.074999	660.7999878
1506.593437	662.4000244
1507.111821	660.7999878
1507.63015	660.0
1508.148425	663.4000244
1508.666645	660.5999756
1509.18481	660.4000244
1509.702921	660.2000122
1510.220977	658.7999878
1510.738979	669.5999756
1511.256925	659.5999756
1511.774817	661.4000244
1512.292655	661.5999756
1512.810438	663.0
1513.328166	659.0
1513.84584	660.2000122
1514.363459	663.0
1514.881023	663.4000244
1515.398533	663.2000122
1515.915988	660.0
1516.433389	660.0
1516.950734	659.7999878
1517.468026	660.7999878
1517.985263	661.5999756
1518.502445	662.0
1519.019572	661.0
1519.536645	659.0
1520.053664	659.7999878
1520.570628	663.0
1521.087537	663.4000244
1521.604392	661.0
1522.121192	663.4000244
1522.637937	659.7999878
1523.154628	661.4000244
1523.671265	662.7999878
1524.187847	659.5999756
1524.704374	661.0
1525.220847	662.4000244
1525.737265	660.4000244
1526.253629	664.2000122
1526.769938	662.2000122
1527.286192	660.0
1527.802392	662.4000244
1528.318538	663.0
1528.834629	660.7999878
1529.350666	661.5999756
1529.866648	662.7999878
1530.382575	659.5999756
1530.898448	660.5999756
1531.414266	658.0
1531.93003	660.4000244
1532.44574	659.5999756
1532.961395	661.4000244
1533.476995	661.4000244
1533.992541	661.0
1534.508033	661.5999756
1535.02347	659.2000122
1535.538852	661.7999878
1536.05418	660.0
1536.569454	660.4000244
1537.084673	660.7999878
1537.599837	659.2000122
1538.114947	660.7999878
1538.630003	663.2000122
1539.145004	659.7999878
1539.659951	660.5999756
1540.174843	659.0
1540.689681	661.0
1541.204465	661.2000122
1541.719194	663.0
1542.233868	658.7999878
1542.748488	659.5999756
1543.263054	658.2000122
1543.777565	660.4000244
1544.292022	663.0
1544.806424	659.7999878
1545.320772	659.2000122
1545.835066	662.0
1546.349305	660.7999878
1546.863489	663.0
1547.37762	662.0
1547.891696	661.4000244
1548.405717	662.2000122
1548.919684	663.2000122
1549.433597	660.0
1549.947455	661.7999878
1550.461259	659.4000244
1550.975009	661.2000122
1551.488704	661.0
1552.002345	659.2000122
1552.515931	660.2000122
1553.029463	661.4000244
1553.542941	660.4000244
1554.056364	661.2000122
1554.569733	660.2000122
1555.083048	658.2000122
1555.596308	662.0
1556.109514	661.2000122
1556.622665	662.0
1557.135762	661.5999756
1557.648805	660.0
1558.161794	658.2000122
1558.674728	659.7999878
1559.187608	659.4000244
1559.700433	658.4000244
1560.213205	659.7999878
1560.725921	661.0
1561.238584	662.2000122
1561.751192	661.2000122
1562.263746	659.4000244
1562.776246	661.0
1563.288691	663.4000244
1563.801082	662.2000122
1564.313419	660.4000244
1564.825701	659.7999878
1565.337929	661.7999878
1565.850103	657.0
1566.362223	660.5999756
1566.874288	660.4000244
1567.386299	659.7999878
1567.898256	660.7999878
1568.410158	661.2000122
1568.922007	660.5999756
1569.4338	660.5999756
1569.94554	663.4000244
1570.457226	663.0
1570.968857	661.0
1571.480434	659.2000122
1571.991956	661.7999878
1572.503425	661.4000244
1573.014839	663.5999756
1573.526199	660.2000122
1574.037505	658.4000244
1574.548756	659.4000244
1575.059953	660.7999878
1575.571096	659.5999756
1576.082185	660.0
1576.59322	658.4000244
1577.1042	659.7999878
1577.615126	660.7999878
1578.125998	660.4000244
1578.636816	661.2000122
1579.14758	662.7999878
1579.658289	661.2000122
1580.168944	663.2000122
1580.679545	660.5999756
1581.190092	659.5999756
1581.700585	661.0
1582.211023	658.0
1582.721407	659.5999756
1583.231737	659.7999878
1583.742013	660.4000244
1584.252235	660.7999878
1584.762403	659.4000244
1585.272516	661.4000244
1585.782575	660.0
1586.292581	661.4000244
1586.802532	658.5999756
1587.312428	660.7999878
1587.822271	662.4000244
1588.33206	661.2000122
1588.841794	662.2000122
1589.351474	660.7999878
1589.8611	659.7999878
1590.370672	658.4000244
1590.88019	660.7999878
1591.389654	661.4000244
1591.899064	661.0
1592.408419	659.0
