1042.452273	671.2000122
1043.018714	671.2000122
1043.585098	672.0
1044.151424	669.2000122
1044.717692	670.2000122
1045.283903	667.7999878
1045.850056	669.4000244
1046.416151	664.5999756
1046.982188	669.2000122
1047.548167	667.2000122
1048.114089	667.0
1048.679953	665.7999878
1049.24576	665.7999878
1049.811509	666.0
1050.3772	665.4000244
1050.942833	666.0
1051.508408	667.4000244
1052.073926	664.7999878
1052.639387	664.7999878
1053.204789	665.4000244
1053.770134	663.5999756
1054.335421	663.5999756
1054.900651	662.0
1055.465823	666.7999878
1056.030937	666.0
1056.595993	665.4000244
1057.160992	665.7999878
1057.725934	663.4000244
1058.290817	661.4000244
1058.855643	662.4000244
1059.420411	664.7999878
1059.985122	664.5999756
1060.549775	664.4000244
1061.114371	663.0
1061.678908	661.2000122
1062.243389	663.0
1062.807811	662.7999878
1063.372176	662.5999756
1063.936483	664.5999756
1064.500733	661.5999756
1065.064925	660.7999878
1065.62906	664.2000122
1066.193137	665.7999878
1066.757156	661.5999756
1067.321118	663.0
1067.885022	661.2000122
1068.448869	663.5999756
1069.012658	663.2000122
1069.57639	663.5999756
1070.140063	670.7999878
1070.70368	664.5999756
1071.267239	664.0
1071.83074	660.5999756
1072.394184	665.0
1072.95757	660.2000122
1073.520899	662.5999756
1074.08417	662.2000122
1074.647383	664.2000122
1075.21054	662.7999878
1075.773638	663.7999878
1076.336679	659.7999878
1076.899663	663.0
1077.462589	664.5999756
1078.025457	661.7999878
1078.588268	662.0
1079.151022	659.5999756
1079.713718	662.7999878
1080.276356	662.0
1080.838937	660.4000244
1081.401461	662.4000244
1081.963927	659.0
1082.526336	664.5999756
1083.088687	660.5999756
1083.650981	663.7999878
1084.213217	662.2000122
1084.775396	661.0
1085.337517	662.5999756
1085.899581	663.7999878
1086.461587	660.5999756
1087.023536	663.7999878
1087.585428	660.5999756
1088.147262	661.4000244
1088.709039	662.4000244
1089.270758	662.5999756
1089.83242	661.5999756
1090.394024	661.7999878
1090.955571	663.4000244
1091.517061	662.2000122
1092.078493	662.5999756
1092.639868	662.0
1093.201185	662.5999756
1093.762445	663.5999756
1094.323648	659.7999878
1094.884793	660.4000244
1095.445881	663.0
1096.006911	661.7999878
1096.567884	662.0
1097.1288	665.7999878
1097.689659	658.7999878
1098.25046	660.2000122
1098.811203	662.2000122
1099.37189	661.2000122
1099.932518	662.0
1100.49309	662.5999756
1101.053604	660.7999878
1101.614061	660.2000122
1102.174461	661.2000122
1102.734803	660.4000244
1103.295088	659.2000122
1103.855316	661.7999878
1104.415486	661.2000122
1104.975599	660.4000244
1105.535655	661.4000244
1106.095653	660.7999878
1106.655594	661.2000122
1107.215478	662.5999756
1107.775305	660.5999756
1108.335074	659.7999878
1108.894786	661.4000244
1109.45444	661.5999756
1110.014038	660.2000122
1110.573578	661.0
1111.133061	661.4000244
1111.692486	662.5999756
1112.251854	662.2000122
1112.811165	661.2000122
1113.370419	662.0
1113.929616	660.7999878
1114.488755	661.5999756
1115.047837	662.0
1115.606862	660.0
1116.16583	661.4000244
1116.72474	661.4000244
1117.283593	662.0
1117.842389	661.5999756
1118.401128	661.5999756
1118.959809	657.7999878
1119.518433	661.5999756
1120.077	662.4000244
1120.63551	663.4000244
1121.193963	661.2000122
1121.752358	663.0
1122.310697	660.5999756
1122.868978	662.5999756
1123.427202	663.2000122
1123.985368	661.7999878
1124.543478	660.5999756
1125.10153	661.4000244
1125.659526	661.5999756
1126.217464	660.7999878
1126.775345	660.5999756
1127.333168	662.5999756
1127.890935	661.2000122
1128.448644	661.4000244
1129.006297	661.0
1129.563892	661.2000122
1130.12143	662.0
1130.678911	662.2000122
1131.236335	661.4000244
1131.793701	663.7999878
1132.351011	661.4000244
1132.908263	660.7999878
1133.465458	660.4000244
1134.022597	660.2000122
1134.579678	661.0
1135.136702	659.2000122
1135.693669	661.4000244
1136.250578	661.5999756
1136.807431	657.7999878
1137.364227	662.5999756
1137.920965	660.2000122
1138.477647	662.4000244
1139.034271	661.4000244
1139.590839	660.0
1140.147349	659.4000244
1140.703802	662.7999878
1141.260198	660.2000122
1141.816537	661.7999878
1142.37282	661.5999756
1142.929045	660.5999756
1143.485213	662.2000122
1144.041323	661.4000244
1144.597377	662.4000244
1145.153374	659.5999756
1145.709314	662.5999756
1146.265197	661.5999756
1146.821023	663.2000122
1147.376792	659.5999756
1147.932503	661.7999878
1148.488158	661.0
1149.043756	659.4000244
1149.599297	661.2000122
1150.154781	661.5999756
1150.710207	661.7999878
1151.265577	663.4000244
1151.82089	662.2000122
1152.376146	661.2000122
1152.931345	664.0
1153.486487	660.4000244
1154.041572	661.0
1154.5966	663.4000244
1155.151571	661.5999756
1155.706485	659.7999878
1156.261342	659.5999756
1156.816142	660.7999878
1157.370885	662.4000244
1157.925572	661.0
1158.480201	662.7999878
1159.034774	661.0
1159.589289	659.7999878
1160.143748	660.7999878
1160.698149	660.0
1161.252494	661.7999878
1161.806782	659.5999756
1162.361013	662.2000122
1162.915187	661.7999878
1163.469304	663.0
1164.023364	659.2000122
1164.577368	661.0
1165.131314	662.4000244
1165.685204	661.4000244
1166.239036	661.4000244
1166.792812	661.2000122
1167.346531	662.5999756
1167.900193	660.2000122
1168.453798	660.2000122
1169.007347	661.5999756
1169.560838	660.2000122
1170.114273	662.0
1170.66765	660.4000244
1171.220971	661.2000122
1171.774235	661.0
1172.327443	659.2000122
1172.880593	660.4000244
1173.433687	659.7999878
1173.986723	662.2000122
1174.539703	663.2000122
1175.092626	663.0
1175.645493	662.0
1176.198302	659.4000244
1176.751055	661.2000122
1177.303751	659.0
1177.85639	661.5999756
1178.408972	661.7999878
1178.961498	661.7999878
1179.513966	661.5999756
1180.066378	658.5999756
1180.618733	662.7999878
1181.171032	659.5999756
1181.723273	661.7999878
1182.275458	661.4000244
1182.827586	661.5999756
1183.379657	662.0
1183.931672	660.0
1184.48363	662.7999878
1185.035531	661.5999756
1185.587375	662.7999878
1186.139162	660.0
1186.690893	660.5999756
1187.242567	661.5999756
1187.794184	661.7999878
1188.345745	662.2000122
1188.897249	660.5999756
1189.448696	659.5999756
1190.000086	663.5999756
1190.55142	659.5999756
1191.102697	660.7999878
1191.653918	663.7999878
1192.205081	662.0
1192.756188	661.2000122
1193.307238	684.2000122
1193.858232	660.4000244
1194.409169	658.5999756
1194.960049	660.4000244
1195.510872	661.0
1196.061639	660.4000244
1196.612349	663.2000122
1197.163003	659.4000244
1197.713599	660.7999878
1198.264139	660.5999756
1198.814623	660.5999756
1199.36505	658.7999878
1199.91542	662.2000122
1200.465734	662.0
1201.01599	661.0
1201.566191	661.2000122
1202.116334	660.2000122
1202.666421	662.4000244
1203.216452	660.7999878
1203.766425	660.2000122
1204.316343	660.7999878
1204.866203	662.5999756
1205.416007	659.7999878
1205.965754	663.5999756
1206.515445	665.2000122
1207.065079	662.0
1207.614657	659.5999756
1208.164177	664.5999756
1208.713642	662.7999878
1209.26305	661.7999878
1209.812401	662.0
1210.361695	661.7999878
1210.910933	662.2000122
1211.460115	658.5999756
1212.00924	663.0
1212.558308	660.5999756
1213.10732	662.5999756
1213.656275	661.4000244
1214.205174	663.0
1214.754016	663.4000244
1215.302801	663.2000122
1215.85153	662.0
1216.400203	662.0
1216.948819	661.4000244
1217.497378	662.5999756
1218.045881	662.4000244
1218.594327	660.4000244
1219.142717	664.0
1219.691051	661.2000122
1220.239327	663.7999878
1220.787548	661.7999878
1221.335712	662.4000244
1221.883819	661.7999878
1222.43187	662.7999878
1222.979864	662.5999756
1223.527802	662.7999878
1224.075683	663.5999756
1224.623508	662.4000244
1225.171277	663.5999756
1225.718989	660.2000122
1226.266644	663.0
1226.814243	662.5999756
1227.361786	663.5999756
1227.909272	661.4000244
1228.456702	664.4000244
1229.004075	662.0
1229.551392	661.7999878
1230.098652	662.0
1230.645856	662.7999878
1231.193003	661.7999878
1231.740094	666.5999756
1232.287129	661.2000122
1232.834107	661.7999878
1233.381029	661.4000244
1233.927894	663.2000122
1234.474703	663.0
1235.021455	662.2000122
1235.568151	663.7999878
1236.114791	660.2000122
1236.661374	661.7999878
1237.207901	661.4000244
1237.754372	662.5999756
1238.300786	659.5999756
1238.847144	661.7999878
1239.393445	660.7999878
1239.93969	660.4000244
1240.485879	662.4000244
1241.032011	664.7999878
1241.578087	664.7999878
1242.124106	663.4000244
1242.67007	665.4000244
1243.215976	664.2000122
1243.761827	664.2000122
1244.307621	664.0
1244.853359	664.2000122
1245.39904	665.0
1245.944665	663.2000122
1246.490234	665.2000122
1247.035746	662.7999878
1247.581203	665.2000122
1248.126602	660.4000244
1248.671946	667.5999756
1249.217233	665.4000244
1249.762464	663.7999878
1250.307638	664.7999878
1250.852757	661.7999878
1251.397819	665.7999878
1251.942824	664.5999756
1252.487774	661.5999756
1253.032667	665.7999878
1253.577503	665.4000244
1254.122284	665.4000244
1254.667008	663.5999756
1255.211676	665.5999756
1255.756288	663.5999756
1256.300843	666.2000122
1256.845342	665.5999756
1257.389785	670.2000122
1257.934172	667.2000122
1258.478502	671.4000244
1259.022776	667.7999878
1259.566994	669.0
1260.111156	688.7999878
1260.655261	672.2000122
1261.199311	677.2000122
1261.743304	681.0
1262.28724	680.5999756
1262.831121	686.5999756
1263.374945	686.2000122
1263.918713	691.2000122
1264.462425	683.4000244
1265.006081	679.0
1265.54968	676.4000244
1266.093223	675.2000122
1266.636711	673.4000244
1267.180141	670.4000244
1267.723516	671.4000244
1268.266835	668.7999878
1268.810097	668.5999756
1269.353303	670.4000244
1269.896453	669.4000244
1270.439547	669.7999878
1270.982584	670.7999878
1271.525566	668.5999756
1272.068491	669.2000122
1272.61136	671.0
1273.154173	669.7999878
1273.69693	668.2000122
1274.239631	670.5999756
1274.782275	670.7999878
1275.324864	671.0
1275.867396	669.2000122
1276.409872	672.4000244
1276.952292	674.2000122
1277.494656	673.7999878
1278.036964	674.4000244
1278.579215	674.5999756
1279.121411	674.5999756
1279.66355	682.7999878
1280.205634	689.4000244
1280.747661	704.4000244
1281.289632	730.4000244
1281.831547	780.5999756
1282.373406	898.5999756
1282.915209	1050.199951
1283.456955	1125.800049
1283.998646	1040.400024
1284.540281	893.0
1285.081859	787.7999878
1285.623381	730.7999878
1286.164848	702.4000244
1286.706258	693.4000244
1287.247612	685.0
1287.788911	680.7999878
1288.330153	677.4000244
1288.871339	677.5999756
1289.412469	673.4000244
1289.953543	673.7999878
1290.494561	671.2000122
1291.035523	673.4000244
1291.576428	668.7999878
1292.117278	668.2000122
1292.658072	670.2000122
1293.19881	669.2000122
1293.739492	670.4000244
1294.280118	669.0
1294.820687	667.2000122
1295.361201	666.7999878
1295.901659	667.0
1296.442061	664.2000122
1296.982406	670.0
1297.522696	668.5999756
1298.06293	666.2000122
1298.603108	668.4000244
1299.143229	666.2000122
1299.683295	666.4000244
1300.223305	667.7999878
1300.763259	665.2000122
1301.303157	668.2000122
1301.842999	666.0
1302.382785	665.0
1302.922515	668.4000244
1303.462189	665.5999756
1304.001807	667.5999756
1304.541369	664.0
1305.080875	667.0
1305.620326	667.0
1306.15972	665.2000122
1306.699058	664.2000122
1307.238341	662.4000244
1307.777567	666.5999756
1308.316738	663.5999756
1308.855853	666.7999878
1309.394912	665.0
1309.933915	664.0
1310.472862	665.2000122
1311.011753	663.7999878
1311.550588	666.4000244
1312.089367	663.0
1312.62809	665.0
1313.166758	665.4000244
1313.70537	663.0
1314.243925	663.4000244
1314.782425	665.2000122
1315.320869	668.0
1315.859257	663.2000122
1316.397589	664.2000122
1316.935866	661.4000244
1317.474086	666.2000122
1318.012251	667.0
1318.55036	667.4000244
1319.088413	663.2000122
1319.62641	664.5999756
1320.164351	664.5999756
1320.702236	662.4000244
1321.240066	660.4000244
1321.777839	661.5999756
1322.315557	665.0
1322.853219	663.4000244
1323.390826	665.4000244
1323.928376	667.5999756
1324.465871	665.0
1325.003309	663.0
1325.540692	663.2000122
1326.07802	668.5999756
1326.615291	666.0
1327.152506	663.4000244
1327.689666	667.4000244
1328.22677	664.7999878
1328.763818	664.4000244
1329.300811	666.2000122
1329.837747	664.5999756
1330.374628	660.5999756
1330.911453	664.5999756
1331.448222	665.0
1331.984936	665.7999878
1332.521594	663.4000244
1333.058196	663.0
1333.594742	667.0
1334.131232	665.0
1334.667667	664.7999878
1335.204046	663.2000122
1335.740369	666.0
1336.276637	667.0
1336.812848	664.0
1337.349004	665.7999878
1337.885105	660.7999878
1338.421149	663.4000244
1338.957138	665.0
1339.493071	664.2000122
1340.028949	665.4000244
1340.56477	663.5999756
1341.100536	665.4000244
1341.636246	667.5999756
1342.171901	664.7999878
1342.7075	666.0
1343.243043	665.5999756
1343.77853	662.4000244
1344.313962	666.2000122
1344.849338	664.5999756
1345.384659	661.7999878
1345.919923	663.4000244
1346.455133	662.7999878
1346.990286	665.7999878
1347.525384	665.4000244
1348.060426	665.5999756
1348.595412	664.0
1349.130343	661.2000122
1349.665218	665.5999756
1350.200037	662.0
1350.734801	666.7999878
1351.269509	664.4000244
1351.804162	665.7999878
1352.338758	663.7999878
1352.8733	668.0
1353.407785	664.7999878
1353.942215	667.7999878
1354.476589	663.7999878
1355.010908	667.4000244
1355.545171	665.2000122
1356.079379	666.4000244
1356.61353	667.7999878
1357.147627	668.5999756
1357.681667	667.2000122
1358.215652	665.2000122
1358.749582	666.5999756
1359.283456	664.0
1359.817274	663.7999878
1360.351037	667.5999756
1360.884744	665.4000244
1361.418395	665.7999878
1361.951991	667.2000122
1362.485531	666.5999756
1363.019016	669.0
1363.552445	667.4000244
1364.085819	664.4000244
1364.619137	669.5999756
1365.1524	670.4000244
1365.685607	671.2000122
1366.218758	665.7999878
1366.751854	667.0
1367.284894	665.2000122
1367.817879	667.5999756
1368.350808	668.0
1368.883682	668.7999878
1369.4165	680.4000244
1369.949263	683.4000244
1370.48197	679.7999878
1371.014622	673.2000122
1371.547218	670.5999756
1372.079758	670.0
1372.612244	670.2000122
1373.144673	670.2000122
1373.677047	669.7999878
1374.209366	671.0
1374.741629	670.4000244
1375.273836	671.2000122
1375.805989	671.0
1376.338085	673.0
1376.870126	673.4000244
1377.402112	670.4000244
1377.934042	672.7999878
1378.465917	672.5999756
1378.997736	669.4000244
1379.5295	674.0
1380.061208	676.0
1380.592861	675.0
1381.124459	680.5999756
1381.656	677.4000244
1382.187487	680.5999756
1382.718918	684.7999878
1383.250294	687.4000244
1383.781614	692.4000244
1384.312879	699.7999878
1384.844088	716.4000244
1385.375242	744.0
1385.90634	790.0
1386.437383	903.2000122
1386.968371	1184.800049
1387.499303	1588.800049
1388.03018	1551.599976
1388.561001	1135.400024
1389.091767	883.5999756
1389.622478	769.5999756
1390.153133	726.4000244
1390.683733	709.7999878
1391.214277	696.0
1391.744766	688.7999878
1392.2752	683.0
1392.805578	679.5999756
1393.335901	678.4000244
1393.866168	679.7999878
1394.396381	679.2000122
1394.926537	675.5999756
1395.456639	675.0
1395.986685	675.2000122
1396.516675	673.0
1397.046611	671.4000244
1397.576491	672.7999878
1398.106315	672.0
1398.636084	673.2000122
1399.165798	672.7999878
1399.695457	671.0
1400.22506	671.2000122
1400.754608	671.5999756
1401.284101	671.5999756
1401.813538	668.5999756
1402.34292	673.2000122
1402.872247	673.5999756
1403.401518	673.7999878
1403.930734	673.5999756
1404.459895	670.5999756
1404.989	673.0
1405.51805	675.2000122
1406.047045	677.7999878
1406.575984	680.2000122
1407.104869	685.0
1407.633697	692.2000122
1408.162471	698.0
1408.691189	707.0
1409.219852	708.0
1409.74846	707.2000122
1410.277013	699.2000122
1410.80551	692.4000244
1411.333952	678.4000244
1411.862339	674.0
1412.39067	671.4000244
1412.918946	671.4000244
1413.447167	666.5999756
1413.975333	669.0
1414.503444	666.4000244
1415.031499	668.5999756
1415.559499	681.2000122
1416.087444	666.5999756
1416.615333	663.5999756
1417.143167	667.2000122
1417.670947	665.4000244
1418.19867	665.0
1418.726339	664.5999756
1419.253952	663.0
1419.781511	668.2000122
1420.309014	664.7999878
1420.836461	663.2000122
1421.363854	666.0
1421.891191	664.4000244
1422.418474	668.5999756
1422.945701	665.2000122
1423.472872	665.7999878
1423.999989	666.2000122
1424.52705	665.5999756
1425.054057	664.0
1425.581008	664.5999756
1426.107904	661.7999878
1426.634745	663.0
1427.16153	662.4000244
1427.688261	665.7999878
1428.214936	664.5999756
1428.741556	664.0
1429.268121	660.2000122
1429.794631	662.5999756
1430.321085	659.7999878
1430.847485	661.5999756
1431.373829	660.7999878
1431.900118	664.0
1432.426353	662.5999756
1432.952532	662.4000244
1433.478655	660.4000244
1434.004724	662.7999878
1434.530738	661.5999756
1435.056696	662.4000244
1435.5826	663.7999878
1436.108448	662.2000122
1436.634241	661.7999878
1437.159979	662.7999878
1437.685662	661.5999756
1438.21129	661.5999756
1438.736863	663.0
1439.262381	660.7999878
1439.787843	661.0
1440.313251	660.2000122
1440.838603	660.7999878
1441.3639	662.0
1441.889143	663.0
1442.41433	661.4000244
1442.939462	661.5999756
1443.464539	663.5999756
1443.989561	661.5999756
1444.514528	661.5999756
1445.03944	662.5999756
1445.564297	662.4000244
1446.089099	657.7999878
1446.613846	660.5999756
1447.138537	663.2000122
1447.663174	660.0
1448.187756	661.2000122
1448.712282	662.7999878
1449.236754	660.7999878
1449.761171	660.7999878
1450.285532	660.0
1450.809839	661.4000244
1451.33409	661.5999756
1451.858287	661.5999756
1452.382428	660.2000122
1452.906515	657.7999878
1453.430546	660.7999878
1453.954523	658.5999756
1454.478444	661.7999878
1455.002311	661.4000244
1455.526123	661.0
1456.049879	660.4000244
1456.573581	661.4000244
1457.097227	659.5999756
1457.620819	661.4000244
1458.144356	661.5999756
1458.667837	662.2000122
1459.191264	660.2000122
1459.714636	660.0
1460.237952	663.4000244
1460.761214	661.7999878
1461.284421	662.4000244
1461.807573	659.2000122
1462.33067	659.5999756
1462.853712	661.5999756
1463.376699	660.2000122
1463.899632	661.4000244
1464.422509	662.7999878
1464.945331	659.7999878
1465.468099	660.7999878
1465.990811	661.0
1466.513469	661.5999756
1467.036071	659.4000244
1467.558619	660.5999756
1468.081112	661.4000244
1468.60355	659.4000244
1469.125933	661.7999878
1469.648261	659.0
1470.170534	660.7999878
1470.692752	658.4000244
1471.214916	662.2000122
1471.737024	658.5999756
1472.259078	662.4000244
1472.781077	659.0
1473.303021	659.4000244
1473.82491	659.0
1474.346744	660.2000122
1474.868523	660.4000244
1475.390248	661.2000122
1475.911917	658.5999756
1476.433532	659.7999878
1476.955092	662.4000244
1477.476597	659.5999756
1477.998047	659.5999756
1478.519442	659.4000244
1479.040783	659.4000244
1479.562068	661.2000122
1480.083299	660.2000122
1480.604475	661.0
1481.125596	661.0
1481.646663	659.7999878
1482.167674	660.4000244
1482.688631	659.0
1483.209533	659.7999878
1483.73038	660.7999878
1484.251172	659.4000244
1484.771909	659.7999878
1485.292592	659.5999756
1485.81322	660.2000122
1486.333793	660.2000122
1486.854311	656.7999878
1487.374775	662.5999756
1487.895183	658.7999878
1490.496405	661.4000244
1491.016485	659.5999756
1491.536511	658.2000122
1492.056481	659.4000244
1492.576397	660.0
1493.096258	659.0
1493.616064	658.2000122
1494.135816	661.5999756
1494.655513	660.7999878
1495.175155	660.5999756
1495.694742	658.7999878
1496.214274	659.0
1496.733752	661.2000122
1497.253175	657.5999756
1497.772544	658.4000244
1498.291858	660.5999756
1498.811116	663.4000244
1499.330321	659.4000244
1499.84947	667.5999756
1500.368565	658.4000244
1500.887605	659.0
1501.406591	658.4000244
1501.925521	656.0
1502.444397	659.0
1502.963219	659.5999756
1503.481985	658.4000244
1504.000697	660.4000244
1504.519355	659.5999756
1505.037957	660.0
1505.556505	659.7999878
1506.593437	666.4000244
1507.111821	660.7999878
1507.63015	660.0
1508.148425	658.0
1508.666645	661.5999756
1509.18481	658.7999878
1509.702921	658.0
1510.220977	660.5999756
1510.738979	667.4000244
1511.256925	659.2000122
1511.774817	660.5999756
1512.292655	661.0
1512.810438	660.7999878
1513.328166	658.7999878
1513.84584	660.5999756
1514.363459	661.2000122
1514.881023	659.7999878
1515.398533	659.2000122
1515.915988	660.0
1516.433389	657.7999878
1516.950734	660.0
1517.468026	662.0
1517.985263	659.2000122
1518.502445	657.5999756
1519.019572	657.7999878
1519.536645	658.2000122
1520.053664	658.4000244
1520.570628	659.4000244
1521.087537	662.4000244
1521.604392	662.0
1522.121192	659.0
1522.637937	659.4000244
1523.154628	660.5999756
1523.671265	659.2000122
1524.187847	660.2000122
1524.704374	660.4000244
1525.220847	660.0
1525.737265	658.5999756
1526.253629	660.2000122
1526.769938	658.7999878
1527.286192	655.5999756
1527.802392	659.4000244
1528.318538	659.0
1528.834629	660.0
1529.350666	659.4000244
1529.866648	660.4000244
1530.382575	656.7999878
1530.898448	661.0
1531.414266	657.7999878
1531.93003	661.0
1532.44574	660.7999878
1532.961395	659.4000244
1533.476995	658.0
1533.992541	658.2000122
1534.508033	660.2000122
1535.02347	660.0
1535.538852	658.0
1536.05418	659.0
1536.569454	657.4000244
1537.084673	660.4000244
1537.599837	659.2000122
1538.114947	660.0
1538.630003	660.0
1539.145004	658.5999756
1539.659951	661.4000244
1540.174843	661.0
1540.689681	661.2000122
1541.204465	660.2000122
1541.719194	658.0
1542.233868	660.7999878
1542.748488	658.5999756
1543.263054	659.5999756
1543.777565	657.5999756
1544.292022	660.7999878
1544.806424	658.7999878
1545.320772	658.2000122
1545.835066	660.0
1546.349305	659.5999756
1546.863489	658.0
1547.37762	656.4000244
1547.891696	658.2000122
1548.405717	660.4000244
1548.919684	657.4000244
1549.433597	659.0
1549.947455	660.5999756
1550.461259	658.2000122
1550.975009	660.5999756
1551.488704	659.0
1552.002345	661.0
1552.515931	658.7999878
1553.029463	658.2000122
1553.542941	660.0
1554.056364	657.7999878
1554.569733	659.0
1555.083048	657.7999878
1555.596308	657.7999878
1556.109514	658.2000122
1556.622665	659.4000244
1557.135762	657.2000122
1557.648805	660.2000122
1558.161794	659.5999756
1558.674728	656.2000122
1559.187608	658.5999756
1559.700433	657.0
1560.213205	658.2000122
1560.725921	660.4000244
1561.238584	661.0
1561.751192	660.0
1562.263746	656.5999756
1562.776246	660.7999878
1563.288691	659.0
1563.801082	660.0
1564.313419	658.0
1564.825701	661.0
1565.337929	658.0
1565.850103	658.4000244
1566.362223	659.4000244
1566.874288	660.5999756
1567.386299	658.2000122
1567.898256	659.5999756
1568.410158	656.2000122
1568.922007	658.2000122
1569.4338	660.5999756
1569.94554	657.5999756
1570.457226	659.4000244
1570.968857	657.4000244
1571.480434	658.0
1571.991956	658.7999878
1572.503425	658.2000122
1573.014839	657.4000244
1573.526199	658.7999878
1574.037505	659.0
1574.548756	658.5999756
1575.059953	658.4000244
1575.571096	658.5999756
1576.082185	658.2000122
1576.59322	657.4000244
1577.1042	660.2000122
1577.615126	658.4000244
1578.125998	659.0
1578.636816	657.2000122
1579.14758	659.4000244
1579.658289	658.7999878
1580.168944	658.5999756
1580.679545	659.4000244
1581.190092	657.5999756
1581.700585	658.2000122
1582.211023	659.0
1582.721407	657.2000122
1583.231737	659.2000122
1583.742013	660.0
1584.252235	658.4000244
1584.762403	658.7999878
1585.272516	658.5999756
1585.782575	659.5999756
1586.292581	659.4000244
1586.802532	659.4000244
1587.312428	658.7999878
1587.822271	656.5999756
1588.33206	659.4000244
1588.841794	660.7999878
1589.351474	658.0
1589.8611	658.2000122
1590.370672	658.0
1590.88019	658.2000122
1591.389654	658.5999756
1591.899064	657.2000122
1592.408419	659.0
