1042.452273	670.4000244
1043.018714	670.0
1043.585098	667.7999878
1044.151424	669.5999756
1044.717692	671.0
1045.283903	669.4000244
1045.850056	668.7999878
1046.416151	669.7999878
1046.982188	665.2000122
1047.548167	665.0
1048.114089	665.0
1048.679953	667.4000244
1049.24576	666.2000122
1049.811509	665.0
1050.3772	666.7999878
1050.942833	663.2000122
1051.508408	665.2000122
1052.073926	666.2000122
1052.639387	667.2000122
1053.204789	665.5999756
1053.770134	662.7999878
1054.335421	662.7999878
1054.900651	664.5999756
1055.465823	659.5999756
1056.030937	664.0
1056.595993	664.2000122
1057.160992	665.2000122
1057.725934	664.2000122
1058.290817	660.4000244
1058.855643	661.7999878
1059.420411	666.0
1059.985122	661.5999756
1060.549775	662.5999756
1061.114371	659.7999878
1061.678908	661.5999756
1062.243389	664.0
1062.807811	662.4000244
1063.372176	661.5999756
1063.936483	659.2000122
1064.500733	665.0
1065.064925	663.0
1065.62906	662.2000122
1066.193137	665.0
1066.757156	661.5999756
1067.321118	661.2000122
1067.885022	660.5999756
1068.448869	659.2000122
1069.012658	663.0
1069.57639	661.5999756
1070.140063	671.0
1070.70368	661.7999878
1071.267239	661.4000244
1071.83074	659.0
1072.394184	661.4000244
1072.95757	660.2000122
1073.520899	659.7999878
1074.08417	660.5999756
1074.647383	660.7999878
1075.21054	661.0
1075.773638	662.0
1076.336679	663.2000122
1076.899663	662.4000244
1077.462589	660.0
1078.025457	660.2000122
1078.588268	664.7999878
1079.151022	663.7999878
1079.713718	662.7999878
1080.276356	661.0
1080.838937	658.7999878
1081.401461	662.5999756
1081.963927	661.5999756
1082.526336	663.2000122
1083.088687	662.4000244
1083.650981	661.7999878
1084.213217	660.4000244
1084.775396	663.0
1085.337517	659.7999878
1085.899581	662.7999878
1086.461587	659.7999878
1087.023536	663.0
1087.585428	661.4000244
1088.147262	661.2000122
1088.709039	661.5999756
1089.270758	660.4000244
1089.83242	661.2000122
1090.394024	662.5999756
1090.955571	661.0
1091.517061	660.7999878
1092.078493	661.4000244
1092.639868	660.5999756
1093.201185	662.5999756
1093.762445	660.0
1094.323648	662.5999756
1094.884793	661.7999878
1095.445881	659.4000244
1096.006911	662.0
1096.567884	659.2000122
1097.1288	672.0
1097.689659	660.2000122
1098.25046	662.5999756
1098.811203	662.5999756
1099.37189	659.7999878
1099.932518	659.0
1100.49309	661.2000122
1101.053604	661.5999756
1101.614061	660.2000122
1102.174461	658.4000244
1102.734803	659.4000244
1103.295088	662.2000122
1103.855316	661.5999756
1104.415486	661.5999756
1104.975599	659.4000244
1105.535655	662.0
1106.095653	664.2000122
1106.655594	660.7999878
1107.215478	663.5999756
1107.775305	660.4000244
1108.335074	662.5999756
1108.894786	661.7999878
1109.45444	659.4000244
1110.014038	660.2000122
1110.573578	661.7999878
1111.133061	662.5999756
1111.692486	661.5999756
1112.251854	661.5999756
1112.811165	661.7999878
1113.370419	658.2000122
1113.929616	662.0
1114.488755	662.0
1115.047837	659.7999878
1115.606862	660.2000122
1116.16583	662.2000122
1116.72474	660.7999878
1117.283593	660.7999878
1117.842389	663.5999756
1118.401128	662.2000122
1118.959809	662.4000244
1119.518433	661.5999756
1120.077	661.4000244
1120.63551	660.2000122
1121.193963	659.0
1121.752358	662.4000244
1122.310697	658.5999756
1122.868978	662.4000244
1123.427202	659.4000244
1123.985368	661.2000122
1124.543478	659.5999756
1125.10153	661.4000244
1125.659526	660.4000244
1126.217464	661.2000122
1126.775345	659.7999878
1127.333168	659.7999878
1127.890935	662.4000244
1128.448644	659.4000244
1129.006297	660.0
1129.563892	656.5999756
1130.12143	660.2000122
1130.678911	660.7999878
1131.236335	659.5999756
1131.793701	660.4000244
1132.351011	661.7999878
1132.908263	660.0
1133.465458	662.4000244
1134.022597	660.4000244
1134.579678	662.5999756
1135.136702	658.5999756
1135.693669	660.5999756
1136.250578	658.2000122
1136.807431	662.0
1137.364227	661.7999878
1137.920965	660.7999878
1138.477647	660.5999756
1139.034271	660.2000122
1139.590839	662.7999878
1140.147349	662.0
1140.703802	662.0
1141.260198	662.7999878
1141.816537	658.0
1142.37282	661.2000122
1142.929045	659.4000244
1143.485213	660.5999756
1144.041323	660.2000122
1144.597377	661.2000122
1145.153374	660.5999756
1145.709314	662.0
1146.265197	662.0
1146.821023	658.7999878
1147.376792	659.2000122
1147.932503	659.2000122
1148.488158	660.7999878
1149.043756	661.2000122
1149.599297	659.5999756
1150.154781	661.4000244
1150.710207	661.5999756
1151.265577	659.4000244
1151.82089	659.2000122
1152.376146	660.5999756
1152.931345	660.0
1153.486487	662.4000244
1154.041572	662.4000244
1154.5966	659.4000244
1155.151571	661.5999756
1155.706485	661.2000122
1156.261342	662.2000122
1156.816142	659.0
1157.370885	661.2000122
1157.925572	660.0
1158.480201	659.0
1159.034774	660.5999756
1159.589289	662.5999756
1160.143748	660.2000122
1160.698149	661.7999878
1161.252494	662.2000122
1161.806782	659.4000244
1162.361013	662.0
1162.915187	660.2000122
1163.469304	659.4000244
1164.023364	661.4000244
1164.577368	658.5999756
1165.131314	660.5999756
1165.685204	661.2000122
1166.239036	659.0
1166.792812	661.2000122
1167.346531	660.0
1167.900193	660.7999878
1168.453798	660.5999756
1169.007347	658.2000122
1169.560838	658.5999756
1170.114273	662.2000122
1170.66765	663.5999756
1171.220971	662.7999878
1171.774235	660.4000244
1172.327443	661.2000122
1172.880593	661.4000244
1173.433687	662.4000244
1173.986723	660.5999756
1174.539703	660.7999878
1175.092626	660.7999878
1175.645493	659.7999878
1176.198302	662.0
1176.751055	662.2000122
1177.303751	661.7999878
1177.85639	662.7999878
1178.408972	661.5999756
1178.961498	660.5999756
1179.513966	662.2000122
1180.066378	661.5999756
1180.618733	660.2000122
1181.171032	660.5999756
1181.723273	661.4000244
1182.275458	659.4000244
1182.827586	661.4000244
1183.379657	662.4000244
1183.931672	661.0
1184.48363	660.0
1185.035531	660.5999756
1185.587375	660.5999756
1186.139162	659.5999756
1186.690893	660.4000244
1187.242567	660.0
1187.794184	661.0
1188.345745	662.4000244
1188.897249	661.4000244
1189.448696	661.5999756
1190.000086	660.2000122
1190.55142	660.0
1191.102697	661.5999756
1191.653918	663.2000122
1192.205081	662.2000122
1192.756188	660.7999878
1193.307238	681.5999756
1193.858232	660.0
1194.409169	662.0
1194.960049	661.0
1195.510872	658.4000244
1196.061639	662.7999878
1196.612349	661.4000244
1197.163003	662.0
1197.713599	661.5999756
1198.264139	659.5999756
1198.814623	663.5999756
1199.36505	659.2000122
1199.91542	661.5999756
1200.465734	661.7999878
1201.01599	659.7999878
1201.566191	662.7999878
1202.116334	661.7999878
1202.666421	661.2000122
1203.216452	660.4000244
1203.766425	659.0
1204.316343	659.7999878
1204.866203	660.7999878
1205.416007	659.4000244
1205.965754	661.5999756
1206.515445	659.7999878
1207.065079	661.2000122
1207.614657	661.2000122
1208.164177	661.2000122
1208.713642	662.0
1209.26305	659.5999756
1209.812401	658.7999878
1210.361695	661.7999878
1210.910933	661.7999878
1211.460115	661.0
1212.00924	659.2000122
1212.558308	658.2000122
1213.10732	661.2000122
1213.656275	660.7999878
1214.205174	661.0
1214.754016	664.0
1215.302801	660.5999756
1215.85153	660.4000244
1216.400203	659.7999878
1216.948819	659.4000244
1217.497378	660.4000244
1218.045881	662.5999756
1218.594327	661.4000244
1219.142717	662.2000122
1219.691051	662.5999756
1220.239327	663.5999756
1220.787548	660.4000244
1221.335712	663.0
1221.883819	663.2000122
1222.43187	661.4000244
1222.979864	663.0
1223.527802	661.0
1224.075683	662.4000244
1224.623508	662.4000244
1225.171277	661.0
1225.718989	662.0
1226.266644	660.4000244
1226.814243	664.5999756
1227.361786	662.5999756
1227.909272	661.5999756
1228.456702	656.5999756
1229.004075	663.4000244
1229.551392	663.4000244
1230.098652	663.5999756
1230.645856	664.0
1231.193003	661.0
1231.740094	664.7999878
1232.287129	661.0
1232.834107	661.4000244
1233.381029	661.7999878
1233.927894	663.7999878
1234.474703	662.7999878
1235.021455	664.2000122
1235.568151	662.7999878
1236.114791	660.5999756
1236.661374	664.0
1237.207901	664.7999878
1237.754372	662.0
1238.300786	661.4000244
1238.847144	663.2000122
1239.393445	662.0
1239.93969	661.2000122
1240.485879	662.5999756
1241.032011	661.2000122
1241.578087	660.4000244
1242.124106	664.0
1242.67007	665.7999878
1243.215976	663.5999756
1243.761827	660.7999878
1244.307621	663.2000122
1244.853359	664.7999878
1245.39904	662.4000244
1245.944665	661.7999878
1246.490234	663.5999756
1247.035746	664.5999756
1247.581203	662.7999878
1248.126602	663.4000244
1248.671946	665.7999878
1249.217233	665.2000122
1249.762464	664.2000122
1250.307638	663.5999756
1250.852757	663.2000122
1251.397819	664.7999878
1251.942824	664.0
1252.487774	664.4000244
1253.032667	664.0
1253.577503	663.5999756
1254.122284	664.5999756
1254.667008	662.7999878
1255.211676	665.7999878
1255.756288	665.7999878
1256.300843	663.7999878
1256.845342	663.2000122
1257.389785	668.4000244
1257.934172	667.2000122
1258.478502	673.4000244
1259.022776	669.0
1259.566994	666.2000122
1260.111156	687.5999756
1260.655261	673.5999756
1261.199311	671.0
1261.743304	676.7999878
1262.28724	679.2000122
1262.831121	685.0
1263.374945	690.2000122
1263.918713	688.5999756
1264.462425	681.5999756
1265.006081	681.2000122
1265.54968	675.7999878
1266.093223	672.5999756
1266.636711	673.0
1267.180141	668.0
1267.723516	671.4000244
1268.266835	669.7999878
1268.810097	669.2000122
1269.353303	667.0
1269.896453	670.2000122
1270.439547	666.5999756
1270.982584	665.4000244
1271.525566	671.7999878
1272.068491	671.2000122
1273.69693	669.7999878
1274.239631	669.0
1274.782275	668.4000244
1275.324864	668.7999878
1275.867396	669.5999756
1276.409872	667.0
1276.952292	670.4000244
1277.494656	674.2000122
1278.036964	672.2000122
1278.579215	675.7999878
1279.121411	678.7999878
1279.66355	679.7999878
1280.205634	688.0
1280.747661	703.2000122
1281.289632	729.5999756
1281.831547	779.4000244
1282.373406	878.5999756
1282.915209	1026.400024
1283.456955	1109.599976
1283.998646	1028.800049
1284.540281	879.7999878
1285.081859	783.5999756
1285.623381	725.0
1286.164848	699.7999878
1286.706258	686.4000244
1287.247612	684.7999878
1287.788911	677.0
1288.330153	675.5999756
1288.871339	677.7999878
1289.412469	675.0
1289.953543	671.4000244
1290.494561	672.7999878
1291.035523	672.4000244
1291.576428	669.0
1292.117278	670.5999756
1292.658072	668.2000122
1293.19881	669.4000244
1293.739492	666.7999878
1294.280118	668.2000122
1294.820687	667.7999878
1295.361201	667.4000244
1295.901659	665.5999756
1296.442061	667.7999878
1296.982406	669.0
1297.522696	666.0
1298.06293	666.4000244
1298.603108	664.4000244
1299.143229	666.5999756
1299.683295	667.2000122
1300.223305	669.0
1300.763259	665.2000122
1301.303157	666.5999756
1301.842999	663.7999878
1302.382785	664.2000122
1302.922515	664.7999878
1303.462189	664.7999878
1304.001807	666.7999878
1304.541369	661.4000244
1305.080875	664.0
1305.620326	663.5999756
1306.15972	665.7999878
1306.699058	665.4000244
1307.238341	666.2000122
1307.777567	665.4000244
1308.316738	664.4000244
1308.855853	665.0
1309.394912	665.2000122
1309.933915	666.7999878
1310.472862	661.5999756
1311.011753	664.2000122
1311.550588	665.5999756
1312.089367	665.4000244
1312.62809	662.0
1313.166758	664.2000122
1313.70537	666.4000244
1314.243925	662.0
1314.782425	666.0
1315.320869	664.0
1315.859257	662.2000122
1316.397589	663.2000122
1316.935866	666.4000244
1317.474086	662.2000122
1318.012251	664.4000244
1318.55036	665.5999756
1319.088413	664.5999756
1319.62641	664.0
1320.164351	662.5999756
1320.702236	665.5999756
1321.240066	664.5999756
1321.777839	662.7999878
1322.315557	663.4000244
1322.853219	664.5999756
1323.390826	663.0
1323.928376	668.7999878
1324.465871	665.2000122
1325.003309	664.0
1325.540692	662.4000244
1326.07802	666.2000122
1326.615291	662.7999878
1327.152506	662.5999756
1327.689666	662.7999878
1328.22677	666.0
1328.763818	663.4000244
1329.300811	665.0
1329.837747	663.7999878
1330.374628	664.7999878
1330.911453	665.4000244
1331.448222	664.2000122
1331.984936	662.2000122
1332.521594	663.7999878
1333.058196	667.2000122
1333.594742	665.2000122
1334.131232	660.2000122
1334.667667	662.7999878
1335.204046	666.5999756
1335.740369	665.4000244
1336.276637	666.7999878
1336.812848	664.0
1337.349004	664.0
1337.885105	665.2000122
1338.421149	663.2000122
1338.957138	662.5999756
1339.493071	663.5999756
1340.028949	665.0
1340.56477	665.2000122
1341.100536	662.0
1341.636246	663.2000122
1342.171901	663.2000122
1342.7075	666.5999756
1343.243043	663.7999878
1343.77853	662.2000122
1344.313962	663.2000122
1344.849338	663.0
1345.384659	662.0
1345.919923	664.7999878
1346.455133	664.4000244
1346.990286	662.2000122
1347.525384	663.0
1348.060426	665.2000122
1348.595412	661.0
1349.130343	665.5999756
1349.665218	660.7999878
1350.200037	665.4000244
1350.734801	663.2000122
1351.269509	664.5999756
1351.804162	667.5999756
1352.338758	667.0
1352.8733	666.7999878
1353.407785	665.4000244
1353.942215	665.0
1354.476589	664.5999756
1355.010908	663.7999878
1355.545171	668.5999756
1356.079379	665.7999878
1356.61353	664.4000244
1357.147627	665.2000122
1357.681667	662.4000244
1358.215652	666.4000244
1358.749582	666.0
1359.283456	662.7999878
1359.817274	666.0
1360.351037	666.4000244
1360.884744	664.7999878
1361.418395	664.7999878
1361.951991	666.2000122
1362.485531	666.2000122
1363.019016	664.5999756
1363.552445	667.5999756
1364.085819	668.5999756
1364.619137	667.4000244
1365.1524	668.7999878
1365.685607	667.2000122
1366.218758	669.2000122
1366.751854	665.5999756
1367.284894	666.2000122
1367.817879	666.5999756
1368.350808	669.4000244
1368.883682	671.4000244
1369.4165	677.4000244
1369.949263	684.2000122
1370.48197	674.7999878
1371.014622	670.4000244
1371.547218	667.5999756
1372.079758	669.2000122
1372.612244	668.5999756
1373.144673	669.5999756
1373.677047	669.4000244
1374.209366	665.4000244
1374.741629	671.5999756
1375.273836	668.7999878
1375.805989	671.0
1376.338085	670.0
1376.870126	668.2000122
1377.402112	670.4000244
1377.934042	672.4000244
1378.465917	673.0
1378.997736	672.5999756
1379.5295	672.5999756
1380.061208	671.0
1380.592861	676.4000244
1381.124459	674.7999878
1381.656	675.2000122
1382.187487	680.7999878
1382.718918	682.5999756
1383.250294	689.0
1383.781614	686.7999878
1384.312879	701.5999756
1384.844088	712.0
1385.375242	733.2000122
1385.90634	785.5999756
1386.437383	897.4000244
1386.968371	1156.199951
1387.499303	1523.599976
1388.03018	1505.800049
1388.561001	1122.599976
1389.091767	864.2000122
1389.622478	764.7999878
1390.153133	723.0
1390.683733	700.5999756
1391.214277	692.4000244
1391.744766	686.0
1392.2752	685.2000122
1392.805578	678.2000122
1393.335901	678.2000122
1393.866168	677.2000122
1394.396381	671.5999756
1394.926537	671.7999878
1395.456639	674.2000122
1395.986685	672.7999878
1396.516675	672.0
1397.046611	672.7999878
1397.576491	672.0
1398.106315	674.7999878
1398.636084	671.5999756
1399.165798	672.5999756
1399.695457	671.2000122
1400.22506	672.5999756
1400.754608	668.4000244
1401.284101	672.5999756
1401.813538	671.0
1402.34292	672.2000122
1402.872247	672.5999756
1403.401518	668.5999756
1403.930734	668.7999878
1404.459895	671.4000244
1404.989	671.5999756
1405.51805	675.4000244
1406.047045	676.4000244
1406.575984	678.2000122
1407.104869	680.5999756
1407.633697	689.7999878
1408.162471	697.2000122
1408.691189	699.5999756
1409.219852	707.0
1409.74846	707.0
1410.277013	694.5999756
1410.80551	685.2000122
1411.333952	679.7999878
1411.862339	675.4000244
1412.39067	670.2000122
1412.918946	669.0
1413.447167	669.5999756
1413.975333	666.7999878
1414.503444	665.0
1415.031499	668.0
1415.559499	678.5999756
1416.087444	667.0
1416.615333	666.4000244
1417.143167	663.0
1417.670947	663.5999756
1418.19867	665.4000244
1418.726339	664.0
1419.253952	664.2000122
1419.781511	664.7999878
1420.309014	665.0
1420.836461	663.7999878
1421.363854	663.2000122
1421.891191	664.5999756
1422.418474	663.4000244
1422.945701	663.0
1423.472872	660.4000244
1423.999989	663.7999878
1424.52705	663.5999756
1425.054057	665.7999878
1425.581008	662.2000122
1426.107904	664.4000244
1426.634745	664.4000244
1427.16153	661.2000122
1427.688261	663.2000122
1428.214936	663.2000122
1428.741556	660.5999756
1429.268121	663.5999756
1429.794631	662.2000122
1430.321085	665.2000122
1430.847485	661.5999756
1431.373829	661.7999878
1431.900118	662.2000122
1432.426353	659.5999756
1432.952532	660.4000244
1433.478655	661.7999878
1434.004724	664.7999878
1434.530738	661.0
1435.056696	662.7999878
1435.5826	662.0
1436.108448	661.0
1436.634241	662.0
1437.159979	662.2000122
1437.685662	663.0
1438.21129	661.2000122
1438.736863	662.5999756
1439.262381	661.0
1439.787843	660.4000244
1440.313251	660.7999878
1440.838603	661.5999756
1441.3639	660.4000244
1441.889143	663.5999756
1442.41433	660.5999756
1442.939462	662.0
1443.464539	661.5999756
1443.989561	660.7999878
1444.514528	659.2000122
1445.03944	661.4000244
1445.564297	659.7999878
1446.089099	660.7999878
1446.613846	660.0
1447.138537	660.4000244
1447.663174	660.2000122
1448.187756	659.7999878
1448.712282	660.5999756
1449.236754	658.5999756
1449.761171	660.7999878
1450.285532	659.0
1450.809839	662.7999878
1451.33409	658.0
1451.858287	660.5999756
1452.382428	660.4000244
1452.906515	660.4000244
1453.430546	661.2000122
1453.954523	659.5999756
1454.478444	661.2000122
1455.002311	658.5999756
1455.526123	661.2000122
1456.049879	659.0
1456.573581	659.2000122
1457.097227	661.7999878
1457.620819	660.7999878
1458.144356	660.7999878
1458.667837	659.4000244
1459.191264	660.4000244
1459.714636	658.5999756
1460.237952	662.5999756
1460.761214	660.5999756
1461.284421	661.2000122
1461.807573	659.7999878
1462.33067	659.2000122
1462.853712	660.0
1463.376699	661.5999756
1463.899632	659.5999756
1464.422509	660.4000244
1464.945331	661.5999756
1465.468099	658.4000244
1465.990811	658.2000122
1466.513469	658.7999878
1467.036071	661.2000122
1467.558619	660.4000244
1468.081112	659.4000244
1468.60355	661.0
1469.125933	661.0
1469.648261	660.4000244
1470.170534	662.0
1470.692752	660.4000244
1471.214916	660.5999756
1471.737024	660.4000244
1472.259078	661.4000244
1472.781077	663.0
1473.303021	659.7999878
1473.82491	659.5999756
1474.346744	658.5999756
1474.868523	657.7999878
1475.390248	659.4000244
1475.911917	659.4000244
1476.433532	660.2000122
1476.955092	659.4000244
1477.476597	661.0
1477.998047	659.4000244
1478.519442	661.5999756
1479.040783	659.5999756
1479.562068	658.4000244
1480.083299	659.4000244
1480.604475	659.2000122
1481.125596	659.0
1481.646663	659.7999878
1482.167674	660.7999878
1482.688631	659.0
1483.209533	659.5999756
1483.73038	660.2000122
1484.251172	660.4000244
1484.771909	660.4000244
1485.292592	659.4000244
1485.81322	662.2000122
1486.333793	660.0
1486.854311	662.5999756
1487.374775	660.0
1487.895183	659.7999878
1488.415537	661.0
1488.935836	661.0
1489.456081	658.2000122
1489.97627	659.5999756
1490.496405	659.5999756
1491.016485	660.2000122
1491.536511	658.5999756
1492.056481	661.0
1492.576397	660.4000244
1493.096258	659.0
1493.616064	659.5999756
1494.135816	660.4000244
1494.655513	657.0
1495.175155	660.2000122
1495.694742	658.0
1496.214274	659.7999878
1496.733752	659.5999756
1497.253175	659.2000122
1497.772544	657.5999756
1498.291858	662.2000122
1498.811116	660.0
1499.330321	656.4000244
1499.84947	664.5999756
1500.368565	659.4000244
1500.887605	656.4000244
1501.406591	659.0
1501.925521	659.2000122
1502.444397	658.5999756
1502.963219	658.5999756
1503.481985	660.0
1504.000697	659.7999878
1504.519355	657.5999756
1505.037957	659.5999756
1505.556505	659.4000244
1506.074999	657.7999878
1506.593437	659.5999756
1507.111821	659.2000122
1507.63015	658.2000122
1508.148425	659.2000122
1508.666645	660.0
1509.18481	659.5999756
1509.702921	657.4000244
1510.220977	660.2000122
1510.738979	664.2000122
1511.256925	658.7999878
1511.774817	661.0
1512.292655	658.7999878
1512.810438	659.5999756
1513.328166	658.4000244
1513.84584	658.7999878
1514.363459	659.0
1514.881023	658.4000244
1515.398533	659.7999878
1515.915988	659.2000122
1516.433389	659.0
1516.950734	658.5999756
1517.468026	657.7999878
1517.985263	660.2000122
1518.502445	659.7999878
1519.019572	661.7999878
1519.536645	659.2000122
1520.053664	658.7999878
1520.570628	660.2000122
1521.087537	659.5999756
1521.604392	660.5999756
1522.121192	658.5999756
1522.637937	658.7999878
1523.154628	658.2000122
1523.671265	657.5999756
1524.187847	658.0
1524.704374	660.2000122
1525.220847	660.2000122
1525.737265	659.4000244
1526.253629	659.7999878
1526.769938	656.5999756
1527.286192	659.0
1527.802392	655.7999878
1528.318538	661.0
1528.834629	658.7999878
1529.350666	659.5999756
1529.866648	659.5999756
1530.382575	660.4000244
1530.898448	657.7999878
1531.414266	659.7999878
1531.93003	659.0
1532.44574	656.7999878
1532.961395	658.5999756
1533.476995	656.7999878
1533.992541	661.7999878
1534.508033	658.5999756
1535.02347	658.5999756
1535.538852	659.7999878
1536.05418	658.2000122
1536.569454	658.7999878
1537.084673	659.2000122
1537.599837	658.0
1538.114947	660.5999756
1538.630003	658.2000122
1539.145004	659.5999756
1539.659951	661.2000122
1540.174843	657.7999878
1540.689681	661.2000122
1541.204465	657.5999756
1541.719194	660.2000122
1542.233868	658.7999878
1542.748488	658.4000244
1543.263054	660.2000122
1543.777565	658.4000244
1544.292022	657.5999756
1544.806424	657.2000122
1545.320772	658.4000244
1545.835066	660.0
1546.349305	661.4000244
1546.863489	657.5999756
1547.37762	659.2000122
1547.891696	656.7999878
1548.405717	657.4000244
1548.919684	656.7999878
1549.433597	661.0
1549.947455	660.2000122
1550.461259	658.5999756
1550.975009	657.2000122
1551.488704	658.5999756
1552.002345	658.4000244
1552.515931	656.0
1553.029463	658.7999878
1553.542941	660.0
1554.056364	658.0
1554.569733	660.5999756
1555.083048	657.7999878
1555.596308	662.0
1556.109514	657.5999756
1556.622665	660.4000244
1557.135762	659.5999756
1557.648805	660.4000244
1558.161794	659.5999756
1558.674728	657.5999756
1559.187608	659.0
1559.700433	661.2000122
1560.213205	659.4000244
1560.725921	657.0
1561.238584	657.0
1561.751192	659.7999878
1562.263746	657.2000122
1562.776246	660.0
1563.288691	659.2000122
1563.801082	657.7999878
1564.313419	658.0
1564.825701	659.7999878
1565.337929	657.4000244
1565.850103	658.2000122
1566.362223	659.2000122
1566.874288	661.4000244
1567.386299	658.4000244
1567.898256	660.0
1568.410158	659.4000244
1568.922007	661.2000122
1569.4338	656.4000244
1569.94554	659.7999878
1570.457226	657.4000244
1570.968857	659.2000122
1571.480434	658.0
1571.991956	657.7999878
1572.503425	659.4000244
1573.014839	656.7999878
1573.526199	657.7999878
1574.037505	656.0
1574.548756	658.7999878
1575.059953	657.2000122
1575.571096	657.7999878
1576.082185	660.0
1576.59322	659.4000244
1577.1042	657.4000244
1577.615126	658.7999878
1578.125998	658.0
1578.636816	659.5999756
1579.14758	657.4000244
1579.658289	660.2000122
1580.168944	657.7999878
1580.679545	660.5999756
1581.190092	659.0
1581.700585	659.7999878
1582.211023	660.4000244
1582.721407	656.7999878
1583.231737	656.5999756
1583.742013	657.7999878
1584.252235	657.4000244
1584.762403	659.2000122
1585.272516	658.0
1585.782575	658.0
1586.292581	659.4000244
1586.802532	658.0
1587.312428	656.0
1587.822271	657.2000122
1588.33206	657.4000244
1588.841794	658.5999756
1589.351474	658.7999878
1589.8611	654.2000122
1590.370672	658.5999756
1590.88019	661.7999878
1591.389654	659.2000122
1591.899064	658.2000122
1592.408419	658.0
