1042.452273	673.5999756
1043.018714	676.4000244
1043.585098	672.7999878
1044.151424	674.7999878
1044.717692	673.7999878
1045.283903	674.0
1045.850056	671.7999878
1046.416151	670.7999878
1046.982188	670.7999878
1047.548167	670.7999878
1048.114089	670.4000244
1048.679953	668.0
1049.24576	673.5999756
1049.811509	670.2000122
1050.3772	669.7999878
1050.942833	666.7999878
1051.508408	666.5999756
1052.073926	669.7999878
1052.639387	666.0
1053.204789	667.4000244
1053.770134	667.0
1054.335421	668.2000122
1054.900651	669.0
1055.465823	670.5999756
1056.030937	666.2000122
1056.595993	666.5999756
1057.160992	667.0
1057.725934	668.5999756
1058.290817	666.5999756
1058.855643	667.0
1059.420411	666.5999756
1059.985122	666.2000122
1060.549775	668.0
1061.114371	668.4000244
1061.678908	661.7999878
1062.243389	665.0
1062.807811	665.2000122
1063.372176	664.7999878
1063.936483	665.7999878
1064.500733	664.4000244
1065.064925	666.5999756
1065.62906	666.5999756
1066.193137	664.5999756
1066.757156	664.4000244
1067.321118	666.0
1067.885022	666.5999756
1068.448869	663.2000122
1069.012658	666.4000244
1069.57639	664.0
1070.140063	671.2000122
1070.70368	665.4000244
1071.267239	664.7999878
1071.83074	666.0
1072.394184	669.0
1072.95757	664.5999756
1073.520899	667.2000122
1074.08417	665.2000122
1074.647383	664.7999878
1075.21054	662.5999756
1075.773638	666.4000244
1076.336679	666.5999756
1076.899663	665.4000244
1077.462589	665.4000244
1078.025457	662.2000122
1078.588268	666.2000122
1079.151022	663.5999756
1079.713718	664.0
1080.276356	664.5999756
1080.838937	662.5999756
1081.401461	663.7999878
1081.963927	663.0
1082.526336	666.5999756
1083.088687	664.7999878
1083.650981	666.0
1084.213217	664.0
1084.775396	661.5999756
1085.337517	666.7999878
1085.899581	665.7999878
1086.461587	665.5999756
1087.023536	664.5999756
1087.585428	666.7999878
1089.270758	681.7999878
1089.83242	665.0
1090.394024	665.2000122
1090.955571	663.5999756
1091.517061	666.2000122
1092.078493	665.2000122
1092.639868	662.4000244
1093.201185	666.4000244
1093.762445	666.7999878
1094.323648	663.5999756
1094.884793	664.0
1095.445881	665.2000122
1096.006911	665.7999878
1096.567884	666.7999878
1097.1288	668.4000244
1097.689659	663.5999756
1098.25046	666.5999756
1098.811203	665.2000122
1099.37189	662.4000244
1099.932518	663.5999756
1100.49309	664.2000122
1101.053604	662.4000244
1101.614061	660.4000244
1102.174461	661.2000122
1102.734803	661.7999878
1103.295088	663.7999878
1103.855316	665.0
1104.415486	663.7999878
1104.975599	664.5999756
1105.535655	665.5999756
1106.095653	664.4000244
1106.655594	663.4000244
1107.215478	665.0
1107.775305	664.4000244
1108.335074	664.4000244
1108.894786	663.2000122
1109.45444	664.4000244
1110.014038	665.5999756
1110.573578	664.4000244
1111.133061	665.5999756
1111.692486	666.2000122
1112.251854	665.2000122
1112.811165	663.5999756
1113.370419	663.4000244
1113.929616	663.0
1114.488755	661.7999878
1115.047837	665.2000122
1115.606862	662.4000244
1116.16583	663.5999756
1116.72474	664.4000244
1117.283593	668.0
1117.842389	666.4000244
1118.401128	662.5999756
1118.959809	664.4000244
1119.518433	663.2000122
1120.077	664.2000122
1120.63551	663.0
1121.193963	661.7999878
1121.752358	664.0
1122.310697	663.7999878
1122.868978	663.0
1123.427202	665.4000244
1123.985368	664.5999756
1124.543478	666.4000244
1125.10153	663.5999756
1125.659526	664.2000122
1126.217464	663.5999756
1126.775345	665.0
1127.333168	664.7999878
1127.890935	665.4000244
1128.448644	664.4000244
1129.006297	662.5999756
1129.563892	661.7999878
1130.12143	663.4000244
1130.678911	662.0
1131.236335	667.2000122
1131.793701	663.4000244
1132.351011	663.0
1132.908263	662.7999878
1133.465458	666.5999756
1134.022597	665.2000122
1134.579678	662.4000244
1135.136702	663.0
1135.693669	662.4000244
1136.250578	665.2000122
1136.807431	662.4000244
1137.364227	663.4000244
1137.920965	662.5999756
1138.477647	660.7999878
1139.034271	665.7999878
1139.590839	662.4000244
1140.147349	662.5999756
1140.703802	665.7999878
1141.260198	665.2000122
1141.816537	664.0
1142.37282	664.4000244
1142.929045	661.5999756
1143.485213	664.5999756
1144.041323	662.5999756
1144.597377	664.0
1145.153374	664.4000244
1145.709314	664.5999756
1146.265197	663.7999878
1146.821023	662.0
1147.376792	662.0
1147.932503	665.0
1148.488158	662.5999756
1149.043756	663.0
1149.599297	664.2000122
1150.154781	664.7999878
1150.710207	666.7999878
1151.265577	664.4000244
1151.82089	665.2000122
1152.376146	664.2000122
1152.931345	663.2000122
1153.486487	663.7999878
1154.041572	664.4000244
1154.5966	664.7999878
1155.151571	664.7999878
1155.706485	661.7999878
1156.261342	664.2000122
1156.816142	664.4000244
1157.370885	664.7999878
1157.925572	662.5999756
1158.480201	663.5999756
1159.034774	662.2000122
1159.589289	664.2000122
1160.143748	662.0
1160.698149	665.4000244
1161.252494	662.7999878
1161.806782	664.0
1162.361013	664.2000122
1162.915187	661.4000244
1163.469304	665.4000244
1164.023364	665.5999756
1164.577368	663.5999756
1165.131314	664.7999878
1165.685204	663.7999878
1166.239036	663.5999756
1166.792812	665.0
1167.346531	662.7999878
1167.900193	662.7999878
1168.453798	663.0
1169.007347	663.5999756
1169.560838	663.4000244
1170.114273	665.0
1170.66765	665.0
1171.220971	662.5999756
1171.774235	662.2000122
1172.327443	663.2000122
1172.880593	663.5999756
1173.433687	663.5999756
1173.986723	664.7999878
1174.539703	662.7999878
1175.092626	666.0
1175.645493	664.4000244
1176.198302	665.4000244
1176.751055	663.7999878
1177.303751	662.5999756
1177.85639	664.7999878
1178.408972	664.2000122
1178.961498	662.7999878
1179.513966	664.4000244
1180.066378	661.5999756
1180.618733	661.0
1181.171032	664.0
1181.723273	663.2000122
1182.275458	663.7999878
1182.827586	661.7999878
1183.379657	664.4000244
1183.931672	661.7999878
1184.48363	663.7999878
1185.035531	664.4000244
1185.587375	663.7999878
1186.139162	662.2000122
1186.690893	663.0
1187.242567	665.5999756
1187.794184	662.0
1188.345745	664.4000244
1188.897249	662.2000122
1189.448696	664.4000244
1190.000086	664.4000244
1190.55142	660.5999756
1191.102697	665.2000122
1191.653918	663.5999756
1192.205081	665.4000244
1192.756188	662.7999878
1193.307238	685.5999756
1193.858232	662.7999878
1194.409169	662.0
1194.960049	660.2000122
1195.510872	665.5999756
1196.061639	664.0
1196.612349	661.4000244
1197.163003	665.0
1197.713599	663.2000122
1198.264139	663.7999878
1198.814623	659.4000244
1199.36505	663.0
1199.91542	664.4000244
1200.465734	661.5999756
1201.01599	664.0
1201.566191	662.7999878
1202.116334	660.0
1202.666421	661.0
1203.216452	661.5999756
1203.766425	662.7999878
1204.316343	664.0
1204.866203	662.7999878
1205.416007	664.2000122
1205.965754	663.0
1206.515445	663.7999878
1207.065079	662.0
1207.614657	663.2000122
1208.164177	664.2000122
1208.713642	663.2000122
1209.26305	661.0
1209.812401	662.5999756
1210.361695	662.2000122
1210.910933	664.0
1211.460115	664.4000244
1212.00924	666.4000244
1212.558308	663.2000122
1213.10732	663.0
1213.656275	663.5999756
1214.205174	664.2000122
1214.754016	663.4000244
1215.302801	664.7999878
1215.85153	662.7999878
1216.400203	663.5999756
1216.948819	663.4000244
1217.497378	665.0
1218.045881	663.7999878
1218.594327	661.0
1219.142717	663.0
1219.691051	665.0
1220.239327	664.5999756
1220.787548	663.2000122
1221.335712	666.2000122
1221.883819	665.7999878
1222.43187	662.4000244
1222.979864	664.2000122
1223.527802	664.7999878
1224.075683	664.7999878
1224.623508	665.0
1225.171277	664.4000244
1225.718989	665.4000244
1226.266644	666.5999756
1226.814243	664.0
1227.361786	665.0
1227.909272	665.4000244
1228.456702	666.5999756
1229.004075	665.2000122
1229.551392	663.4000244
1230.098652	664.7999878
1230.645856	664.7999878
1231.193003	663.5999756
1231.740094	667.7999878
1232.287129	665.0
1232.834107	661.7999878
1233.381029	665.2000122
1233.927894	666.4000244
1234.474703	668.0
1235.021455	666.2000122
1235.568151	665.2000122
1236.114791	666.7999878
1236.661374	666.7999878
1237.207901	663.5999756
1237.754372	667.7999878
1238.300786	668.5999756
1238.847144	665.0
1239.393445	664.4000244
1239.93969	666.0
1240.485879	669.2000122
1241.032011	666.2000122
1241.578087	666.0
1242.124106	667.0
1242.67007	667.0
1243.215976	666.2000122
1243.761827	667.5999756
1244.307621	665.7999878
1244.853359	662.5999756
1245.39904	667.2000122
1245.944665	666.2000122
1246.490234	666.0
1247.035746	668.4000244
1247.581203	668.0
1248.126602	665.4000244
1248.671946	666.7999878
1249.217233	665.4000244
1249.762464	667.4000244
1250.307638	664.4000244
1250.852757	669.0
1251.397819	668.2000122
1251.942824	666.2000122
1252.487774	665.7999878
1253.032667	666.5999756
1253.577503	668.0
1254.122284	665.4000244
1254.667008	668.2000122
1255.211676	670.0
1255.756288	669.2000122
1256.300843	670.2000122
1256.845342	668.0
1257.389785	668.2000122
1257.934172	673.5999756
1258.478502	673.0
1259.022776	673.7999878
1259.566994	673.4000244
1260.111156	691.2000122
1260.655261	673.4000244
1261.199311	681.0
1261.743304	683.5999756
1262.28724	689.7999878
1262.831121	696.0
1263.374945	702.4000244
1263.918713	700.0
1264.462425	695.4000244
1265.006081	690.0
1265.54968	683.5999756
1266.093223	677.7999878
1266.636711	674.7999878
1267.180141	674.4000244
1267.723516	673.7999878
1268.266835	675.4000244
1268.810097	674.5999756
1269.353303	673.7999878
1269.896453	672.0
1270.439547	672.2000122
1270.982584	674.0
1271.525566	671.4000244
1272.068491	671.4000244
1272.61136	674.4000244
1273.154173	672.0
1273.69693	671.7999878
1274.239631	673.5999756
1274.782275	674.0
1275.324864	674.5999756
1275.867396	676.0
1276.409872	674.0
1276.952292	676.5999756
1277.494656	673.7999878
1278.036964	675.5999756
1278.579215	679.2000122
1279.121411	683.4000244
1279.66355	687.0
1280.205634	696.7999878
1280.747661	710.4000244
1281.289632	731.4000244
1281.831547	778.5999756
1282.373406	894.5999756
1282.915209	1046.0
1283.456955	1187.199951
1283.998646	1161.400024
1284.540281	1029.599976
1285.081859	881.0
1285.623381	782.0
1286.164848	730.4000244
1286.706258	700.5999756
1287.247612	694.7999878
1287.788911	687.0
1288.330153	681.5999756
1288.871339	680.0
1289.412469	677.0
1289.953543	678.0
1290.494561	672.7999878
1291.035523	675.4000244
1291.576428	676.2000122
1292.117278	674.4000244
1292.658072	671.4000244
1293.19881	674.5999756
1293.739492	675.2000122
1294.280118	672.5999756
1294.820687	668.5999756
1295.361201	671.5999756
1295.901659	669.2000122
1296.442061	669.5999756
1296.982406	669.7999878
1297.522696	669.0
1298.06293	670.7999878
1298.603108	671.0
1299.143229	668.4000244
1299.683295	669.0
1300.223305	671.2000122
1300.763259	669.4000244
1301.303157	671.5999756
1301.842999	673.7999878
1302.382785	667.5999756
1302.922515	670.4000244
1303.462189	667.0
1304.001807	666.5999756
1304.541369	666.4000244
1305.080875	670.4000244
1305.620326	667.2000122
1306.15972	668.2000122
1306.699058	669.0
1307.238341	667.7999878
1307.777567	667.2000122
1308.316738	669.5999756
1308.855853	665.5999756
1309.394912	667.2000122
1309.933915	665.2000122
1310.472862	666.2000122
1311.011753	667.0
1311.550588	666.5999756
1312.089367	668.2000122
1312.62809	666.4000244
1313.166758	666.2000122
1313.70537	666.7999878
1314.243925	669.0
1314.782425	665.4000244
1315.320869	666.7999878
1315.859257	666.4000244
1316.397589	668.4000244
1316.935866	667.7999878
1317.474086	671.5999756
1318.012251	666.0
1318.55036	665.0
1319.088413	669.0
1319.62641	668.7999878
1320.164351	669.0
1320.702236	666.4000244
1321.240066	668.2000122
1321.777839	669.4000244
1322.315557	668.0
1322.853219	667.5999756
1323.390826	666.4000244
1323.928376	670.4000244
1324.465871	666.5999756
1325.003309	666.0
1325.540692	667.2000122
1326.07802	669.2000122
1326.615291	668.0
1327.152506	666.7999878
1327.689666	667.4000244
1328.22677	666.7999878
1328.763818	664.5999756
1329.300811	666.7999878
1329.837747	670.4000244
1330.374628	665.0
1330.911453	666.4000244
1331.448222	668.5999756
1331.984936	668.4000244
1332.521594	664.7999878
1333.058196	666.0
1333.594742	667.4000244
1334.131232	669.2000122
1334.667667	665.7999878
1335.204046	667.7999878
1335.740369	667.4000244
1336.276637	666.7999878
1336.812848	666.7999878
1337.349004	669.5999756
1337.885105	668.0
1338.421149	666.4000244
1338.957138	667.7999878
1339.493071	667.0
1340.028949	665.5999756
1340.56477	666.2000122
1341.100536	669.7999878
1341.636246	667.2000122
1342.171901	666.2000122
1342.7075	666.5999756
1343.243043	666.7999878
1343.77853	667.0
1344.313962	666.0
1344.849338	665.7999878
1345.384659	667.0
1345.919923	666.5999756
1346.455133	669.4000244
1346.990286	667.0
1347.525384	668.2000122
1348.060426	663.4000244
1348.595412	665.7999878
1349.130343	667.7999878
1349.665218	669.2000122
1350.200037	667.5999756
1350.734801	666.0
1351.269509	669.2000122
1351.804162	665.2000122
1352.338758	663.5999756
1352.8733	668.7999878
1353.407785	669.5999756
1353.942215	667.5999756
1354.476589	668.4000244
1355.010908	667.7999878
1355.545171	668.0
1356.079379	668.2000122
1356.61353	665.7999878
1357.147627	668.0
1357.681667	667.7999878
1358.215652	670.4000244
1358.749582	667.4000244
1359.283456	668.2000122
1359.817274	670.2000122
1360.351037	667.0
1360.884744	669.2000122
1361.418395	668.5999756
1361.951991	668.7999878
1362.485531	668.0
1363.019016	667.2000122
1363.552445	672.2000122
1364.085819	669.5999756
1364.619137	673.5999756
1365.1524	672.7999878
1365.685607	669.4000244
1366.218758	671.5999756
1366.751854	668.2000122
1367.284894	670.2000122
1367.817879	669.2000122
1368.350808	672.2000122
1368.883682	677.0
1369.4165	679.5999756
1369.949263	695.7999878
1370.48197	687.0
1371.014622	674.0
1371.547218	676.4000244
1372.079758	673.4000244
1372.612244	670.4000244
1373.144673	672.2000122
1373.677047	675.5999756
1374.209366	671.7999878
1374.741629	672.7999878
1375.273836	675.2000122
1375.805989	673.2000122
1376.338085	672.0
1376.870126	673.7999878
1377.402112	675.0
1377.934042	676.4000244
1378.465917	674.4000244
1378.997736	674.0
1379.5295	680.4000244
1380.061208	679.2000122
1380.592861	680.4000244
1381.124459	682.4000244
1381.656	682.2000122
1382.187487	685.4000244
1382.718918	686.0
1383.250294	692.7999878
1383.781614	702.0
1384.312879	706.4000244
1384.844088	721.2000122
1385.375242	745.7999878
1385.90634	804.5999756
1386.437383	906.5999756
1386.968371	1198.0
1387.499303	1655.199951
1388.03018	1807.0
1388.561001	1412.400024
1389.091767	1001.599976
1389.622478	814.7999878
1390.153133	747.5999756
1390.683733	719.4000244
1391.214277	702.2000122
1391.744766	695.7999878
1392.2752	692.5999756
1392.805578	687.4000244
1393.335901	684.4000244
1393.866168	681.5999756
1394.396381	682.7999878
1394.926537	680.0
1395.456639	677.0
1395.986685	676.4000244
1396.516675	674.7999878
1397.046611	675.5999756
1397.576491	677.5999756
1398.106315	676.2000122
1398.636084	673.2000122
1399.165798	674.7999878
1399.695457	673.5999756
1400.22506	671.4000244
1400.754608	672.7999878
1401.284101	671.4000244
1401.813538	672.2000122
1402.34292	675.4000244
1402.872247	675.0
1403.401518	674.5999756
1403.930734	676.0
1404.459895	674.5999756
1404.989	676.0
1405.51805	680.2000122
1406.047045	679.0
1406.575984	682.0
1407.104869	688.2000122
1407.633697	692.7999878
1408.162471	706.4000244
1408.691189	718.2000122
1409.219852	725.7999878
1409.74846	727.4000244
1410.277013	710.7999878
1410.80551	701.0
1411.333952	689.4000244
1411.862339	680.5999756
1412.39067	677.0
1412.918946	675.7999878
1413.447167	670.2000122
1413.975333	668.2000122
1414.503444	667.4000244
1415.031499	667.5999756
1415.559499	682.7999878
1416.087444	666.2000122
1416.615333	670.7999878
1417.143167	670.7999878
1417.670947	667.5999756
1418.19867	666.0
1418.726339	666.5999756
1419.253952	672.0
1419.781511	664.4000244
1420.309014	665.0
1420.836461	665.5999756
1421.363854	663.0
1421.891191	667.7999878
1422.418474	664.0
1422.945701	667.7999878
1423.472872	666.5999756
1423.999989	667.5999756
1424.52705	667.0
1425.054057	666.2000122
1425.581008	666.5999756
1426.107904	668.0
1426.634745	669.0
1427.16153	666.0
1427.688261	667.2000122
1428.214936	663.0
1428.741556	666.0
1429.268121	666.2000122
1429.794631	665.2000122
1430.321085	667.2000122
1430.847485	665.7999878
1431.373829	664.2000122
1431.900118	663.5999756
1432.426353	664.7999878
1432.952532	665.4000244
1433.478655	666.2000122
1434.004724	664.5999756
1434.530738	663.4000244
1435.056696	663.7999878
1435.5826	664.2000122
1436.108448	665.2000122
1436.634241	663.0
1437.159979	662.7999878
1437.685662	661.7999878
1438.21129	663.0
1438.736863	664.5999756
1439.262381	663.0
1439.787843	664.0
1440.313251	664.0
1440.838603	664.7999878
1441.3639	666.0
1441.889143	663.4000244
1442.41433	665.7999878
1442.939462	665.0
1443.464539	663.5999756
1443.989561	661.0
1444.514528	663.2000122
1445.03944	663.5999756
1445.564297	661.5999756
1446.089099	665.2000122
1446.613846	664.4000244
1447.138537	662.7999878
1447.663174	663.4000244
1448.187756	665.5999756
1448.712282	661.7999878
1449.236754	665.4000244
1449.761171	661.5999756
1450.285532	664.0
1450.809839	664.0
1451.33409	663.4000244
1451.858287	660.0
1452.382428	663.2000122
1452.906515	660.7999878
1453.430546	661.2000122
1453.954523	663.7999878
1454.478444	661.5999756
1455.002311	660.5999756
1455.526123	664.0
1456.049879	662.0
1456.573581	661.7999878
1457.097227	662.7999878
1457.620819	660.7999878
1458.144356	663.4000244
1458.667837	664.4000244
1459.191264	662.5999756
1459.714636	664.4000244
1460.237952	662.2000122
1460.761214	663.0
1461.284421	666.0
1461.807573	659.4000244
1462.33067	663.4000244
1462.853712	664.7999878
1463.376699	662.5999756
1463.899632	663.2000122
1464.422509	663.0
1464.945331	664.4000244
1465.468099	661.0
1465.990811	662.5999756
1466.513469	663.0
1467.036071	662.2000122
1467.558619	663.0
1468.081112	661.4000244
1468.60355	660.5999756
1469.125933	662.0
1469.648261	662.0
1470.170534	665.2000122
1470.692752	661.5999756
1471.214916	663.5999756
1471.737024	661.2000122
1472.259078	662.0
1472.781077	661.5999756
1473.303021	663.0
1473.82491	662.4000244
1474.346744	662.0
1474.868523	664.4000244
1475.390248	663.0
1475.911917	661.2000122
1476.433532	661.7999878
1476.955092	662.2000122
1477.476597	661.5999756
1477.998047	661.7999878
1478.519442	663.2000122
1479.040783	661.7999878
1479.562068	662.2000122
1480.083299	663.0
1480.604475	662.4000244
1481.125596	661.5999756
1481.646663	660.5999756
1482.167674	663.7999878
1482.688631	661.5999756
1483.209533	664.5999756
1483.73038	661.4000244
1484.251172	662.2000122
1484.771909	663.2000122
1485.292592	661.4000244
1485.81322	659.5999756
1486.333793	661.5999756
1486.854311	661.7999878
1487.374775	661.2000122
1487.895183	663.0
1488.415537	661.5999756
1488.935836	662.4000244
1489.456081	660.0
1489.97627	660.0
1490.496405	662.0
1491.016485	661.5999756
1491.536511	659.2000122
1492.056481	663.0
1492.576397	662.0
1493.096258	661.4000244
1493.616064	661.2000122
1494.135816	661.2000122
1494.655513	659.0
1495.175155	661.2000122
1495.694742	662.4000244
1496.214274	661.5999756
1496.733752	661.0
1497.253175	659.7999878
1497.772544	661.5999756
1498.291858	661.2000122
1498.811116	660.0
1499.330321	661.4000244
1499.84947	670.5999756
1500.368565	659.4000244
1500.887605	658.5999756
1501.406591	663.0
1501.925521	662.2000122
1502.444397	660.4000244
1502.963219	660.4000244
1503.481985	660.2000122
1504.000697	659.0
1504.519355	662.0
1505.037957	662.2000122
1505.556505	658.7999878
1506.074999	659.5999756
1506.593437	663.4000244
1507.111821	660.4000244
1507.63015	661.2000122
1508.148425	661.0
1508.666645	659.5999756
1509.18481	659.5999756
1509.702921	661.2000122
1510.220977	659.4000244
1510.738979	672.2000122
1511.256925	663.2000122
1511.774817	660.5999756
1512.292655	661.5999756
1512.810438	662.0
1513.328166	662.2000122
1513.84584	662.4000244
1514.363459	662.4000244
1514.881023	662.0
1515.398533	658.7999878
1515.915988	661.0
1516.433389	660.2000122
1516.950734	662.7999878
1517.468026	659.4000244
1517.985263	661.5999756
1518.502445	661.2000122
1519.019572	659.7999878
1519.536645	660.5999756
1520.053664	663.5999756
1520.570628	660.2000122
1521.087537	661.4000244
1521.604392	661.7999878
1522.121192	660.5999756
1522.637937	661.4000244
1523.154628	660.7999878
1523.671265	660.7999878
1524.187847	660.4000244
1524.704374	661.4000244
1525.220847	661.2000122
1525.737265	660.7999878
1526.253629	662.5999756
1526.769938	661.4000244
1527.286192	660.4000244
1527.802392	659.5999756
1528.318538	661.7999878
1528.834629	661.2000122
1529.350666	662.4000244
1529.866648	661.0
1530.382575	663.7999878
1530.898448	662.2000122
1531.414266	662.2000122
1531.93003	662.2000122
1532.44574	659.5999756
1532.961395	661.4000244
1533.476995	660.0
1533.992541	660.7999878
1534.508033	660.4000244
1535.02347	661.5999756
1535.538852	663.0
1536.05418	659.7999878
1536.569454	659.7999878
1537.084673	660.2000122
1537.599837	661.0
1538.114947	661.5999756
1538.630003	662.0
1539.145004	661.2000122
1539.659951	662.7999878
1540.174843	662.0
1540.689681	660.7999878
1541.204465	663.7999878
1541.719194	659.0
1542.233868	661.4000244
1542.748488	657.4000244
1543.263054	660.5999756
1543.777565	659.2000122
1544.292022	661.4000244
1544.806424	664.7999878
1545.320772	660.2000122
1545.835066	659.2000122
1546.349305	661.0
1546.863489	660.2000122
1547.37762	662.2000122
1547.891696	660.7999878
1548.405717	661.0
1548.919684	659.5999756
1549.433597	660.5999756
1549.947455	661.0
1550.461259	662.0
1550.975009	660.0
1551.488704	661.4000244
1552.002345	660.2000122
1552.515931	658.4000244
1553.029463	662.5999756
1553.542941	658.5999756
1554.056364	662.7999878
1554.569733	660.2000122
1555.083048	661.0
1555.596308	659.2000122
1556.109514	659.7999878
1556.622665	659.7999878
1557.135762	660.0
1557.648805	662.5999756
1558.161794	660.4000244
1558.674728	662.2000122
1559.187608	662.2000122
1559.700433	660.4000244
1560.213205	660.0
1560.725921	661.4000244
1561.238584	661.7999878
1561.751192	659.7999878
1562.263746	662.5999756
1562.776246	661.7999878
1563.288691	658.7999878
1563.801082	660.5999756
1564.313419	660.2000122
1564.825701	661.2000122
1565.337929	661.2000122
1565.850103	658.7999878
1566.362223	662.7999878
1566.874288	662.0
1567.386299	661.0
1567.898256	660.0
1568.410158	663.0
1568.922007	660.0
1569.4338	660.5999756
1569.94554	660.4000244
1570.457226	664.5999756
1570.968857	660.5999756
1571.480434	658.7999878
1571.991956	662.2000122
1572.503425	663.4000244
1573.014839	660.7999878
1573.526199	662.2000122
1574.037505	659.7999878
1574.548756	658.7999878
1575.059953	661.4000244
1575.571096	661.4000244
1576.082185	658.4000244
1576.59322	659.7999878
1577.1042	662.5999756
1577.615126	661.0
1578.125998	661.2000122
1578.636816	660.5999756
1579.14758	661.2000122
1579.658289	660.0
1580.168944	660.7999878
1580.679545	660.4000244
1581.190092	662.2000122
1581.700585	657.2000122
1582.211023	659.2000122
1582.721407	661.0
1583.231737	661.7999878
1583.742013	658.5999756
1584.252235	662.0
1584.762403	661.0
1585.272516	659.2000122
1585.782575	662.2000122
1586.292581	660.0
1586.802532	661.4000244
1587.312428	660.2000122
1587.822271	659.7999878
1588.33206	659.7999878
1588.841794	662.5999756
1589.351474	659.7999878
1589.8611	661.4000244
1590.370672	658.5999756
1590.88019	662.0
1591.389654	657.5999756
1591.899064	661.0
1592.408419	658.7999878
