1042.452273	684.0
1043.018714	684.2000122
1043.585098	687.4000244
1044.151424	683.0
1044.717692	681.0
1045.283903	680.0
1045.850056	681.0
1046.416151	676.0
1046.982188	679.0
1047.548167	676.5999756
1048.114089	679.2000122
1048.679953	678.7999878
1049.24576	676.0
1049.811509	677.5999756
1050.3772	678.0
1050.942833	676.2000122
1051.508408	673.7999878
1052.073926	673.7999878
1052.639387	675.4000244
1053.204789	675.4000244
1053.770134	677.7999878
1054.335421	675.2000122
1054.900651	674.5999756
1055.465823	673.4000244
1056.030937	671.5999756
1056.595993	673.7999878
1057.160992	676.2000122
1057.725934	675.4000244
1058.290817	674.5999756
1058.855643	674.2000122
1059.420411	673.7999878
1059.985122	674.5999756
1060.549775	672.2000122
1061.114371	674.5999756
1061.678908	674.2000122
1062.243389	675.0
1062.807811	669.7999878
1063.372176	674.0
1063.936483	671.7999878
1064.500733	674.4000244
1065.064925	672.4000244
1065.62906	671.0
1066.193137	675.5999756
1066.757156	672.5999756
1067.321118	674.5999756
1067.885022	672.2000122
1068.448869	670.4000244
1069.012658	668.7999878
1069.57639	671.5999756
1070.140063	678.4000244
1070.70368	672.0
1071.267239	672.7999878
1071.83074	670.4000244
1072.394184	672.2000122
1072.95757	668.7999878
1073.520899	672.5999756
1074.08417	672.4000244
1074.647383	669.7999878
1075.21054	681.0
1076.336679	672.7999878
1076.899663	671.7999878
1077.462589	672.2000122
1078.025457	669.0
1078.588268	671.4000244
1079.151022	669.7999878
1079.713718	674.0
1080.276356	672.4000244
1080.838937	671.7999878
1081.401461	670.0
1081.963927	671.2000122
1082.526336	671.2000122
1083.088687	673.2000122
1083.650981	669.4000244
1084.213217	671.5999756
1084.775396	670.4000244
1085.337517	670.2000122
1085.899581	670.7999878
1086.461587	668.5999756
1087.023536	668.7999878
1087.585428	674.0
1088.147262	668.7999878
1088.709039	673.2000122
1089.270758	673.0
1089.83242	672.2000122
1090.394024	673.4000244
1090.955571	671.4000244
1091.517061	668.2000122
1092.078493	670.4000244
1092.639868	669.2000122
1093.201185	668.7999878
1093.762445	669.4000244
1094.323648	671.5999756
1094.884793	670.0
1095.445881	668.7999878
1096.006911	673.2000122
1096.567884	671.7999878
1097.1288	679.5999756
1097.689659	672.0
1098.25046	672.4000244
1098.811203	671.5999756
1099.37189	669.5999756
1099.932518	670.5999756
1100.49309	672.7999878
1101.053604	672.7999878
1101.614061	671.2000122
1102.174461	670.7999878
1102.734803	669.2000122
1103.295088	670.5999756
1103.855316	671.0
1104.415486	671.7999878
1104.975599	671.2000122
1105.535655	671.5999756
1106.095653	672.4000244
1106.655594	670.4000244
1107.215478	668.2000122
1107.775305	670.7999878
1108.335074	670.7999878
1108.894786	669.7999878
1109.45444	672.0
1110.014038	672.0
1110.573578	673.2000122
1111.133061	668.2000122
1111.692486	668.2000122
1112.251854	671.7999878
1112.811165	670.4000244
1113.370419	675.0
1113.929616	670.7999878
1114.488755	670.4000244
1115.047837	670.5999756
1115.606862	671.4000244
1116.16583	670.7999878
1116.72474	669.4000244
1117.283593	672.7999878
1117.842389	670.2000122
1118.401128	670.0
1118.959809	670.4000244
1119.518433	672.2000122
1120.077	671.0
1120.63551	669.4000244
1121.193963	671.2000122
1121.752358	672.5999756
1122.310697	669.4000244
1122.868978	671.7999878
1123.427202	670.5999756
1123.985368	671.5999756
1124.543478	671.4000244
1125.10153	670.2000122
1125.659526	674.4000244
1126.217464	670.0
1126.775345	669.4000244
1127.333168	670.7999878
1127.890935	672.5999756
1128.448644	669.2000122
1129.006297	670.4000244
1129.563892	670.0
1130.12143	671.7999878
1130.678911	671.5999756
1131.236335	671.2000122
1131.793701	673.4000244
1132.351011	668.7999878
1132.908263	673.4000244
1133.465458	669.4000244
1134.022597	671.0
1134.579678	667.4000244
1135.136702	670.0
1135.693669	671.0
1136.250578	670.4000244
1136.807431	670.0
1137.364227	671.5999756
1137.920965	669.7999878
1138.477647	672.2000122
1139.034271	670.0
1139.590839	671.0
1140.147349	672.5999756
1140.703802	672.2000122
1141.260198	670.0
1141.816537	670.5999756
1142.37282	669.2000122
1142.929045	668.2000122
1143.485213	673.5999756
1144.041323	670.5999756
1144.597377	670.7999878
1145.153374	668.4000244
1145.709314	673.5999756
1146.265197	673.7999878
1146.821023	670.5999756
1147.376792	673.2000122
1147.932503	673.7999878
1148.488158	669.2000122
1149.043756	671.7999878
1149.599297	669.2000122
1150.154781	669.7999878
1150.710207	667.4000244
1151.265577	671.7999878
1151.82089	670.0
1152.376146	668.5999756
1152.931345	668.7999878
1153.486487	672.7999878
1154.041572	671.0
1154.5966	670.2000122
1155.151571	671.7999878
1155.706485	670.5999756
1156.261342	670.0
1156.816142	673.7999878
1157.370885	672.5999756
1157.925572	674.7999878
1158.480201	674.0
1159.034774	669.7999878
1159.589289	672.2000122
1160.143748	674.0
1160.698149	670.7999878
1161.252494	671.7999878
1161.806782	669.7999878
1162.361013	669.5999756
1162.915187	670.0
1163.469304	673.4000244
1164.023364	672.7999878
1164.577368	669.5999756
1165.131314	672.5999756
1165.685204	672.2000122
1166.239036	671.2000122
1166.792812	671.0
1167.346531	672.5999756
1167.900193	669.5999756
1168.453798	671.4000244
1169.007347	668.4000244
1169.560838	670.0
1170.114273	670.7999878
1170.66765	671.0
1171.220971	670.2000122
1171.774235	671.5999756
1172.327443	673.7999878
1172.880593	670.2000122
1173.433687	671.0
1173.986723	671.4000244
1174.539703	668.2000122
1175.092626	671.5999756
1175.645493	671.2000122
1176.198302	671.0
1176.751055	672.7999878
1177.303751	671.4000244
1177.85639	669.4000244
1178.408972	670.0
1178.961498	671.5999756
1179.513966	672.4000244
1180.066378	668.7999878
1180.618733	669.0
1181.171032	668.2000122
1181.723273	668.7999878
1182.275458	674.0
1182.827586	671.0
1183.379657	670.4000244
1183.931672	670.2000122
1184.48363	673.4000244
1185.035531	670.4000244
1185.587375	671.5999756
1186.139162	669.5999756
1186.690893	674.4000244
1187.242567	671.4000244
1187.794184	671.0
1188.345745	670.4000244
1188.897249	671.0
1189.448696	673.4000244
1190.000086	671.0
1190.55142	672.4000244
1191.102697	670.7999878
1191.653918	670.7999878
1192.205081	673.2000122
1192.756188	669.5999756
1193.307238	690.7999878
1193.858232	669.7999878
1194.409169	671.2000122
1194.960049	671.0
1195.510872	672.7999878
1196.061639	668.0
1196.612349	669.2000122
1197.163003	672.2000122
1197.713599	670.5999756
1198.264139	670.7999878
1198.814623	674.4000244
1199.36505	672.0
1199.91542	672.0
1200.465734	669.2000122
1201.01599	670.5999756
1201.566191	671.4000244
1202.116334	668.5999756
1202.666421	670.5999756
1203.216452	673.0
1203.766425	670.7999878
1204.316343	668.2000122
1204.866203	671.4000244
1205.416007	672.5999756
1205.965754	670.4000244
1206.515445	672.2000122
1207.065079	672.2000122
1207.614657	674.0
1208.164177	672.4000244
1208.713642	673.7999878
1209.26305	672.5999756
1209.812401	674.4000244
1210.361695	671.7999878
1210.910933	674.7999878
1211.460115	669.2000122
1212.00924	672.4000244
1212.558308	674.4000244
1213.10732	674.5999756
1213.656275	669.7999878
1214.205174	668.7999878
1214.754016	675.2000122
1215.302801	673.2000122
1215.85153	669.5999756
1216.400203	672.4000244
1216.948819	673.4000244
1217.497378	673.5999756
1218.045881	673.7999878
1218.594327	673.4000244
1219.142717	673.4000244
1219.691051	673.7999878
1220.239327	673.0
1220.787548	668.5999756
1221.335712	672.7999878
1221.883819	672.5999756
1222.43187	675.2000122
1222.979864	675.5999756
1223.527802	672.7999878
1224.075683	671.4000244
1224.623508	672.4000244
1225.171277	674.0
1225.718989	672.5999756
1226.266644	672.7999878
1226.814243	670.7999878
1227.361786	673.4000244
1227.909272	675.2000122
1228.456702	674.5999756
1229.004075	674.0
1229.551392	674.4000244
1230.098652	674.2000122
1230.645856	675.2000122
1231.193003	674.5999756
1231.740094	674.2000122
1232.287129	673.7999878
1232.834107	676.5999756
1233.381029	675.2000122
1233.927894	676.0
1234.474703	673.5999756
1235.021455	672.5999756
1235.568151	674.0
1236.114791	678.2000122
1236.661374	674.2000122
1237.207901	675.0
1237.754372	674.2000122
1238.300786	672.5999756
1238.847144	671.5999756
1239.393445	674.4000244
1239.93969	675.2000122
1240.485879	676.0
1241.032011	677.7999878
1241.578087	679.0
1242.124106	676.4000244
1242.67007	675.4000244
1243.215976	675.5999756
1243.761827	675.5999756
1244.307621	677.2000122
1244.853359	675.7999878
1245.39904	676.2000122
1245.944665	675.5999756
1246.490234	679.0
1247.035746	675.0
1247.581203	680.0
1248.126602	674.7999878
1248.671946	674.7999878
1249.217233	678.0
1249.762464	675.7999878
1250.307638	675.2000122
1250.852757	676.5999756
1251.397819	679.5999756
1251.942824	675.0
1252.487774	679.0
1253.032667	675.7999878
1253.577503	677.7999878
1254.122284	676.5999756
1254.667008	678.2000122
1255.211676	679.2000122
1255.756288	676.4000244
1256.300843	676.4000244
1256.845342	675.5999756
1257.389785	679.4000244
1257.934172	680.2000122
1258.478502	685.2000122
1259.022776	682.5999756
1259.566994	682.4000244
1260.111156	702.2000122
1260.655261	684.5999756
1261.199311	688.0
1261.743304	689.7999878
1262.28724	697.0
1262.831121	698.5999756
1263.374945	710.2000122
1263.918713	713.2000122
1264.462425	710.5999756
1265.006081	706.5999756
1265.54968	703.2000122
1266.093223	690.4000244
1266.636711	687.0
1267.180141	687.0
1267.723516	683.2000122
1268.266835	685.7999878
1268.810097	683.2000122
1269.353303	678.4000244
1269.896453	685.0
1270.439547	681.2000122
1270.982584	685.0
1271.525566	681.7999878
1272.068491	684.5999756
1272.61136	684.4000244
1273.154173	683.4000244
1273.69693	686.0
1274.239631	689.5999756
1274.782275	686.7999878
1275.324864	684.4000244
1275.867396	687.7999878
1276.409872	685.0
1276.952292	684.4000244
1277.494656	685.4000244
1278.036964	688.5999756
1278.579215	689.5999756
1279.121411	690.2000122
1279.66355	690.5999756
1280.205634	701.2000122
1280.747661	710.0
1281.289632	718.2000122
1281.831547	752.0
1282.373406	807.2000122
1282.915209	925.7999878
1283.456955	1107.199951
1283.998646	1263.800049
1284.540281	1225.599976
1285.081859	1027.800049
1285.623381	847.4000244
1286.164848	765.5999756
1286.706258	730.5999756
1287.247612	711.5999756
1287.788911	701.0
1288.330153	693.5999756
1288.871339	693.4000244
1289.412469	686.7999878
1289.953543	682.7999878
1290.494561	687.5999756
1291.035523	688.0
1291.576428	686.0
1292.117278	685.5999756
1292.658072	688.2000122
1293.19881	682.2000122
1293.739492	682.7999878
1294.280118	686.2000122
1294.820687	681.5999756
1295.361201	680.5999756
1295.901659	680.7999878
1296.442061	680.4000244
1296.982406	682.7999878
1297.522696	677.5999756
1298.06293	678.7999878
1298.603108	681.7999878
1299.143229	682.0
1299.683295	676.0
1300.223305	681.2000122
1300.763259	677.7999878
1301.303157	681.4000244
1301.842999	680.4000244
1302.382785	681.5999756
1302.922515	677.7999878
1303.462189	680.0
1304.001807	678.2000122
1304.541369	678.0
1305.080875	678.0
1305.620326	679.0
1306.15972	679.0
1306.699058	678.4000244
1307.238341	681.2000122
1307.777567	675.0
1308.316738	674.0
1308.855853	677.5999756
1309.394912	674.7999878
1309.933915	675.7999878
1310.472862	676.5999756
1311.011753	677.4000244
1311.550588	680.4000244
1312.089367	672.7999878
1312.62809	679.0
1313.166758	679.2000122
1313.70537	676.0
1314.243925	676.7999878
1314.782425	675.0
1315.320869	675.4000244
1315.859257	678.2000122
1316.397589	677.5999756
1316.935866	677.2000122
1317.474086	676.7999878
1318.012251	672.7999878
1318.55036	676.0
1319.088413	675.7999878
1319.62641	679.0
1320.164351	680.0
1320.702236	676.7999878
1321.240066	674.4000244
1321.777839	674.5999756
1322.315557	676.5999756
1322.853219	675.2000122
1323.390826	677.4000244
1323.928376	681.2000122
1324.465871	674.2000122
1325.003309	680.2000122
1325.540692	676.5999756
1326.07802	679.7999878
1326.615291	674.0
1327.152506	676.5999756
1327.689666	676.7999878
1328.22677	676.5999756
1328.763818	675.0
1329.300811	675.5999756
1329.837747	676.5999756
1330.374628	677.2000122
1330.911453	677.0
1331.448222	682.5999756
1331.984936	675.2000122
1332.521594	678.0
1333.058196	676.7999878
1333.594742	679.4000244
1334.131232	673.5999756
1334.667667	674.7999878
1335.204046	676.2000122
1335.740369	675.5999756
1336.276637	678.2000122
1336.812848	671.5999756
1337.349004	676.5999756
1337.885105	674.2000122
1338.421149	679.2000122
1338.957138	677.5999756
1339.493071	675.2000122
1340.028949	677.2000122
1340.56477	677.4000244
1341.100536	677.0
1341.636246	677.0
1342.171901	675.4000244
1342.7075	677.7999878
1343.243043	680.2000122
1343.77853	674.7999878
1344.313962	676.2000122
1344.849338	678.0
1345.384659	672.5999756
1345.919923	676.0
1346.455133	678.0
1346.990286	675.7999878
1347.525384	679.4000244
1348.060426	677.4000244
1348.595412	675.4000244
1349.130343	676.5999756
1349.665218	675.4000244
1350.200037	673.2000122
1350.734801	677.7999878
1351.269509	677.7999878
1351.804162	676.4000244
1352.338758	675.4000244
1352.8733	675.4000244
1353.407785	672.2000122
1353.942215	676.7999878
1354.476589	677.2000122
1355.010908	675.5999756
1355.545171	676.5999756
1356.079379	678.7999878
1356.61353	679.5999756
1357.147627	676.5999756
1357.681667	679.7999878
1358.215652	676.7999878
1358.749582	678.7999878
1359.283456	678.0
1359.817274	681.5999756
1360.351037	679.7999878
1360.884744	681.5999756
1361.418395	676.0
1361.951991	677.7999878
1362.485531	678.4000244
1363.019016	679.5999756
1363.552445	678.2000122
1364.085819	678.7999878
1364.619137	682.5999756
1365.1524	683.7999878
1365.685607	682.4000244
1366.218758	680.2000122
1366.751854	677.7999878
1367.284894	680.5999756
1367.817879	678.4000244
1368.350808	678.2000122
1368.883682	683.0
1369.4165	687.2000122
1369.949263	705.0
1370.48197	702.5999756
1371.014622	688.2000122
1371.547218	682.7999878
1372.079758	681.7999878
1372.612244	682.0
1373.144673	680.2000122
1373.677047	683.0
1374.209366	681.5999756
1374.741629	681.4000244
1375.273836	684.5999756
1375.805989	684.4000244
1376.338085	681.7999878
1376.870126	683.2000122
1377.402112	683.7999878
1377.934042	683.4000244
1378.465917	684.0
1378.997736	686.7999878
1379.5295	687.2000122
1380.061208	688.0
1380.592861	686.7999878
1381.124459	687.7999878
1381.656	693.2000122
1382.187487	698.2000122
1382.718918	697.4000244
1383.250294	702.5999756
1383.781614	700.4000244
1384.312879	711.4000244
1384.844088	722.0
1385.375242	734.5999756
1385.90634	775.5999756
1386.437383	853.5999756
1386.968371	1017.599976
1387.499303	1448.800049
1388.03018	1930.599976
1388.561001	1709.199951
1389.091767	1146.800049
1389.622478	874.2000122
1390.153133	763.2000122
1390.683733	738.5999756
1391.214277	725.7999878
1391.744766	712.5999756
1392.2752	701.0
1392.805578	698.7999878
1393.335901	698.7999878
1393.866168	694.4000244
1394.396381	689.7999878
1394.926537	693.0
1395.456639	690.0
1395.986685	687.2000122
1396.516675	688.7999878
1397.046611	690.4000244
1397.576491	690.5999756
1398.106315	691.0
1398.636084	685.4000244
1399.165798	686.5999756
1399.695457	684.5999756
1400.22506	684.4000244
1400.754608	684.0
1401.284101	682.7999878
1401.813538	685.0
1402.34292	684.5999756
1402.872247	684.4000244
1403.401518	684.7999878
1403.930734	688.0
1404.459895	690.0
1404.989	692.0
1405.51805	687.0
1406.047045	688.4000244
1406.575984	691.7999878
1407.104869	695.4000244
1407.633697	706.2000122
1408.162471	713.7999878
1408.691189	724.0
1409.219852	742.0
1409.74846	738.7999878
1410.277013	731.2000122
1410.80551	718.2000122
1411.333952	703.5999756
1411.862339	694.2000122
1412.39067	692.4000244
1412.918946	684.4000244
1413.447167	680.5999756
1413.975333	680.0
1414.503444	682.0
1415.031499	681.5999756
1415.559499	696.0
1416.087444	678.4000244
1416.615333	681.2000122
1417.143167	677.7999878
1417.670947	678.5999756
1418.19867	676.0
1418.726339	674.5999756
1419.253952	677.2000122
1419.781511	678.2000122
1420.309014	679.0
1420.836461	678.5999756
1421.363854	678.7999878
1421.891191	677.0
1422.418474	678.4000244
1422.945701	676.0
1423.472872	675.4000244
1423.999989	674.4000244
1424.52705	675.4000244
1425.054057	674.7999878
1425.581008	678.7999878
1426.107904	676.7999878
1426.634745	676.0
1427.16153	676.0
1427.688261	674.2000122
1428.214936	675.4000244
1428.741556	675.4000244
1429.268121	672.2000122
1429.794631	672.0
1430.321085	674.2000122
1430.847485	674.4000244
1431.373829	674.5999756
1431.900118	674.7999878
1432.426353	675.4000244
1432.952532	672.0
1433.478655	673.7999878
1434.004724	673.5999756
1434.530738	673.0
1435.056696	672.4000244
1435.5826	672.7999878
1436.108448	674.2000122
1436.634241	672.2000122
1437.159979	673.2000122
1437.685662	671.5999756
1438.21129	670.0
1438.736863	673.0
1439.262381	673.0
1439.787843	672.2000122
1440.313251	672.5999756
1440.838603	672.7999878
1441.3639	671.4000244
1441.889143	671.0
1442.41433	672.2000122
1442.939462	673.2000122
1443.464539	669.2000122
1443.989561	671.4000244
1444.514528	673.5999756
1445.03944	668.0
1445.564297	668.5999756
1446.089099	671.4000244
1446.613846	674.7999878
1447.138537	670.5999756
1447.663174	671.7999878
1448.187756	671.7999878
1448.712282	673.0
1449.236754	668.0
1449.761171	669.7999878
1450.285532	669.2000122
1450.809839	674.2000122
1451.33409	670.2000122
1451.858287	669.2000122
1452.382428	668.5999756
1452.906515	668.7999878
1453.430546	671.5999756
1453.954523	669.7999878
1454.478444	669.5999756
1455.002311	671.7999878
1455.526123	671.4000244
1456.049879	670.0
1456.573581	672.0
1457.097227	668.5999756
1457.620819	670.2000122
1458.144356	668.4000244
1458.667837	668.4000244
1459.191264	668.5999756
1459.714636	669.2000122
1460.237952	670.0
1460.761214	666.0
1461.284421	670.0
1461.807573	667.4000244
1462.33067	668.0
1462.853712	669.7999878
1463.376699	670.0
1463.899632	669.4000244
1464.422509	667.0
1464.945331	667.2000122
1465.468099	667.5999756
1465.990811	667.2000122
1466.513469	668.4000244
1467.036071	668.4000244
1467.558619	668.0
1468.081112	668.7999878
1468.60355	668.5999756
1469.125933	669.7999878
1469.648261	669.2000122
1470.170534	673.4000244
1470.692752	668.5999756
1471.214916	670.4000244
1471.737024	668.2000122
1472.259078	670.0
1472.781077	668.4000244
1473.303021	668.4000244
1473.82491	670.4000244
1474.346744	670.5999756
1474.868523	670.5999756
1475.390248	668.4000244
1475.911917	668.0
1476.433532	667.0
1476.955092	664.4000244
1477.476597	668.2000122
1477.998047	668.0
1478.519442	665.0
1479.040783	667.5999756
1479.562068	668.2000122
1480.083299	669.4000244
1480.604475	667.4000244
1481.125596	668.4000244
1481.646663	667.5999756
1482.167674	669.7999878
1482.688631	669.5999756
1483.209533	667.2000122
1483.73038	666.5999756
1484.251172	666.4000244
1484.771909	668.5999756
1485.292592	667.2000122
1485.81322	667.2000122
1486.333793	668.0
1486.854311	666.5999756
1487.374775	667.7999878
1487.895183	667.2000122
1488.415537	667.2000122
1488.935836	667.5999756
1489.456081	668.0
1489.97627	668.2000122
1490.496405	670.0
1491.016485	669.4000244
1491.536511	668.4000244
1492.056481	667.5999756
1492.576397	667.4000244
1493.096258	668.4000244
1493.616064	668.5999756
1494.135816	667.5999756
1494.655513	667.2000122
1495.175155	666.4000244
1495.694742	669.0
1496.214274	668.7999878
1496.733752	664.4000244
1497.253175	668.7999878
1497.772544	668.4000244
1498.291858	669.7999878
1498.811116	668.0
1499.330321	668.0
1499.84947	675.5999756
1500.368565	667.4000244
1500.887605	665.4000244
1501.406591	666.5999756
1501.925521	666.0
1502.444397	669.0
1502.963219	665.7999878
1503.481985	667.0
1504.000697	665.5999756
1504.519355	664.5999756
1505.037957	668.2000122
1505.556505	667.0
1506.074999	666.4000244
1506.593437	666.2000122
1507.111821	667.0
1507.63015	665.5999756
1508.148425	668.0
1508.666645	666.2000122
1509.18481	666.0
1509.702921	667.2000122
1510.220977	666.5999756
1510.738979	675.4000244
1511.256925	666.5999756
1511.774817	666.4000244
1512.292655	664.2000122
1512.810438	668.4000244
1513.328166	666.2000122
1513.84584	667.0
1514.363459	664.5999756
1514.881023	666.4000244
1515.398533	667.5999756
1515.915988	664.5999756
1516.433389	665.4000244
1516.950734	668.4000244
1517.468026	668.0
1517.985263	666.2000122
1518.502445	665.4000244
1519.019572	666.4000244
1519.536645	669.7999878
1520.053664	668.5999756
1520.570628	665.4000244
1521.087537	665.7999878
1521.604392	666.0
1522.121192	667.5999756
1522.637937	666.2000122
1523.154628	667.5999756
1523.671265	670.0
1524.187847	667.0
1524.704374	667.0
1525.220847	667.4000244
1525.737265	665.7999878
1526.253629	670.4000244
1526.769938	668.0
1527.286192	665.2000122
1527.802392	664.7999878
1528.318538	668.0
1528.834629	666.5999756
1529.350666	670.5999756
1529.866648	664.2000122
1530.382575	669.0
1530.898448	665.2000122
1531.414266	668.0
1531.93003	666.4000244
1532.44574	666.2000122
1532.961395	667.5999756
1533.476995	667.7999878
1533.992541	666.5999756
1534.508033	666.5999756
1535.02347	667.2000122
1535.538852	670.4000244
1536.05418	670.0
1536.569454	666.5999756
1537.084673	666.2000122
1537.599837	667.4000244
1538.114947	669.7999878
1538.630003	668.0
1539.145004	667.2000122
1539.659951	667.5999756
1540.174843	664.5999756
1540.689681	666.2000122
1541.204465	665.4000244
1541.719194	666.4000244
1542.233868	667.2000122
1542.748488	666.5999756
1543.263054	666.5999756
1543.777565	668.0
1544.292022	665.7999878
1544.806424	666.7999878
1545.320772	666.4000244
1545.835066	666.7999878
1546.349305	666.0
1546.863489	666.5999756
1547.37762	665.2000122
1547.891696	667.2000122
1548.405717	667.7999878
1548.919684	667.4000244
1549.433597	668.0
1549.947455	666.5999756
1550.461259	665.5999756
1550.975009	663.7999878
1551.488704	665.2000122
1552.002345	667.7999878
1552.515931	668.7999878
1553.029463	665.5999756
1553.542941	666.7999878
1554.056364	665.0
1554.569733	668.4000244
1555.083048	668.4000244
1555.596308	667.4000244
1556.109514	665.7999878
1556.622665	667.7999878
1557.135762	668.0
1557.648805	668.4000244
1558.161794	669.7999878
1558.674728	666.5999756
1559.187608	666.5999756
1559.700433	667.7999878
1560.213205	666.2000122
1560.725921	666.5999756
1561.238584	668.7999878
1561.751192	667.4000244
1562.263746	667.4000244
1562.776246	667.2000122
1563.288691	667.7999878
1563.801082	669.4000244
1564.313419	664.7999878
1564.825701	664.5999756
1565.337929	667.5999756
1565.850103	668.5999756
1566.362223	667.4000244
1566.874288	668.2000122
1567.386299	667.0
1567.898256	667.2000122
1568.410158	668.5999756
1568.922007	664.5999756
1569.4338	664.5999756
1569.94554	666.4000244
1570.457226	665.7999878
1570.968857	667.7999878
1571.480434	665.0
1571.991956	666.2000122
1572.503425	666.5999756
1573.014839	667.2000122
1573.526199	665.0
1574.037505	666.5999756
1574.548756	665.5999756
1575.059953	667.4000244
1575.571096	666.7999878
1576.082185	663.7999878
1576.59322	666.0
1577.1042	665.4000244
1577.615126	667.2000122
1578.125998	668.7999878
1578.636816	665.0
1579.14758	662.0
1579.658289	666.5999756
1580.168944	667.4000244
1580.679545	666.5999756
1581.190092	665.4000244
1581.700585	666.7999878
1582.211023	668.0
1582.721407	667.5999756
1583.231737	665.4000244
1583.742013	667.4000244
1584.252235	667.4000244
1584.762403	666.4000244
1585.272516	666.7999878
1585.782575	663.5999756
1586.292581	670.7999878
1586.802532	663.5999756
1587.312428	666.5999756
1587.822271	667.7999878
1588.33206	664.5999756
1588.841794	666.7999878
1589.351474	664.4000244
1589.8611	666.2000122
1590.370672	666.4000244
1590.88019	668.4000244
1591.389654	664.4000244
1591.899064	666.7999878
1592.408419	664.5999756
