1042.452273	686.0
1043.018714	681.7999878
1043.585098	685.0
1044.151424	686.0
1044.717692	684.2000122
1045.283903	684.0
1045.850056	682.2000122
1046.416151	677.5999756
1046.982188	679.5999756
1047.548167	680.7999878
1048.114089	682.2000122
1048.679953	684.2000122
1049.24576	676.4000244
1049.811509	678.0
1050.3772	677.7999878
1050.942833	679.4000244
1051.508408	678.0
1052.073926	678.7999878
1052.639387	674.7999878
1053.204789	678.0
1053.770134	674.4000244
1054.335421	677.2000122
1054.900651	678.4000244
1055.465823	675.5999756
1056.030937	675.4000244
1056.595993	677.7999878
1057.160992	674.0
1057.725934	673.5999756
1058.290817	673.7999878
1058.855643	674.4000244
1059.420411	674.5999756
1059.985122	674.7999878
1060.549775	674.2000122
1061.114371	672.5999756
1061.678908	677.4000244
1062.243389	673.4000244
1062.807811	672.4000244
1063.372176	672.5999756
1063.936483	676.2000122
1064.500733	674.5999756
1065.064925	672.5999756
1065.62906	673.7999878
1066.193137	671.2000122
1066.757156	675.2000122
1067.321118	671.2000122
1067.885022	673.5999756
1068.448869	673.2000122
1069.012658	674.4000244
1069.57639	674.2000122
1070.140063	679.7999878
1070.70368	674.7999878
1071.267239	674.0
1071.83074	673.0
1072.394184	673.5999756
1072.95757	670.4000244
1073.520899	671.0
1074.08417	672.7999878
1074.647383	673.2000122
1075.21054	670.5999756
1075.773638	673.5999756
1076.336679	673.2000122
1076.899663	671.7999878
1077.462589	670.7999878
1078.025457	671.2000122
1078.588268	672.0
1079.151022	671.2000122
1079.713718	672.7999878
1080.276356	670.5999756
1080.838937	673.5999756
1081.401461	671.7999878
1081.963927	670.5999756
1082.526336	674.7999878
1083.088687	673.4000244
1083.650981	671.0
1084.213217	672.7999878
1084.775396	671.5999756
1085.337517	671.0
1085.899581	673.2000122
1086.461587	674.0
1087.023536	674.5999756
1087.585428	674.0
1088.147262	671.2000122
1088.709039	672.2000122
1089.270758	674.5999756
1089.83242	673.0
1090.394024	672.2000122
1090.955571	673.0
1091.517061	671.5999756
1092.078493	672.7999878
1092.639868	671.2000122
1093.201185	673.4000244
1093.762445	670.5999756
1094.323648	672.0
1094.884793	671.2000122
1095.445881	671.5999756
1096.006911	671.7999878
1096.567884	674.0
1097.1288	681.2000122
1097.689659	671.2000122
1098.25046	672.5999756
1098.811203	672.4000244
1099.37189	670.7999878
1099.932518	673.4000244
1100.49309	674.4000244
1101.053604	669.7999878
1101.614061	670.2000122
1102.174461	676.0
1102.734803	673.0
1103.295088	672.5999756
1103.855316	674.5999756
1104.415486	672.2000122
1104.975599	669.5999756
1105.535655	672.4000244
1106.095653	674.0
1106.655594	672.2000122
1107.215478	671.7999878
1107.775305	672.4000244
1108.335074	669.2000122
1108.894786	669.0
1109.45444	672.7999878
1110.014038	672.7999878
1110.573578	672.4000244
1111.133061	674.5999756
1111.692486	670.5999756
1112.251854	670.5999756
1112.811165	674.0
1113.370419	673.2000122
1113.929616	672.4000244
1114.488755	671.5999756
1115.047837	669.7999878
1115.606862	673.4000244
1116.16583	677.0
1116.72474	672.7999878
1117.283593	672.7999878
1117.842389	671.0
1118.401128	670.0
1118.959809	670.5999756
1119.518433	672.0
1120.077	674.0
1120.63551	672.5999756
1121.193963	669.2000122
1121.752358	673.0
1122.310697	670.4000244
1122.868978	674.0
1123.427202	673.4000244
1123.985368	672.4000244
1124.543478	672.2000122
1125.10153	670.5999756
1125.659526	673.0
1126.217464	671.5999756
1126.775345	669.2000122
1127.333168	674.7999878
1127.890935	674.2000122
1128.448644	670.7999878
1129.006297	673.4000244
1129.563892	671.4000244
1130.12143	674.2000122
1130.678911	675.0
1131.236335	676.0
1131.793701	669.5999756
1132.351011	673.4000244
1132.908263	672.5999756
1133.465458	674.0
1134.022597	671.5999756
1134.579678	673.2000122
1135.136702	674.4000244
1135.693669	670.7999878
1136.250578	674.2000122
1136.807431	674.5999756
1137.364227	670.7999878
1137.920965	675.2000122
1138.477647	673.5999756
1139.034271	672.5999756
1139.590839	672.7999878
1140.147349	675.0
1140.703802	672.0
1141.260198	672.0
1141.816537	674.0
1142.37282	673.2000122
1142.929045	671.4000244
1143.485213	672.4000244
1144.041323	672.4000244
1144.597377	671.7999878
1145.153374	673.4000244
1145.709314	673.4000244
1146.265197	673.7999878
1146.821023	671.5999756
1147.376792	671.7999878
1147.932503	670.4000244
1148.488158	670.2000122
1149.043756	674.7999878
1149.599297	673.7999878
1150.154781	670.7999878
1150.710207	674.7999878
1151.265577	672.0
1151.82089	672.0
1152.376146	670.2000122
1152.931345	673.4000244
1153.486487	670.4000244
1154.041572	676.0
1154.5966	675.2000122
1155.151571	673.2000122
1155.706485	674.7999878
1156.261342	672.5999756
1156.816142	673.4000244
1157.370885	672.5999756
1157.925572	673.2000122
1158.480201	672.2000122
1159.034774	672.5999756
1159.589289	672.4000244
1160.143748	672.2000122
1160.698149	671.5999756
1161.252494	674.0
1161.806782	672.5999756
1162.361013	672.2000122
1162.915187	670.5999756
1163.469304	670.4000244
1164.023364	673.4000244
1164.577368	674.4000244
1165.131314	675.2000122
1165.685204	673.5999756
1166.239036	673.2000122
1166.792812	675.0
1167.346531	672.2000122
1167.900193	672.0
1168.453798	671.4000244
1169.007347	670.2000122
1169.560838	673.5999756
1170.114273	673.7999878
1170.66765	672.4000244
1171.220971	671.0
1171.774235	670.5999756
1172.327443	673.7999878
1172.880593	672.7999878
1173.433687	672.5999756
1173.986723	672.0
1174.539703	671.2000122
1175.092626	673.5999756
1175.645493	670.4000244
1176.198302	673.5999756
1176.751055	674.2000122
1177.303751	674.0
1177.85639	672.7999878
1178.408972	672.4000244
1178.961498	672.0
1179.513966	669.5999756
1180.066378	673.0
1180.618733	692.0
1181.171032	900.7999878
1181.723273	990.0
1182.275458	1040.199951
1182.827586	1026.800049
1183.379657	967.5999756
1183.931672	1288.199951
1184.48363	698.5999756
1185.035531	673.4000244
1185.587375	675.5999756
1186.139162	671.0
1186.690893	671.7999878
1187.242567	673.7999878
1187.794184	669.4000244
1188.345745	672.7999878
1188.897249	673.2000122
1189.448696	670.4000244
1190.000086	674.0
1190.55142	676.5999756
1191.102697	675.0
1191.653918	674.5999756
1192.205081	673.7999878
1192.756188	672.2000122
1193.307238	694.0
1193.858232	673.0
1194.409169	672.2000122
1194.960049	672.7999878
1195.510872	673.7999878
1196.061639	670.4000244
1196.612349	673.7999878
1197.163003	670.5999756
1197.713599	672.7999878
1198.264139	675.7999878
1198.814623	675.0
1199.36505	674.7999878
1199.91542	671.0
1200.465734	676.4000244
1201.01599	671.0
1201.566191	671.2000122
1202.116334	672.4000244
1202.666421	672.7999878
1203.216452	673.4000244
1203.766425	671.5999756
1204.316343	678.4000244
1204.866203	674.0
1205.416007	672.5999756
1205.965754	674.4000244
1206.515445	674.4000244
1207.065079	673.4000244
1207.614657	672.2000122
1208.164177	673.5999756
1208.713642	675.7999878
1209.26305	673.0
1209.812401	672.7999878
1210.361695	673.7999878
1210.910933	676.0
1211.460115	673.2000122
1212.00924	675.0
1212.558308	672.4000244
1213.10732	675.2000122
1213.656275	676.4000244
1214.205174	673.7999878
1214.754016	672.2000122
1215.302801	675.4000244
1215.85153	673.7999878
1216.400203	674.0
1216.948819	674.2000122
1217.497378	675.0
1218.045881	674.4000244
1218.594327	673.0
1219.142717	677.0
1219.691051	676.4000244
1220.239327	675.2000122
1220.787548	672.7999878
1221.335712	672.7999878
1221.883819	675.2000122
1222.43187	675.2000122
1222.979864	673.4000244
1223.527802	675.7999878
1224.075683	674.7999878
1224.623508	674.4000244
1225.171277	676.7999878
1225.718989	678.7999878
1226.266644	674.2000122
1226.814243	675.5999756
1227.361786	672.7999878
1227.909272	676.0
1228.456702	677.2000122
1229.004075	674.2000122
1229.551392	676.5999756
1230.098652	676.7999878
1230.645856	677.0
1231.193003	676.4000244
1231.740094	678.7999878
1232.287129	677.7999878
1232.834107	676.5999756
1233.381029	675.4000244
1233.927894	675.7999878
1234.474703	676.7999878
1235.021455	677.2000122
1235.568151	678.0
1236.114791	675.2000122
1236.661374	678.7999878
1237.207901	680.4000244
1237.754372	677.7999878
1238.300786	676.0
1238.847144	680.2000122
1239.393445	677.7999878
1239.93969	678.2000122
1240.485879	675.4000244
1241.032011	678.4000244
1241.578087	677.7999878
1242.124106	678.2000122
1242.67007	679.5999756
1243.215976	676.7999878
1243.761827	680.4000244
1244.307621	678.5999756
1244.853359	680.5999756
1245.39904	682.0
1245.944665	680.7999878
1246.490234	680.4000244
1247.035746	680.5999756
1247.581203	682.5999756
1248.126602	680.5999756
1248.671946	683.0
1249.217233	683.2000122
1249.762464	684.0
1250.307638	680.2000122
1250.852757	681.4000244
1251.397819	682.5999756
1251.942824	680.2000122
1252.487774	681.2000122
1253.032667	680.4000244
1253.577503	683.5999756
1254.122284	684.5999756
1254.667008	680.0
1255.211676	684.4000244
1255.756288	683.7999878
1256.300843	683.7999878
1256.845342	685.5999756
1257.389785	685.5999756
1257.934172	687.7999878
1258.478502	698.5999756
1259.022776	694.7999878
1259.566994	692.0
1260.111156	707.0
1260.655261	694.5999756
1261.199311	697.5999756
1261.743304	703.0
1262.28724	710.5999756
1262.831121	714.0
1263.374945	730.5999756
1263.918713	734.2000122
1264.462425	736.0
1265.006081	727.0
1265.54968	714.2000122
1266.093223	706.2000122
1266.636711	700.4000244
1267.180141	692.5999756
1267.723516	698.0
1268.266835	693.7999878
1268.810097	690.0
1269.353303	689.2000122
1269.896453	689.0
1270.439547	690.2000122
1270.982584	697.0
1271.525566	693.7999878
1272.068491	688.7999878
1272.61136	691.5999756
1273.154173	688.4000244
1273.69693	691.2000122
1274.239631	697.5999756
1274.782275	691.5999756
1275.324864	690.5999756
1275.867396	697.4000244
1276.409872	691.0
1276.952292	695.7999878
1277.494656	698.5999756
1278.036964	697.5999756
1278.579215	702.5999756
1279.121411	703.5999756
1279.66355	705.5999756
1280.205634	711.0
1280.747661	726.4000244
1281.289632	747.7999878
1281.831547	790.2000122
1282.373406	875.4000244
1282.915209	1058.400024
1283.456955	1330.199951
1283.998646	1601.400024
1284.540281	1606.599976
1285.081859	1268.0
1285.623381	973.4000244
1286.164848	824.2000122
1286.706258	762.0
1287.247612	734.2000122
1287.788911	720.4000244
1288.330153	714.5999756
1288.871339	707.2000122
1289.412469	699.5999756
1289.953543	702.2000122
1290.494561	695.0
1291.035523	696.2000122
1291.576428	695.4000244
1292.117278	696.4000244
1292.658072	696.7999878
1293.19881	695.7999878
1293.739492	691.5999756
1294.280118	691.7999878
1294.820687	690.0
1295.361201	692.2000122
1295.901659	691.5999756
1296.442061	690.0
1296.982406	692.0
1297.522696	686.0
1298.06293	686.5999756
1298.603108	688.0
1299.143229	686.7999878
1299.683295	684.4000244
1300.223305	688.2000122
1300.763259	686.2000122
1301.303157	687.0
1301.842999	687.4000244
1302.382785	683.2000122
1302.922515	683.2000122
1303.462189	687.0
1304.001807	682.5999756
1304.541369	684.0
1305.080875	682.2000122
1305.620326	683.7999878
1306.15972	682.4000244
1306.699058	684.5999756
1307.238341	687.4000244
1307.777567	684.4000244
1308.316738	683.4000244
1308.855853	685.7999878
1309.394912	683.0
1309.933915	684.7999878
1310.472862	678.4000244
1311.011753	681.5999756
1311.550588	685.4000244
1312.089367	683.4000244
1312.62809	684.4000244
1313.166758	679.4000244
1313.70537	680.7999878
1314.243925	683.0
1314.782425	681.2000122
1315.320869	683.5999756
1315.859257	681.4000244
1316.397589	680.2000122
1316.935866	684.0
1317.474086	682.2000122
1318.012251	682.5999756
1318.55036	682.5999756
1319.088413	681.7999878
1319.62641	681.4000244
1320.164351	681.7999878
1320.702236	679.5999756
1321.240066	680.5999756
1321.777839	678.7999878
1322.315557	680.2000122
1322.853219	682.5999756
1323.390826	677.2000122
1323.928376	687.7999878
1324.465871	682.7999878
1325.003309	681.7999878
1325.540692	685.2000122
1326.07802	681.5999756
1326.615291	682.7999878
1327.152506	680.2000122
1327.689666	677.4000244
1328.22677	680.4000244
1328.763818	681.2000122
1329.300811	678.5999756
1329.837747	680.0
1330.374628	680.5999756
1330.911453	679.7999878
1331.448222	681.7999878
1331.984936	682.4000244
1332.521594	680.4000244
1333.058196	682.4000244
1333.594742	680.4000244
1334.131232	679.7999878
1334.667667	681.7999878
1335.204046	679.7999878
1335.740369	681.4000244
1336.276637	682.0
1336.812848	680.0
1337.349004	685.0
1337.885105	679.2000122
1338.421149	679.2000122
1338.957138	681.4000244
1339.493071	684.4000244
1340.028949	682.2000122
1340.56477	685.0
1341.100536	679.5999756
1341.636246	679.7999878
1342.171901	680.4000244
1342.7075	678.2000122
1343.243043	679.0
1343.77853	681.5999756
1344.313962	682.7999878
1344.849338	680.7999878
1345.384659	682.5999756
1345.919923	682.4000244
1346.455133	681.0
1346.990286	682.5999756
1347.525384	684.2000122
1348.060426	683.0
1348.595412	681.4000244
1349.130343	680.5999756
1349.665218	684.5999756
1350.200037	681.4000244
1350.734801	683.0
1351.269509	684.5999756
1351.804162	680.2000122
1352.338758	680.2000122
1352.8733	681.0
1353.407785	683.0
1353.942215	680.5999756
1354.476589	680.0
1355.010908	684.5999756
1355.545171	681.4000244
1356.079379	684.7999878
1356.61353	682.2000122
1357.147627	684.5999756
1357.681667	681.5999756
1358.215652	684.5999756
1358.749582	682.5999756
1359.283456	684.5999756
1359.817274	684.4000244
1360.351037	683.0
1360.884744	685.7999878
1361.418395	684.0
1361.951991	686.4000244
1362.485531	688.2000122
1363.019016	687.4000244
1363.552445	685.4000244
1364.085819	690.7999878
1364.619137	686.0
1365.1524	689.0
1365.685607	693.2000122
1366.218758	692.5999756
1366.751854	684.5999756
1367.284894	691.4000244
1367.817879	690.0
1368.350808	688.0
1368.883682	692.0
1369.4165	699.4000244
1369.949263	722.4000244
1370.48197	723.4000244
1371.014622	699.4000244
1371.547218	694.0
1372.079758	695.7999878
1372.612244	686.5999756
1373.144673	691.7999878
1373.677047	689.4000244
1374.209366	689.5999756
1374.741629	694.2000122
1375.273836	692.7999878
1375.805989	692.7999878
1376.338085	695.7999878
1376.870126	695.4000244
1377.402112	693.5999756
1377.934042	696.2000122
1378.465917	694.4000244
1378.997736	697.2000122
1379.5295	696.7999878
1380.061208	699.0
1380.592861	694.4000244
1381.124459	702.5999756
1381.656	709.4000244
1382.187487	704.5999756
1382.718918	709.2000122
1383.250294	719.5999756
1383.781614	723.4000244
1384.312879	733.0
1384.844088	747.5999756
1385.375242	773.7999878
1385.90634	826.7999878
1386.437383	942.4000244
1386.968371	1199.599976
1387.499303	1827.0
1388.03018	2656.600098
1388.561001	2334.399902
1389.091767	1440.0
1389.622478	994.0
1390.153133	836.5999756
1390.683733	778.5999756
1391.214277	749.0
1391.744766	729.2000122
1392.2752	724.7999878
1392.805578	715.4000244
1393.335901	709.2000122
1393.866168	708.4000244
1394.396381	704.7999878
1394.926537	706.7999878
1395.456639	699.2000122
1395.986685	698.5999756
1396.516675	697.5999756
1397.046611	699.7999878
1397.576491	697.0
1398.106315	699.0
1398.636084	699.7999878
1399.165798	697.4000244
1399.695457	695.7999878
1400.22506	692.2000122
1400.754608	697.4000244
1401.284101	694.5999756
1401.813538	695.7999878
1402.34292	699.4000244
1402.872247	692.7999878
1403.401518	693.4000244
1403.930734	695.5999756
1404.459895	693.5999756
1404.989	697.7999878
1405.51805	700.5999756
1406.047045	706.0
1406.575984	706.7999878
1407.104869	709.7999878
1407.633697	725.0
1408.162471	739.0
1408.691189	753.4000244
1409.219852	778.4000244
1409.74846	791.7999878
1410.277013	772.5999756
1410.80551	747.2000122
1411.333952	721.4000244
1411.862339	711.0
1412.39067	697.7999878
1412.918946	696.4000244
1413.447167	690.2000122
1413.975333	694.2000122
1414.503444	692.2000122
1415.031499	691.0
1415.559499	698.7999878
1416.087444	687.7999878
1416.615333	683.5999756
1417.143167	685.0
1417.670947	687.0
1418.19867	683.2000122
1418.726339	681.0
1419.253952	684.7999878
1419.781511	683.0
1420.309014	682.4000244
1420.836461	681.0
1421.363854	682.4000244
1421.891191	686.4000244
1422.418474	684.4000244
1422.945701	680.4000244
1423.472872	686.7999878
1423.999989	681.5999756
1424.52705	684.2000122
1425.054057	685.0
1425.581008	683.7999878
1426.107904	684.7999878
1426.634745	683.4000244
1427.16153	682.5999756
1427.688261	679.4000244
1428.214936	679.0
1428.741556	680.0
1429.268121	682.2000122
1429.794631	679.7999878
1430.321085	679.5999756
1430.847485	679.7999878
1431.373829	680.0
1431.900118	680.2000122
1432.426353	678.4000244
1432.952532	679.0
1433.478655	676.4000244
1434.004724	676.5999756
1434.530738	680.2000122
1435.056696	677.5999756
1435.5826	676.7999878
1436.108448	677.7999878
1436.634241	676.2000122
1437.159979	677.0
1437.685662	676.7999878
1438.21129	676.5999756
1438.736863	678.0
1439.262381	675.2000122
1439.787843	675.7999878
1440.313251	676.5999756
1440.838603	676.2000122
1441.3639	675.0
1441.889143	675.7999878
1442.41433	675.7999878
1442.939462	676.2000122
1443.464539	675.0
1443.989561	679.2000122
1444.514528	673.2000122
1445.03944	673.2000122
1445.564297	675.2000122
1446.089099	673.4000244
1446.613846	675.4000244
1447.138537	676.2000122
1447.663174	675.7999878
1448.187756	674.5999756
1448.712282	675.5999756
1449.236754	675.0
1449.761171	677.4000244
1450.285532	676.7999878
1450.809839	673.7999878
1451.33409	676.5999756
1451.858287	675.7999878
1452.382428	674.5999756
1452.906515	671.5999756
1453.430546	675.0
1453.954523	671.7999878
1454.478444	670.0
1455.002311	672.0
1455.526123	672.4000244
1456.049879	671.7999878
1456.573581	671.2000122
1457.097227	671.5999756
1457.620819	674.2000122
1458.144356	672.2000122
1458.667837	672.5999756
1459.191264	670.5999756
1459.714636	672.7999878
1460.237952	675.4000244
1460.761214	675.2000122
1461.284421	674.7999878
1461.807573	674.7999878
1462.33067	671.0
1462.853712	675.0
1463.376699	675.0
1463.899632	674.4000244
1464.422509	674.5999756
1464.945331	672.0
1465.468099	671.7999878
1465.990811	674.5999756
1466.513469	672.4000244
1467.036071	673.0
1467.558619	673.7999878
1468.081112	673.5999756
1468.60355	670.7999878
1469.125933	676.2000122
1469.648261	673.2000122
1470.170534	675.5999756
1470.692752	676.2000122
1471.214916	671.4000244
1471.737024	672.7999878
1472.259078	672.0
1472.781077	671.5999756
1473.303021	672.5999756
1473.82491	675.4000244
1474.346744	670.5999756
1474.868523	672.7999878
1475.390248	671.5999756
1475.911917	675.2000122
1476.433532	670.7999878
1476.955092	671.2000122
1477.476597	673.4000244
1477.998047	671.7999878
1478.519442	674.0
1479.040783	672.5999756
1479.562068	671.2000122
1480.083299	672.7999878
1480.604475	674.7999878
1481.125596	671.5999756
1481.646663	671.4000244
1482.167674	673.0
1482.688631	673.0
1483.209533	673.0
1483.73038	672.0
1484.251172	672.0
1484.771909	672.2000122
1485.292592	671.2000122
1485.81322	672.5999756
1486.333793	669.2000122
1486.854311	672.7999878
1487.374775	669.5999756
1487.895183	673.0
1488.415537	673.2000122
1488.935836	669.0
1489.456081	675.5999756
1489.97627	672.2000122
1490.496405	674.0
1491.016485	670.7999878
1491.536511	671.0
1492.056481	672.4000244
1492.576397	672.4000244
1493.096258	670.4000244
1493.616064	670.0
1494.135816	674.4000244
1494.655513	671.4000244
1495.175155	670.7999878
1495.694742	670.2000122
1496.214274	673.0
1496.733752	672.2000122
1497.253175	672.4000244
1497.772544	672.5999756
1498.291858	673.4000244
1498.811116	673.2000122
1499.330321	670.0
1499.84947	679.7999878
1500.368565	670.2000122
1500.887605	669.5999756
1501.406591	672.4000244
1501.925521	668.0
1502.444397	670.5999756
1502.963219	673.5999756
1503.481985	669.2000122
1504.000697	675.4000244
1504.519355	671.4000244
1505.037957	668.4000244
1505.556505	671.0
1506.074999	672.7999878
1506.593437	672.4000244
1507.111821	673.4000244
1507.63015	670.7999878
1508.148425	675.2000122
1508.666645	669.7999878
1509.18481	671.7999878
1509.702921	673.2000122
1510.220977	671.0
1510.738979	683.2000122
1511.256925	670.7999878
1511.774817	673.2000122
1512.292655	671.2000122
1512.810438	672.7999878
1513.328166	669.5999756
1513.84584	671.7999878
1514.363459	672.0
1514.881023	668.4000244
1515.398533	668.7999878
1515.915988	672.0
1516.433389	674.5999756
1516.950734	670.5999756
1517.468026	672.5999756
1517.985263	671.7999878
1518.502445	669.7999878
1519.019572	671.4000244
1519.536645	673.4000244
1520.053664	669.4000244
1520.570628	669.7999878
1521.087537	673.2000122
1521.604392	671.2000122
1522.121192	674.0
1522.637937	673.5999756
1523.154628	672.2000122
1523.671265	673.2000122
1524.187847	673.2000122
1524.704374	672.2000122
1525.220847	672.4000244
1525.737265	669.7999878
1526.253629	674.0
1526.769938	673.2000122
1527.286192	671.4000244
1527.802392	673.4000244
1528.318538	672.7999878
1528.834629	672.0
1529.350666	672.4000244
1529.866648	674.7999878
1530.382575	671.7999878
1530.898448	669.5999756
1531.414266	671.2000122
1531.93003	669.4000244
1532.44574	672.4000244
1532.961395	673.0
1533.476995	671.4000244
1533.992541	672.5999756
1534.508033	671.0
1535.02347	672.2000122
1535.538852	674.0
1536.05418	673.7999878
1536.569454	671.4000244
1537.084673	673.2000122
1537.599837	671.7999878
1538.114947	671.0
1538.630003	673.4000244
1539.145004	674.7999878
1539.659951	674.4000244
1540.174843	671.4000244
1540.689681	672.7999878
1541.204465	675.0
1541.719194	673.7999878
1542.233868	674.0
1542.748488	672.4000244
1543.263054	672.5999756
1543.777565	673.2000122
1544.292022	675.0
1544.806424	670.4000244
1545.320772	671.5999756
1545.835066	674.0
1546.349305	671.7999878
1546.863489	673.5999756
1547.37762	669.5999756
1547.891696	672.5999756
1548.405717	671.4000244
1548.919684	673.4000244
1549.433597	674.0
1549.947455	671.4000244
1550.461259	670.0
1550.975009	672.5999756
1551.488704	673.2000122
1552.002345	674.2000122
1552.515931	671.4000244
1553.029463	670.7999878
1553.542941	671.7999878
1554.056364	673.2000122
1554.569733	671.4000244
1555.083048	674.7999878
1555.596308	672.5999756
1556.109514	667.5999756
1556.622665	672.0
1557.135762	669.2000122
1557.648805	673.4000244
1558.161794	671.7999878
1558.674728	669.2000122
1559.187608	670.0
1559.700433	674.0
1560.213205	670.5999756
1560.725921	673.7999878
1561.238584	675.7999878
1561.751192	672.7999878
1562.263746	670.0
1562.776246	671.4000244
1563.288691	671.5999756
1563.801082	677.5999756
1564.313419	672.0
1564.825701	672.0
1565.337929	671.7999878
1565.850103	672.5999756
1566.362223	672.5999756
1566.874288	674.0
1567.386299	675.4000244
1567.898256	670.2000122
1568.410158	673.7999878
1568.922007	673.4000244
1569.4338	673.0
1569.94554	672.2000122
1570.457226	672.7999878
1570.968857	674.5999756
1571.480434	675.4000244
1573.014839	676.4000244
1573.526199	671.5999756
1574.037505	674.0
1574.548756	674.5999756
1575.059953	673.0
1575.571096	670.2000122
1576.082185	671.0
1576.59322	672.7999878
1577.1042	671.5999756
1577.615126	671.7999878
1578.125998	671.4000244
1578.636816	673.7999878
1579.14758	671.4000244
1579.658289	673.7999878
1580.168944	668.5999756
1580.679545	671.7999878
1581.190092	670.0
1581.700585	675.0
1582.211023	676.4000244
1582.721407	669.0
1583.231737	671.0
1583.742013	675.5999756
1584.252235	672.7999878
1584.762403	673.7999878
1585.272516	673.0
1585.782575	674.4000244
1586.292581	670.4000244
1586.802532	673.5999756
1587.312428	673.7999878
1587.822271	672.2000122
1588.33206	670.7999878
1588.841794	668.4000244
1589.351474	672.7999878
1589.8611	671.0
1590.370672	673.4000244
1590.88019	671.7999878
1591.389654	672.5999756
1591.899064	670.7999878
1592.408419	672.0
