1042.452273	691.5999756
1043.018714	689.7999878
1043.585098	690.2000122
1044.151424	688.4000244
1044.717692	683.4000244
1045.283903	687.5999756
1045.850056	693.4000244
1046.416151	687.0
1046.982188	686.4000244
1047.548167	685.4000244
1048.114089	684.0
1048.679953	687.2000122
1049.24576	688.2000122
1049.811509	685.5999756
1050.3772	683.0
1050.942833	682.2000122
1051.508408	686.4000244
1052.073926	684.2000122
1052.639387	682.2000122
1053.204789	685.2000122
1053.770134	684.0
1054.335421	684.2000122
1054.900651	678.4000244
1055.465823	684.0
1056.030937	681.7999878
1056.595993	679.7999878
1057.160992	679.2000122
1057.725934	682.2000122
1058.290817	681.0
1058.855643	680.0
1059.420411	681.4000244
1059.985122	681.2000122
1060.549775	681.4000244
1061.114371	684.0
1061.678908	682.4000244
1062.243389	683.2000122
1062.807811	684.4000244
1063.372176	681.5999756
1063.936483	679.0
1064.500733	679.5999756
1065.064925	680.7999878
1065.62906	681.4000244
1066.193137	684.2000122
1066.757156	678.7999878
1067.321118	681.0
1067.885022	676.7999878
1068.448869	681.0
1069.012658	681.4000244
1069.57639	683.5999756
1070.140063	687.2000122
1070.70368	679.7999878
1071.267239	680.4000244
1071.83074	679.7999878
1072.394184	680.5999756
1072.95757	680.2000122
1073.520899	683.2000122
1074.08417	682.4000244
1074.647383	680.4000244
1075.21054	678.2000122
1075.773638	682.2000122
1076.336679	683.2000122
1076.899663	683.0
1077.462589	682.5999756
1078.025457	680.2000122
1078.588268	683.5999756
1079.151022	680.4000244
1079.713718	685.5999756
1080.276356	683.2000122
1080.838937	680.4000244
1081.401461	683.5999756
1081.963927	680.7999878
1082.526336	685.2000122
1083.088687	682.7999878
1083.650981	679.4000244
1084.213217	683.0
1084.775396	687.0
1085.337517	685.2000122
1085.899581	685.0
1086.461587	689.0
1087.023536	687.2000122
1087.585428	688.4000244
1088.147262	688.2000122
1088.709039	685.7999878
1089.270758	685.0
1089.83242	688.7999878
1090.394024	687.4000244
1090.955571	688.4000244
1091.517061	688.4000244
1092.078493	693.2000122
1092.639868	688.7999878
1093.201185	690.5999756
1093.762445	689.4000244
1094.323648	690.2000122
1094.884793	692.2000122
1095.445881	691.2000122
1096.006911	690.4000244
1096.567884	690.4000244
1097.1288	696.2000122
1097.689659	691.7999878
1098.25046	685.5999756
1098.811203	685.4000244
1099.37189	687.0
1099.932518	686.2000122
1100.49309	685.4000244
1101.053604	684.7999878
1101.614061	684.5999756
1102.174461	683.2000122
1102.734803	686.2000122
1103.295088	685.0
1103.855316	684.0
1104.415486	682.7999878
1104.975599	684.7999878
1105.535655	683.5999756
1106.095653	684.4000244
1106.655594	684.4000244
1107.215478	686.4000244
1107.775305	684.5999756
1108.335074	684.7999878
1108.894786	680.5999756
1109.45444	684.5999756
1110.014038	685.0
1110.573578	684.2000122
1111.133061	681.7999878
1111.692486	685.5999756
1112.251854	692.2000122
1112.811165	686.0
1113.370419	686.4000244
1113.929616	687.7999878
1114.488755	688.0
1115.047837	686.4000244
1115.606862	684.5999756
1116.16583	686.0
1116.72474	683.0
1117.283593	686.2000122
1117.842389	683.0
1118.401128	681.5999756
1118.959809	682.2000122
1119.518433	680.2000122
1120.077	683.7999878
1120.63551	680.0
1121.193963	680.0
1121.752358	678.0
1122.310697	682.0
1122.868978	681.7999878
1123.427202	677.7999878
1123.985368	679.2000122
1124.543478	682.4000244
1125.10153	677.7999878
1125.659526	677.4000244
1126.217464	679.4000244
1126.775345	682.0
1127.333168	676.5999756
1127.890935	682.5999756
1128.448644	681.0
1129.006297	681.4000244
1129.563892	679.5999756
1130.12143	679.4000244
1130.678911	679.4000244
1131.236335	679.4000244
1131.793701	681.7999878
1132.351011	678.2000122
1132.908263	680.4000244
1133.465458	679.5999756
1134.022597	679.4000244
1134.579678	678.4000244
1135.136702	680.0
1135.693669	679.2000122
1136.250578	676.7999878
1136.807431	681.2000122
1137.364227	676.7999878
1137.920965	677.4000244
1138.477647	678.2000122
1139.034271	676.0
1139.590839	678.4000244
1140.147349	680.0
1140.703802	678.4000244
1141.260198	679.7999878
1141.816537	678.0
1142.37282	681.0
1142.929045	679.2000122
1143.485213	680.4000244
1144.041323	680.7999878
1144.597377	681.2000122
1145.153374	674.7999878
1145.709314	677.4000244
1146.265197	680.4000244
1146.821023	681.2000122
1147.376792	678.2000122
1147.932503	681.4000244
1148.488158	677.7999878
1149.043756	680.4000244
1149.599297	680.4000244
1150.154781	676.7999878
1150.710207	681.2000122
1151.265577	679.4000244
1151.82089	681.5999756
1152.376146	676.4000244
1152.931345	679.0
1153.486487	679.0
1154.041572	682.2000122
1154.5966	679.2000122
1155.151571	679.4000244
1155.706485	677.4000244
1156.261342	681.4000244
1156.816142	676.2000122
1157.370885	680.5999756
1157.925572	679.0
1158.480201	681.7999878
1159.034774	678.5999756
1159.589289	678.0
1160.143748	679.5999756
1160.698149	681.5999756
1161.252494	678.5999756
1161.806782	679.0
1162.361013	680.7999878
1162.915187	678.5999756
1163.469304	677.0
1164.023364	676.7999878
1164.577368	679.2000122
1165.131314	676.2000122
1165.685204	676.5999756
1166.239036	678.0
1166.792812	676.2000122
1167.346531	676.7999878
1167.900193	679.5999756
1168.453798	677.2000122
1169.007347	680.0
1169.560838	680.5999756
1170.114273	675.4000244
1170.66765	678.5999756
1171.220971	676.4000244
1171.774235	676.2000122
1172.327443	678.4000244
1172.880593	677.7999878
1173.433687	678.0
1173.986723	677.0
1174.539703	677.4000244
1175.092626	679.5999756
1175.645493	678.7999878
1176.198302	678.4000244
1176.751055	680.2000122
1177.303751	677.4000244
1177.85639	681.0
1178.408972	683.5999756
1178.961498	680.0
1179.513966	678.7999878
1180.066378	680.2000122
1180.618733	682.0
1181.171032	681.7999878
1181.723273	684.5999756
1182.275458	684.7999878
1182.827586	681.0
1183.379657	683.7999878
1183.931672	680.2000122
1184.48363	685.2000122
1185.035531	686.7999878
1185.587375	683.7999878
1186.139162	681.2000122
1186.690893	681.2000122
1187.242567	682.5999756
1187.794184	682.4000244
1188.345745	682.0
1188.897249	679.0
1189.448696	682.4000244
1190.000086	683.4000244
1190.55142	680.2000122
1191.102697	679.2000122
1191.653918	678.7999878
1192.205081	679.2000122
1192.756188	680.5999756
1193.307238	704.0
1193.858232	681.7999878
1194.409169	680.7999878
1194.960049	682.4000244
1195.510872	680.2000122
1196.061639	679.0
1196.612349	675.2000122
1197.163003	681.0
1197.713599	681.7999878
1198.264139	678.2000122
1198.814623	679.2000122
1199.36505	679.4000244
1199.91542	680.5999756
1200.465734	680.2000122
1201.01599	678.5999756
1201.566191	679.2000122
1202.116334	680.2000122
1202.666421	682.0
1203.216452	681.4000244
1203.766425	680.0
1204.316343	680.5999756
1204.866203	679.4000244
1205.416007	678.7999878
1205.965754	681.4000244
1206.515445	681.4000244
1207.065079	684.4000244
1207.614657	680.4000244
1208.164177	682.2000122
1208.713642	681.7999878
1209.26305	679.5999756
1209.812401	681.0
1210.361695	684.4000244
1210.910933	683.0
1211.460115	681.0
1212.00924	683.0
1212.558308	683.0
1213.10732	683.5999756
1213.656275	684.4000244
1214.205174	679.7999878
1214.754016	684.4000244
1215.302801	682.5999756
1215.85153	683.0
1216.400203	684.0
1216.948819	681.7999878
1217.497378	684.4000244
1218.045881	680.4000244
1218.594327	683.4000244
1219.142717	682.4000244
1219.691051	684.4000244
1220.239327	684.0
1220.787548	683.5999756
1221.335712	683.7999878
1221.883819	686.5999756
1222.43187	684.4000244
1222.979864	685.0
1223.527802	687.2000122
1224.075683	687.4000244
1224.623508	688.7999878
1225.171277	684.2000122
1225.718989	684.4000244
1226.266644	687.0
1226.814243	687.4000244
1227.361786	689.2000122
1227.909272	690.0
1228.456702	686.5999756
1229.004075	685.2000122
1229.551392	687.5999756
1230.098652	686.2000122
1230.645856	690.2000122
1231.193003	688.5999756
1231.740094	688.4000244
1232.287129	688.7999878
1232.834107	688.5999756
1233.381029	688.2000122
1233.927894	689.0
1234.474703	689.4000244
1235.021455	687.0
1235.568151	686.4000244
1236.114791	687.7999878
1236.661374	687.5999756
1237.207901	689.5999756
1237.754372	691.0
1238.300786	690.5999756
1238.847144	690.0
1239.393445	687.7999878
1239.93969	686.0
1240.485879	687.0
1241.032011	688.5999756
1241.578087	687.7999878
1242.124106	686.4000244
1242.67007	689.2000122
1243.215976	693.4000244
1243.761827	688.7999878
1244.307621	696.7999878
1244.853359	690.0
1245.39904	694.4000244
1245.944665	695.7999878
1246.490234	694.2000122
1247.035746	695.7999878
1247.581203	693.7999878
1248.126602	696.4000244
1248.671946	694.2000122
1249.217233	697.5999756
1249.762464	693.4000244
1250.307638	700.4000244
1250.852757	695.0
1251.397819	697.2000122
1251.942824	695.7999878
1252.487774	698.7999878
1253.032667	697.4000244
1253.577503	698.2000122
1254.122284	697.2000122
1254.667008	702.2000122
1255.211676	699.2000122
1255.756288	696.4000244
1256.300843	699.0
1256.845342	703.4000244
1257.389785	705.5999756
1257.934172	714.0
1258.478502	715.7999878
1259.022776	716.2000122
1259.566994	713.5999756
1260.111156	731.5999756
1260.655261	718.2000122
1261.199311	733.2000122
1261.743304	748.5999756
1262.28724	758.5999756
1262.831121	773.0
1263.374945	789.2000122
1263.918713	782.7999878
1264.462425	782.0
1265.006081	762.4000244
1265.54968	742.7999878
1266.093223	729.5999756
1266.636711	724.5999756
1267.180141	722.4000244
1267.723516	715.7999878
1268.266835	714.4000244
1268.810097	710.5999756
1269.353303	709.0
1269.896453	715.4000244
1270.439547	712.5999756
1270.982584	713.5999756
1271.525566	718.2000122
1272.068491	717.4000244
1272.61136	712.0
1273.154173	712.4000244
1273.69693	708.4000244
1274.239631	715.2000122
1274.782275	716.5999756
1275.324864	714.7999878
1275.867396	716.7999878
1276.409872	721.4000244
1276.952292	719.4000244
1277.494656	725.0
1278.036964	729.5999756
1278.579215	736.5999756
1279.121411	740.4000244
1279.66355	752.0
1280.205634	783.4000244
1280.747661	813.4000244
1281.289632	878.5999756
1281.831547	1036.0
1282.373406	1332.599976
1282.915209	1815.599976
1283.456955	2252.399902
1283.998646	2257.600098
1284.540281	1802.800049
1285.081859	1321.0
1285.623381	1010.799988
1286.164848	873.4000244
1286.706258	808.5999756
1287.247612	778.2000122
1287.788911	751.2000122
1288.330153	751.0
1288.871339	736.4000244
1289.412469	731.7999878
1289.953543	729.0
1290.494561	724.2000122
1291.035523	722.4000244
1291.576428	717.2000122
1292.117278	716.5999756
1292.658072	719.5999756
1293.19881	716.4000244
1293.739492	712.0
1294.280118	708.4000244
1294.820687	714.5999756
1295.361201	709.2000122
1295.901659	710.4000244
1296.442061	710.0
1296.982406	708.4000244
1297.522696	709.5999756
1298.06293	707.4000244
1298.603108	707.4000244
1299.143229	707.5999756
1299.683295	705.2000122
1300.223305	707.4000244
1300.763259	705.2000122
1301.303157	704.5999756
1301.842999	705.7999878
1302.382785	704.5999756
1302.922515	703.4000244
1303.462189	706.7999878
1304.001807	703.2000122
1304.541369	702.2000122
1305.080875	697.5999756
1305.620326	699.5999756
1306.15972	699.5999756
1306.699058	699.2000122
1307.238341	704.2000122
1307.777567	703.0
1308.316738	701.7999878
1308.855853	698.7999878
1309.394912	700.7999878
1309.933915	695.0
1310.472862	694.7999878
1311.011753	700.7999878
1311.550588	700.7999878
1312.089367	697.4000244
1312.62809	703.0
1313.166758	699.5999756
1313.70537	699.4000244
1314.243925	698.7999878
1314.782425	697.4000244
1315.320869	694.5999756
1315.859257	694.7999878
1316.397589	701.5999756
1316.935866	696.2000122
1317.474086	697.5999756
1318.012251	699.0
1318.55036	697.7999878
1319.088413	699.4000244
1319.62641	696.4000244
1320.164351	694.7999878
1320.702236	694.2000122
1321.240066	694.2000122
1321.777839	691.2000122
1322.315557	692.7999878
1322.853219	692.0
1323.390826	694.7999878
1323.928376	700.4000244
1324.465871	695.4000244
1325.003309	694.7999878
1325.540692	694.5999756
1326.07802	696.5999756
1326.615291	693.7999878
1327.152506	696.7999878
1327.689666	694.4000244
1328.22677	695.0
1328.763818	694.7999878
1329.300811	697.7999878
1329.837747	694.4000244
1330.374628	690.2000122
1330.911453	698.0
1331.448222	691.7999878
1331.984936	692.2000122
1332.521594	694.2000122
1333.058196	694.2000122
1333.594742	694.5999756
1334.131232	694.4000244
1334.667667	696.7999878
1335.204046	699.0
1335.740369	696.5999756
1336.276637	699.0
1336.812848	695.2000122
1337.349004	699.2000122
1337.885105	690.4000244
1338.421149	696.7999878
1338.957138	700.0
1339.493071	697.2000122
1340.028949	692.2000122
1340.56477	695.4000244
1341.100536	695.7999878
1341.636246	693.7999878
1342.171901	694.4000244
1342.7075	696.7999878
1343.243043	695.4000244
1343.77853	696.4000244
1344.313962	697.4000244
1344.849338	694.2000122
1345.384659	695.2000122
1345.919923	696.5999756
1346.455133	697.0
1346.990286	695.5999756
1347.525384	696.0
1348.060426	695.5999756
1348.595412	694.0
1349.130343	695.0
1349.665218	697.0
1350.200037	695.5999756
1350.734801	697.4000244
1351.269509	692.7999878
1351.804162	696.2000122
1352.338758	694.2000122
1352.8733	698.0
1353.407785	696.2000122
1353.942215	699.0
1354.476589	699.7999878
1355.010908	696.4000244
1355.545171	697.5999756
1356.079379	695.5999756
1356.61353	702.2000122
1357.147627	702.5999756
1357.681667	697.2000122
1358.215652	694.5999756
1358.749582	698.4000244
1359.283456	699.4000244
1359.817274	704.0
1360.351037	700.5999756
1360.884744	700.5999756
1361.418395	700.4000244
1361.951991	707.0
1362.485531	705.4000244
1363.019016	707.0
1363.552445	705.5999756
1364.085819	705.5999756
1364.619137	709.2000122
1365.1524	711.2000122
1365.685607	711.7999878
1366.218758	709.4000244
1366.751854	705.4000244
1367.284894	710.4000244
1367.817879	707.2000122
1368.350808	713.7999878
1368.883682	715.4000244
1369.4165	740.4000244
1369.949263	783.4000244
1370.48197	748.2000122
1371.014622	722.7999878
1371.547218	713.0
1372.079758	714.0
1372.612244	712.0
1373.144673	715.2000122
1373.677047	713.2000122
1374.209366	707.7999878
1374.741629	719.5999756
1375.273836	717.0
1375.805989	719.7999878
1376.338085	724.7999878
1376.870126	719.2000122
1377.402112	722.7999878
1377.934042	723.0
1378.465917	724.7999878
1378.997736	721.4000244
1379.5295	732.0
1380.061208	732.0
1380.592861	735.2000122
1381.124459	741.7999878
1381.656	748.7999878
1382.187487	751.4000244
1382.718918	756.5999756
1383.250294	779.2000122
1383.781614	790.4000244
1384.312879	814.5999756
1384.844088	858.5999756
1385.375242	929.0
1385.90634	1072.800049
1386.437383	1417.199951
1386.968371	2214.800049
1387.499303	3672.199951
1388.03018	4220.0
1388.561001	2902.800049
1389.091767	1645.800049
1389.622478	1137.599976
1390.153133	957.5999756
1390.683733	848.2000122
1391.214277	813.2000122
1391.744766	785.7999878
1392.2752	770.4000244
1392.805578	754.0
1393.335901	751.4000244
1393.866168	745.7999878
1394.396381	736.7999878
1394.926537	733.2000122
1395.456639	727.7999878
1395.986685	730.2000122
1396.516675	724.4000244
1397.046611	726.5999756
1397.576491	725.0
1398.106315	726.0
1398.636084	724.4000244
1399.165798	721.2000122
1399.695457	721.2000122
1400.22506	720.0
1400.754608	718.4000244
1401.284101	722.7999878
1401.813538	721.7999878
1402.34292	721.4000244
1402.872247	718.7999878
1403.401518	722.2000122
1403.930734	726.7999878
1404.459895	724.4000244
1404.989	730.0
1405.51805	731.4000244
1406.047045	744.5999756
1406.575984	749.7999878
1407.104869	757.0
1407.633697	783.4000244
1408.162471	809.0
1408.691189	838.0
1409.219852	863.7999878
1409.74846	858.7999878
1410.277013	834.4000244
1410.80551	792.5999756
1411.333952	757.2000122
1411.862339	737.7999878
1412.39067	724.2000122
1412.918946	721.0
1413.447167	712.0
1413.975333	712.7999878
1414.503444	709.0
1415.031499	709.4000244
1415.559499	720.7999878
1416.087444	701.7999878
1416.615333	704.0
1417.143167	703.4000244
1417.670947	698.2000122
1418.19867	697.2000122
1418.726339	701.7999878
1419.253952	696.7999878
1419.781511	695.7999878
1420.309014	699.5999756
1420.836461	697.4000244
1421.363854	699.0
1421.891191	697.0
1422.418474	698.4000244
1422.945701	698.0
1423.472872	698.4000244
1423.999989	697.7999878
1424.52705	695.7999878
1425.054057	696.5999756
1425.581008	694.7999878
1426.107904	695.4000244
1426.634745	695.2000122
1427.16153	694.5999756
1427.688261	693.5999756
1428.214936	692.5999756
1428.741556	696.5999756
1429.268121	693.2000122
1429.794631	689.5999756
1430.321085	692.0
1430.847485	690.7999878
1431.373829	690.5999756
1431.900118	688.7999878
1432.426353	689.2000122
1432.952532	688.5999756
1433.478655	690.2000122
1434.004724	685.7999878
1434.530738	691.5999756
1435.056696	688.7999878
1435.5826	687.7999878
1436.108448	691.0
1436.634241	689.5999756
1437.159979	690.5999756
1437.685662	685.4000244
1438.21129	687.4000244
1438.736863	690.5999756
1439.262381	688.0
1439.787843	687.7999878
1440.313251	689.5999756
1440.838603	688.2000122
1441.3639	689.0
1441.889143	689.7999878
1442.41433	687.2000122
1442.939462	689.0
1443.464539	686.2000122
1443.989561	685.4000244
1444.514528	686.0
1445.03944	685.4000244
1445.564297	684.0
1446.089099	686.4000244
1446.613846	688.2000122
1447.138537	686.4000244
1447.663174	686.0
1448.187756	685.7999878
1448.712282	683.7999878
1449.236754	685.0
1449.761171	683.7999878
1450.285532	684.4000244
1450.809839	684.5999756
1451.33409	688.7999878
1451.858287	683.0
1452.382428	683.5999756
1452.906515	682.5999756
1453.430546	683.5999756
1453.954523	686.0
1454.478444	683.2000122
1455.002311	685.0
1455.526123	681.4000244
1456.049879	681.5999756
1456.573581	686.7999878
1457.097227	813.7999878
1458.667837	683.7999878
1459.191264	682.4000244
1459.714636	684.0
1460.237952	684.0
1460.761214	683.2000122
1461.284421	679.5999756
1461.807573	681.2000122
1462.33067	682.0
1462.853712	685.2000122
1463.376699	683.0
1463.899632	681.2000122
1464.422509	686.2000122
1464.945331	684.5999756
1465.468099	680.7999878
1465.990811	681.0
1466.513469	682.4000244
1467.036071	681.5999756
1467.558619	679.4000244
1468.081112	680.4000244
1468.60355	683.2000122
1469.125933	678.7999878
1469.648261	680.7999878
1470.170534	684.5999756
1470.692752	678.5999756
1471.214916	682.5999756
1471.737024	679.5999756
1472.259078	682.2000122
1472.781077	680.5999756
1473.303021	678.2000122
1473.82491	677.4000244
1474.346744	681.7999878
1474.868523	680.2000122
1475.390248	680.2000122
1475.911917	677.2000122
1476.433532	678.4000244
1476.955092	681.4000244
1477.476597	681.7999878
1477.998047	680.2000122
1478.519442	681.2000122
1479.040783	678.2000122
1479.562068	678.5999756
1480.083299	677.7999878
1480.604475	676.7999878
1481.125596	678.7999878
1481.646663	678.2000122
1482.167674	677.4000244
1482.688631	677.7999878
1483.209533	678.0
1483.73038	679.5999756
1484.251172	677.0
1484.771909	678.7999878
1485.292592	676.0
1485.81322	679.4000244
1486.333793	678.4000244
1486.854311	676.0
1487.374775	675.0
1487.895183	677.4000244
1488.415537	682.2000122
1488.935836	678.2000122
1489.456081	676.7999878
1489.97627	674.4000244
1490.496405	675.2000122
1491.016485	675.7999878
1491.536511	678.5999756
1492.056481	679.0
1492.576397	677.4000244
1493.096258	679.5999756
1493.616064	677.5999756
1494.135816	675.2000122
1494.655513	678.0
1495.175155	676.7999878
1495.694742	678.4000244
1496.214274	677.5999756
1496.733752	674.0
1497.253175	676.0
1497.772544	676.4000244
1498.291858	680.5999756
1498.811116	676.7999878
1499.330321	676.0
1499.84947	686.0
1500.368565	676.4000244
1500.887605	676.0
1501.406591	679.5999756
1501.925521	677.7999878
1502.444397	673.5999756
1502.963219	676.7999878
1503.481985	679.0
1504.000697	677.2000122
1504.519355	679.0
1505.037957	675.2000122
1505.556505	673.4000244
1506.074999	676.5999756
1506.593437	675.4000244
1507.111821	679.0
1507.63015	678.4000244
1508.148425	680.2000122
1508.666645	675.5999756
1509.18481	676.2000122
1509.702921	680.2000122
1510.220977	677.5999756
1510.738979	687.7999878
1511.256925	675.4000244
1511.774817	673.5999756
1512.292655	679.2000122
1512.810438	676.0
1513.328166	676.0
1513.84584	678.5999756
1514.363459	678.0
1514.881023	677.4000244
1515.398533	675.0
1515.915988	673.2000122
1516.433389	677.7999878
1516.950734	676.0
1517.468026	677.2000122
1517.985263	676.4000244
1518.502445	681.0
1519.019572	676.4000244
1519.536645	677.4000244
1520.053664	675.2000122
1520.570628	679.5999756
1521.087537	677.2000122
1521.604392	676.0
1522.121192	676.2000122
1522.637937	679.4000244
1523.154628	678.0
1523.671265	676.2000122
1524.187847	675.7999878
1524.704374	676.5999756
1525.220847	674.4000244
1525.737265	676.4000244
1526.253629	679.5999756
1526.769938	678.7999878
1527.286192	675.5999756
1527.802392	677.5999756
1528.318538	677.2000122
1528.834629	677.4000244
1529.350666	678.5999756
1529.866648	676.5999756
1530.382575	674.7999878
1530.898448	675.0
1531.414266	677.4000244
1531.93003	677.0
1532.44574	675.0
1532.961395	676.2000122
1533.476995	676.5999756
1533.992541	679.0
1534.508033	677.0
1535.02347	677.2000122
1535.538852	677.7999878
1536.05418	677.5999756
1536.569454	677.5999756
1537.084673	678.2000122
1537.599837	674.0
1538.114947	676.0
1538.630003	676.2000122
1539.145004	674.2000122
1539.659951	677.0
1540.174843	677.5999756
1540.689681	675.5999756
1541.204465	677.0
1541.719194	678.5999756
1542.233868	677.4000244
1542.748488	675.7999878
1543.263054	677.2000122
1543.777565	674.5999756
1544.292022	677.5999756
1544.806424	676.2000122
1545.320772	675.7999878
1545.835066	676.4000244
1546.349305	679.0
1546.863489	673.5999756
1547.37762	678.5999756
1547.891696	676.2000122
1548.405717	677.2000122
1548.919684	676.4000244
1549.433597	675.0
1549.947455	674.7999878
1550.461259	676.7999878
1550.975009	677.2000122
1551.488704	678.7999878
1552.002345	673.2000122
1552.515931	679.2000122
1553.029463	675.2000122
1553.542941	675.4000244
1554.056364	675.5999756
1554.569733	675.7999878
1555.083048	675.4000244
1555.596308	676.5999756
1556.109514	675.5999756
1556.622665	675.5999756
1557.135762	677.0
1557.648805	677.0
1558.161794	676.0
1558.674728	677.7999878
1559.187608	675.2000122
1559.700433	676.4000244
1560.213205	678.2000122
1560.725921	678.4000244
1561.238584	678.4000244
1561.751192	678.5999756
1562.263746	678.0
1562.776246	677.2000122
1563.288691	677.7999878
1563.801082	677.5999756
1564.313419	676.5999756
1564.825701	675.0
1565.337929	675.5999756
1565.850103	676.4000244
1566.362223	674.2000122
1566.874288	677.0
1567.386299	677.0
1567.898256	676.2000122
1568.410158	678.2000122
1568.922007	676.7999878
1569.4338	674.0
1569.94554	677.0
1570.457226	677.5999756
1570.968857	678.2000122
1571.480434	676.0
1571.991956	676.2000122
1572.503425	677.4000244
1573.014839	677.2000122
1573.526199	678.2000122
1574.037505	677.4000244
1574.548756	680.2000122
1575.059953	675.2000122
1575.571096	677.4000244
1576.082185	680.5999756
1576.59322	676.0
1577.1042	676.4000244
1577.615126	676.0
1578.125998	677.7999878
1578.636816	676.7999878
1579.14758	676.2000122
1579.658289	676.4000244
1580.168944	676.2000122
1580.679545	677.4000244
1581.190092	678.2000122
1581.700585	674.5999756
1582.211023	679.0
1582.721407	675.0
1583.231737	676.5999756
1583.742013	680.7999878
1584.252235	678.4000244
1584.762403	675.4000244
1585.272516	675.2000122
1585.782575	676.2000122
1586.292581	677.2000122
1586.802532	678.5999756
1587.312428	677.0
1587.822271	674.7999878
1588.33206	678.7999878
1588.841794	677.0
1589.351474	676.4000244
1589.8611	674.5999756
1590.370672	678.0
1590.88019	681.4000244
1591.389654	677.7999878
1591.899064	679.4000244
1592.408419	675.7999878
