1042.452273	707.2000122
1043.018714	713.5999756
1043.585098	707.2000122
1044.151424	711.2000122
1044.717692	707.0
1045.283903	708.2000122
1045.850056	703.2000122
1046.416151	702.5999756
1046.982188	703.4000244
1047.548167	699.7999878
1048.114089	696.0
1048.679953	695.7999878
1049.24576	700.4000244
1049.811509	698.5999756
1050.3772	698.0
1050.942833	701.2000122
1051.508408	693.2000122
1052.073926	692.5999756
1052.639387	694.2000122
1053.204789	694.5999756
1053.770134	692.5999756
1054.335421	692.4000244
1054.900651	693.5999756
1055.465823	694.0
1056.030937	692.4000244
1056.595993	692.5999756
1057.160992	692.0
1057.725934	692.7999878
1058.290817	698.2000122
1058.855643	691.0
1059.420411	690.4000244
1059.985122	696.4000244
1060.549775	691.7999878
1061.114371	688.0
1061.678908	689.7999878
1062.243389	687.4000244
1062.807811	688.0
1063.372176	688.0
1063.936483	686.0
1064.500733	689.0
1065.064925	685.7999878
1065.62906	691.2000122
1066.193137	691.4000244
1066.757156	688.4000244
1067.321118	687.0
1067.885022	689.2000122
1068.448869	689.5999756
1069.012658	692.0
1069.57639	689.5999756
1070.140063	698.0
1070.70368	689.4000244
1071.267239	685.5999756
1071.83074	688.4000244
1072.394184	689.2000122
1072.95757	691.7999878
1073.520899	687.5999756
1074.08417	687.7999878
1074.647383	689.0
1075.21054	687.7999878
1075.773638	691.0
1076.336679	686.5999756
1076.899663	688.5999756
1077.462589	688.7999878
1078.025457	686.4000244
1078.588268	687.4000244
1079.151022	689.0
1079.713718	686.7999878
1080.276356	684.4000244
1080.838937	687.2000122
1081.401461	689.0
1081.963927	688.2000122
1082.526336	693.2000122
1083.088687	688.2000122
1083.650981	686.4000244
1084.213217	690.2000122
1084.775396	692.2000122
1085.337517	685.2000122
1085.899581	687.2000122
1086.461587	689.7999878
1087.023536	685.4000244
1087.585428	688.2000122
1088.147262	688.7999878
1088.709039	688.4000244
1089.270758	691.7999878
1089.83242	688.0
1090.394024	686.7999878
1090.955571	691.4000244
1091.517061	688.0
1092.078493	689.4000244
1092.639868	685.5999756
1093.201185	688.7999878
1093.762445	687.0
1094.323648	687.2000122
1094.884793	686.7999878
1095.445881	689.5999756
1096.006911	690.2000122
1096.567884	685.2000122
1097.1288	694.2000122
1097.689659	685.0
1098.25046	688.4000244
1098.811203	685.7999878
1099.37189	683.5999756
1099.932518	690.4000244
1100.49309	686.5999756
1101.053604	687.7999878
1101.614061	686.5999756
1102.174461	687.4000244
1102.734803	686.4000244
1103.295088	686.5999756
1103.855316	691.7999878
1104.415486	690.2000122
1104.975599	687.7999878
1105.535655	686.5999756
1106.095653	684.0
1106.655594	688.5999756
1107.215478	693.0
1107.775305	691.5999756
1108.335074	691.0
1108.894786	690.0
1109.45444	692.4000244
1110.014038	693.5999756
1110.573578	689.4000244
1111.133061	693.2000122
1111.692486	696.0
1112.251854	698.7999878
1112.811165	692.4000244
1113.370419	695.2000122
1113.929616	694.5999756
1114.488755	695.7999878
1115.047837	693.4000244
1115.606862	692.0
1116.16583	694.7999878
1116.72474	691.5999756
1117.283593	689.2000122
1117.842389	689.5999756
1118.401128	687.0
1118.959809	687.0
1119.518433	688.5999756
1120.077	685.5999756
1120.63551	688.0
1121.193963	688.0
1121.752358	690.2000122
1122.310697	687.2000122
1122.868978	690.0
1123.427202	689.2000122
1123.985368	687.0
1124.543478	687.5999756
1125.10153	685.5999756
1125.659526	688.2000122
1126.217464	685.2000122
1126.775345	687.2000122
1127.333168	686.0
1127.890935	689.0
1128.448644	688.5999756
1129.006297	688.4000244
1129.563892	690.7999878
1130.12143	689.0
1130.678911	685.2000122
1131.236335	684.7999878
1131.793701	683.7999878
1132.351011	685.4000244
1132.908263	683.4000244
1133.465458	686.4000244
1134.022597	685.7999878
1134.579678	687.0
1135.136702	683.7999878
1135.693669	688.4000244
1136.250578	685.4000244
1136.807431	685.2000122
1137.364227	685.0
1137.920965	686.0
1138.477647	687.5999756
1139.034271	690.2000122
1139.590839	683.7999878
1140.147349	683.7999878
1140.703802	683.4000244
1141.260198	687.5999756
1141.816537	681.2000122
1142.37282	682.4000244
1142.929045	685.5999756
1143.485213	686.0
1144.041323	687.5999756
1144.597377	689.2000122
1145.153374	690.2000122
1145.709314	685.4000244
1146.265197	687.4000244
1146.821023	684.4000244
1147.376792	687.2000122
1147.932503	687.4000244
1148.488158	686.4000244
1149.043756	690.5999756
1149.599297	686.5999756
1150.154781	682.0
1150.710207	688.5999756
1151.265577	688.7999878
1151.82089	688.5999756
1152.376146	686.4000244
1152.931345	683.7999878
1153.486487	687.2000122
1154.041572	687.0
1154.5966	686.4000244
1155.151571	685.7999878
1155.706485	688.5999756
1156.261342	685.2000122
1156.816142	688.0
1157.370885	686.4000244
1157.925572	687.5999756
1158.480201	686.2000122
1159.034774	682.7999878
1159.589289	684.0
1160.143748	688.0
1160.698149	686.2000122
1161.252494	682.7999878
1161.806782	688.2000122
1162.361013	688.2000122
1162.915187	688.0
1163.469304	685.2000122
1164.023364	687.0
1164.577368	686.2000122
1165.131314	682.7999878
1165.685204	687.0
1166.239036	688.4000244
1166.792812	686.5999756
1167.346531	682.0
1167.900193	689.0
1168.453798	682.2000122
1169.007347	683.2000122
1169.560838	688.4000244
1170.114273	688.4000244
1170.66765	685.0
1171.220971	687.7999878
1171.774235	688.4000244
1172.327443	684.7999878
1172.880593	685.0
1173.433687	684.7999878
1173.986723	685.2000122
1174.539703	686.2000122
1175.092626	688.7999878
1175.645493	688.2000122
1176.198302	684.0
1176.751055	687.0
1177.303751	684.7999878
1177.85639	687.0
1178.408972	688.0
1178.961498	689.5999756
1179.513966	689.7999878
1180.066378	688.7999878
1180.618733	688.5999756
1181.171032	689.5999756
1181.723273	690.2000122
1182.275458	688.7999878
1182.827586	684.0
1183.379657	690.0
1183.931672	688.7999878
1184.48363	691.4000244
1185.035531	692.0
1185.587375	690.2000122
1186.139162	693.4000244
1186.690893	691.2000122
1187.242567	686.7999878
1187.794184	689.5999756
1188.345745	686.5999756
1188.897249	694.7999878
1189.448696	689.7999878
1190.000086	689.4000244
1190.55142	689.4000244
1191.102697	690.4000244
1191.653918	691.2000122
1192.205081	688.7999878
1192.756188	687.7999878
1193.307238	709.4000244
1193.858232	691.4000244
1194.409169	684.7999878
1194.960049	686.2000122
1195.510872	686.7999878
1196.061639	686.2000122
1196.612349	685.5999756
1197.163003	687.5999756
1197.713599	686.4000244
1198.264139	684.0
1198.814623	685.4000244
1199.36505	682.5999756
1199.91542	685.2000122
1200.465734	686.0
1201.01599	689.5999756
1201.566191	688.2000122
1202.116334	686.4000244
1202.666421	688.7999878
1203.216452	682.4000244
1203.766425	685.7999878
1204.316343	684.7999878
1204.866203	686.0
1205.416007	684.2000122
1205.965754	687.7999878
1206.515445	688.0
1207.065079	685.5999756
1207.614657	685.0
1208.164177	685.5999756
1208.713642	687.4000244
1209.26305	688.4000244
1209.812401	691.2000122
1210.361695	685.7999878
1210.910933	687.7999878
1211.460115	686.0
1212.00924	689.5999756
1212.558308	686.7999878
1213.10732	691.0
1213.656275	685.4000244
1214.205174	686.4000244
1214.754016	689.5999756
1215.302801	686.5999756
1215.85153	692.5999756
1216.400203	689.4000244
1216.948819	689.2000122
1217.497378	687.7999878
1218.045881	692.5999756
1218.594327	691.7999878
1219.142717	690.5999756
1219.691051	690.4000244
1220.239327	686.0
1220.787548	691.7999878
1221.335712	691.7999878
1221.883819	690.5999756
1222.43187	690.5999756
1222.979864	686.7999878
1223.527802	691.5999756
1224.075683	692.4000244
1224.623508	692.2000122
1225.171277	689.7999878
1225.718989	690.4000244
1226.266644	693.5999756
1226.814243	691.2000122
1227.361786	691.7999878
1227.909272	692.4000244
1228.456702	691.4000244
1229.004075	693.2000122
1229.551392	694.0
1230.098652	692.5999756
1230.645856	693.0
1231.193003	692.0
1231.740094	691.4000244
1232.287129	689.7999878
1232.834107	691.5999756
1233.381029	692.2000122
1233.927894	696.5999756
1234.474703	692.7999878
1235.021455	691.2000122
1235.568151	698.5999756
1236.114791	694.4000244
1236.661374	694.2000122
1237.207901	695.2000122
1237.754372	690.5999756
1238.300786	688.5999756
1238.847144	692.4000244
1239.393445	691.2000122
1239.93969	692.2000122
1240.485879	693.0
1241.032011	688.7999878
1241.578087	691.4000244
1242.124106	692.4000244
1242.67007	691.4000244
1243.215976	691.7999878
1243.761827	690.5999756
1244.307621	691.5999756
1244.853359	693.4000244
1245.39904	694.4000244
1245.944665	694.2000122
1246.490234	693.0
1247.035746	689.4000244
1247.581203	695.0
1248.126602	695.0
1248.671946	693.0
1249.217233	697.2000122
1249.762464	697.7999878
1250.307638	693.0
1250.852757	694.0
1251.397819	693.4000244
1251.942824	690.7999878
1252.487774	695.4000244
1253.032667	693.0
1253.577503	694.7999878
1254.122284	695.2000122
1254.667008	694.0
1255.211676	696.2000122
1255.756288	696.4000244
1256.300843	695.4000244
1256.845342	700.5999756
1257.389785	697.7999878
1257.934172	701.5999756
1258.478502	705.5999756
1259.022776	703.5999756
1259.566994	705.2000122
1260.111156	720.2000122
1260.655261	709.0
1261.199311	714.7999878
1261.743304	720.5999756
1262.28724	724.4000244
1262.831121	737.0
1263.374945	738.2000122
1263.918713	735.4000244
1264.462425	722.2000122
1265.006081	719.5999756
1265.54968	710.4000244
1266.093223	706.2000122
1266.636711	704.2000122
1267.180141	706.7999878
1267.723516	703.0
1268.266835	702.5999756
1268.810097	701.5999756
1269.353303	699.2000122
1269.896453	701.0
1270.439547	700.0
1270.982584	702.4000244
1271.525566	702.5999756
1272.068491	700.0
1272.61136	701.7999878
1273.154173	700.2000122
1273.69693	701.4000244
1274.239631	699.0
1274.782275	699.4000244
1275.324864	697.4000244
1275.867396	704.0
1276.409872	705.5999756
1276.952292	705.4000244
1277.494656	708.5999756
1278.036964	712.0
1278.579215	712.5999756
1279.121411	721.5999756
1279.66355	731.2000122
1280.205634	750.2000122
1280.747661	776.0
1281.289632	832.7999878
1281.831547	968.4000244
1282.373406	1224.400024
1282.915209	1532.599976
1283.456955	1574.800049
1283.998646	1356.599976
1284.540281	1069.800049
1285.081859	888.5999756
1285.623381	801.5999756
1286.164848	761.5999756
1286.706258	740.0
1287.247612	732.4000244
1287.788911	717.4000244
1288.330153	712.0
1288.871339	710.0
1289.412469	707.7999878
1289.953543	706.5999756
1290.494561	705.7999878
1291.035523	704.0
1291.576428	698.4000244
1292.117278	703.5999756
1292.658072	698.5999756
1293.19881	703.2000122
1293.739492	701.7999878
1294.280118	700.0
1294.820687	698.5999756
1295.361201	700.4000244
1295.901659	699.0
1296.442061	696.4000244
1296.982406	695.7999878
1297.522696	700.0
1298.06293	696.7999878
1298.603108	696.5999756
1299.143229	698.2000122
1299.683295	699.0
1300.223305	697.4000244
1300.763259	692.7999878
1301.303157	695.2000122
1301.842999	697.2000122
1302.382785	700.7999878
1302.922515	694.0
1303.462189	696.2000122
1304.001807	692.5999756
1304.541369	695.4000244
1305.080875	695.5999756
1305.620326	695.7999878
1306.15972	695.2000122
1306.699058	691.5999756
1307.238341	692.5999756
1307.777567	693.2000122
1308.316738	691.5999756
1308.855853	696.2000122
1309.394912	691.5999756
1309.933915	693.7999878
1310.472862	693.7999878
1311.011753	690.7999878
1311.550588	690.7999878
1312.089367	693.4000244
1312.62809	695.4000244
1313.166758	689.7999878
1313.70537	689.5999756
1314.243925	692.7999878
1314.782425	691.5999756
1315.320869	690.2000122
1315.859257	690.7999878
1316.397589	688.7999878
1316.935866	694.7999878
1317.474086	691.2000122
1318.012251	689.7999878
1318.55036	689.0
1319.088413	687.7999878
1319.62641	690.0
1320.164351	687.0
1320.702236	691.7999878
1321.240066	689.4000244
1321.777839	688.0
1322.315557	688.7999878
1322.853219	691.2000122
1323.390826	684.0
1323.928376	690.4000244
1324.465871	691.0
1325.003309	689.4000244
1325.540692	689.0
1326.07802	689.4000244
1326.615291	689.0
1327.152506	691.7999878
1327.689666	688.2000122
1328.22677	688.0
1328.763818	687.0
1329.300811	689.4000244
1329.837747	688.2000122
1330.374628	688.4000244
1330.911453	687.2000122
1331.448222	691.7999878
1331.984936	687.2000122
1332.521594	692.0
1333.058196	689.5999756
1333.594742	690.4000244
1334.131232	688.5999756
1334.667667	687.2000122
1335.204046	690.7999878
1335.740369	689.0
1336.276637	688.0
1336.812848	690.4000244
1337.349004	687.0
1337.885105	689.5999756
1338.421149	691.5999756
1338.957138	689.0
1339.493071	688.0
1340.028949	688.5999756
1340.56477	689.7999878
1341.100536	692.7999878
1341.636246	690.4000244
1342.171901	693.7999878
1342.7075	689.7999878
1343.243043	688.5999756
1343.77853	687.7999878
1344.313962	688.5999756
1344.849338	688.7999878
1345.384659	689.7999878
1345.919923	691.0
1346.455133	691.0
1346.990286	687.0
1347.525384	689.0
1348.060426	689.2000122
1348.595412	688.4000244
1349.130343	688.7999878
1349.665218	693.7999878
1350.200037	688.7999878
1350.734801	691.5999756
1351.269509	688.4000244
1351.804162	690.7999878
1352.338758	693.5999756
1352.8733	688.4000244
1353.407785	691.5999756
1353.942215	689.4000244
1354.476589	691.5999756
1355.010908	693.2000122
1355.545171	689.7999878
1356.079379	688.5999756
1356.61353	692.4000244
1357.147627	689.7999878
1357.681667	690.4000244
1358.215652	689.5999756
1358.749582	691.4000244
1359.283456	688.4000244
1359.817274	693.5999756
1360.351037	693.5999756
1360.884744	692.7999878
1361.418395	693.5999756
1361.951991	694.7999878
1362.485531	686.7999878
1363.019016	693.4000244
1363.552445	694.0
1364.085819	692.2000122
1364.619137	694.5999756
1365.1524	694.0
1365.685607	698.5999756
1366.218758	695.4000244
1366.751854	696.7999878
1367.284894	695.2000122
1367.817879	692.7999878
1368.350808	697.2000122
1368.883682	701.7999878
1369.4165	718.2000122
1369.949263	733.0
1370.48197	712.4000244
1371.014622	699.7999878
1371.547218	698.5999756
1372.079758	697.2000122
1372.612244	697.0
1373.144673	695.7999878
1373.677047	698.5999756
1374.209366	699.5999756
1374.741629	702.0
1375.273836	701.7999878
1375.805989	700.2000122
1376.338085	699.2000122
1376.870126	702.7999878
1377.402112	701.5999756
1377.934042	704.4000244
1378.465917	703.0
1378.997736	706.2000122
1379.5295	707.4000244
1380.061208	711.4000244
1380.592861	714.5999756
1381.124459	715.4000244
1381.656	713.0
1382.187487	719.0
1382.718918	726.0
1383.250294	732.4000244
1383.781614	742.5999756
1384.312879	762.2000122
1384.844088	803.2000122
1385.375242	852.2000122
1385.90634	958.5999756
1386.437383	1218.599976
1386.968371	1832.599976
1387.499303	2548.600098
1388.03018	2376.199951
1388.561001	1554.0
1389.091767	1069.0
1389.622478	884.0
1390.153133	807.7999878
1390.683733	773.7999878
1391.214277	752.5999756
1391.744766	735.2000122
1392.2752	725.4000244
1392.805578	720.5999756
1393.335901	714.5999756
1393.866168	717.5999756
1394.396381	709.0
1394.926537	710.7999878
1395.456639	712.0
1395.986685	708.2000122
1396.516675	701.2000122
1397.046611	705.5999756
1397.576491	707.2000122
1398.106315	708.4000244
1398.636084	705.2000122
1399.165798	706.4000244
1399.695457	700.7999878
1400.22506	696.2000122
1400.754608	703.7999878
1401.284101	703.5999756
1401.813538	702.7999878
1402.34292	699.2000122
1402.872247	703.0
1403.401518	702.0
1403.930734	707.5999756
1404.459895	704.0
1404.989	709.7999878
1405.51805	707.5999756
1406.047045	714.0
1406.575984	720.5999756
1407.104869	730.5999756
1407.633697	741.7999878
1408.162471	749.2000122
1408.691189	764.5999756
1409.219852	775.0
1409.74846	766.4000244
1410.277013	753.2000122
1410.80551	732.0
1411.333952	723.4000244
1411.862339	712.7999878
1412.39067	700.5999756
1412.918946	700.0
1413.447167	694.7999878
1413.975333	693.2000122
1414.503444	695.5999756
1415.031499	693.0
1415.559499	704.7999878
1416.087444	694.5999756
1416.615333	686.0
1417.143167	693.0
1417.670947	691.2000122
1418.19867	691.7999878
1418.726339	694.0
1419.253952	691.7999878
1419.781511	690.2000122
1420.309014	689.0
1420.836461	686.5999756
1421.363854	690.2000122
1421.891191	688.5999756
1422.418474	687.7999878
1422.945701	693.5999756
1423.472872	686.7999878
1423.999989	692.2000122
1424.52705	690.5999756
1425.054057	690.0
1425.581008	689.0
1426.107904	688.5999756
1426.634745	690.7999878
1427.16153	687.2000122
1427.688261	688.0
1428.214936	686.2000122
1428.741556	685.2000122
1429.268121	687.7999878
1429.794631	689.4000244
1430.321085	685.2000122
1430.847485	684.2000122
1431.373829	686.4000244
1431.900118	687.2000122
1432.426353	682.0
1432.952532	688.0
1433.478655	687.4000244
1434.530738	704.7999878
1435.056696	686.2000122
1435.5826	688.7999878
1436.108448	689.0
1436.634241	684.5999756
1437.159979	684.4000244
1437.685662	682.4000244
1438.21129	686.0
1438.736863	690.7999878
1439.262381	686.2000122
1439.787843	687.2000122
1440.313251	684.5999756
1440.838603	688.0
1441.3639	688.4000244
1441.889143	685.7999878
1442.41433	687.7999878
1442.939462	684.5999756
1443.464539	685.0
1443.989561	685.7999878
1444.514528	685.0
1445.03944	683.7999878
1445.564297	687.7999878
1446.089099	683.5999756
1446.613846	683.2000122
1447.138537	684.2000122
1447.663174	687.4000244
1448.187756	685.7999878
1448.712282	682.0
1449.236754	684.5999756
1449.761171	681.4000244
1450.285532	684.5999756
1450.809839	688.0
1451.33409	683.4000244
1451.858287	681.5999756
1452.382428	685.2000122
1452.906515	683.7999878
1453.430546	683.2000122
1453.954523	686.5999756
1454.478444	684.7999878
1455.002311	683.4000244
1455.526123	686.7999878
1456.049879	682.5999756
1456.573581	682.5999756
1457.097227	685.7999878
1457.620819	685.7999878
1458.144356	685.5999756
1458.667837	684.4000244
1459.191264	684.7999878
1459.714636	686.4000244
1460.237952	681.5999756
1460.761214	685.2000122
1461.284421	686.7999878
1461.807573	685.2000122
1462.33067	684.4000244
1462.853712	685.4000244
1463.376699	688.4000244
1463.899632	681.7999878
1464.422509	687.7999878
1464.945331	686.4000244
1465.468099	682.0
1465.990811	687.0
1466.513469	681.5999756
1467.036071	685.4000244
1467.558619	682.4000244
1468.081112	681.4000244
1468.60355	682.0
1469.125933	683.0
1469.648261	682.7999878
1470.170534	684.2000122
1470.692752	679.7999878
1471.214916	683.4000244
1471.737024	684.5999756
1472.259078	682.7999878
1472.781077	685.4000244
1473.303021	682.0
1473.82491	682.0
1474.346744	684.4000244
1474.868523	683.4000244
1475.390248	681.5999756
1475.911917	681.0
1476.433532	683.2000122
1476.955092	683.4000244
1477.476597	680.5999756
1477.998047	681.4000244
1478.519442	681.5999756
1479.040783	682.4000244
1479.562068	682.2000122
1480.083299	685.2000122
1480.604475	684.5999756
1481.125596	681.7999878
1481.646663	682.4000244
1482.167674	677.5999756
1482.688631	683.2000122
1483.209533	679.5999756
1483.73038	682.4000244
1484.251172	682.0
1484.771909	682.4000244
1485.292592	680.5999756
1485.81322	679.7999878
1486.333793	681.2000122
1486.854311	680.0
1487.374775	679.2000122
1487.895183	681.4000244
1488.415537	678.7999878
1488.935836	682.7999878
1489.456081	680.4000244
1489.97627	680.5999756
1490.496405	680.0
1491.016485	681.0
1491.536511	680.7999878
1492.056481	680.4000244
1492.576397	679.0
1493.096258	678.4000244
1493.616064	679.0
1494.135816	679.0
1494.655513	681.2000122
1495.175155	679.7999878
1495.694742	678.2000122
1496.214274	682.2000122
1496.733752	681.2000122
1497.253175	679.4000244
1497.772544	679.5999756
1498.291858	679.7999878
1498.811116	681.2000122
1499.330321	679.0
1499.84947	689.2000122
1500.368565	680.5999756
1500.887605	677.4000244
1501.406591	678.0
1501.925521	677.4000244
1502.444397	682.5999756
1502.963219	682.4000244
1503.481985	681.0
1504.000697	679.7999878
1504.519355	678.7999878
1505.037957	682.2000122
1505.556505	674.2000122
1506.074999	681.5999756
1506.593437	678.0
1507.111821	677.4000244
1507.63015	680.5999756
1508.148425	678.7999878
1508.666645	678.2000122
1509.18481	682.0
1509.702921	681.0
1510.220977	676.7999878
1510.738979	691.7999878
1511.256925	680.4000244
1511.774817	677.7999878
1512.292655	678.7999878
1512.810438	680.4000244
1513.328166	682.5999756
1513.84584	680.4000244
1514.363459	677.0
1514.881023	680.7999878
1515.398533	680.5999756
1515.915988	679.0
1516.433389	680.7999878
1516.950734	682.4000244
1517.468026	681.0
1517.985263	678.7999878
1518.502445	679.5999756
1519.019572	680.5999756
1519.536645	678.5999756
1520.053664	678.0
1520.570628	678.7999878
1521.087537	679.2000122
1521.604392	679.7999878
1522.121192	678.2000122
1522.637937	682.5999756
1523.154628	681.2000122
1523.671265	675.2000122
1524.187847	680.2000122
1524.704374	682.2000122
1525.220847	679.5999756
1525.737265	682.0
1526.253629	681.0
1526.769938	680.2000122
1527.286192	680.4000244
1527.802392	680.7999878
1528.318538	680.2000122
1528.834629	677.2000122
1529.350666	679.7999878
1529.866648	680.5999756
1530.382575	680.5999756
1530.898448	681.0
1531.414266	680.0
1531.93003	678.7999878
1532.44574	681.2000122
1532.961395	679.7999878
1533.476995	681.0
1533.992541	679.5999756
1534.508033	677.7999878
1535.02347	678.0
1535.538852	677.2000122
1536.05418	676.7999878
1536.569454	679.0
1537.084673	677.5999756
1537.599837	678.0
1538.114947	679.5999756
1538.630003	676.2000122
1539.145004	680.5999756
1539.659951	679.4000244
1540.174843	683.4000244
1540.689681	678.4000244
1541.204465	677.5999756
1541.719194	681.4000244
1542.233868	680.7999878
1542.748488	680.5999756
1543.263054	677.4000244
1543.777565	679.5999756
1544.292022	682.4000244
1544.806424	679.7999878
1545.320772	675.5999756
1545.835066	674.7999878
1546.349305	679.4000244
1546.863489	678.0
1547.37762	678.5999756
1547.891696	681.7999878
1548.405717	680.7999878
1548.919684	678.4000244
1549.433597	679.7999878
1549.947455	678.7999878
1550.461259	676.7999878
1550.975009	679.4000244
1551.488704	678.4000244
1552.002345	681.2000122
1552.515931	679.4000244
1553.029463	678.7999878
1553.542941	679.4000244
1554.056364	678.4000244
1554.569733	679.7999878
1555.083048	676.4000244
1555.596308	678.2000122
1556.109514	676.2000122
1556.622665	679.5999756
1557.135762	682.4000244
1557.648805	678.4000244
1558.161794	678.2000122
1558.674728	678.5999756
1559.187608	678.5999756
1559.700433	679.2000122
1560.213205	678.2000122
1560.725921	675.2000122
1561.238584	680.2000122
1561.751192	679.4000244
1562.263746	680.5999756
1562.776246	681.5999756
1563.288691	680.2000122
1563.801082	677.4000244
1564.313419	681.2000122
1564.825701	677.7999878
1565.337929	680.5999756
1565.850103	679.4000244
1566.362223	679.2000122
1566.874288	678.7999878
1567.386299	679.2000122
1567.898256	679.2000122
1568.410158	680.5999756
1568.922007	681.4000244
1569.4338	679.4000244
1569.94554	680.7999878
1570.457226	682.4000244
1570.968857	681.4000244
1571.480434	679.5999756
1571.991956	678.7999878
1572.503425	676.0
1573.014839	682.4000244
1573.526199	680.2000122
1574.037505	678.5999756
1574.548756	679.2000122
1575.059953	679.4000244
1575.571096	677.2000122
1576.082185	680.7999878
1576.59322	679.0
1577.1042	676.0
1577.615126	678.7999878
1578.125998	676.4000244
1578.636816	679.0
1579.14758	680.2000122
1579.658289	682.4000244
1580.168944	679.5999756
1580.679545	678.4000244
1581.190092	680.5999756
1581.700585	682.7999878
1582.211023	680.7999878
1582.721407	679.4000244
1583.231737	679.2000122
1583.742013	681.2000122
1584.252235	680.4000244
1584.762403	678.4000244
1585.272516	679.0
1585.782575	678.5999756
1586.292581	680.4000244
1586.802532	678.5999756
1587.312428	678.2000122
1587.822271	677.4000244
1588.33206	680.0
1588.841794	677.4000244
1589.351474	680.7999878
1589.8611	680.0
1590.370672	677.0
1590.88019	682.2000122
1591.389654	678.5999756
1591.899064	677.2000122
1592.408419	674.7999878
