1042.452273	710.5999756
1043.018714	702.4000244
1043.585098	703.4000244
1044.151424	703.0
1044.717692	702.7999878
1045.283903	700.4000244
1045.850056	692.0
1046.416151	691.0
1046.982188	690.4000244
1047.548167	688.0
1048.114089	684.2000122
1048.679953	687.7999878
1049.24576	683.2000122
1049.811509	680.4000244
1050.3772	682.5999756
1050.942833	680.7999878
1051.508408	678.5999756
1052.073926	678.2000122
1052.639387	679.4000244
1053.204789	677.0
1053.770134	674.7999878
1054.335421	677.7999878
1054.900651	680.0
1055.465823	669.2000122
1056.030937	671.4000244
1056.595993	672.2000122
1057.160992	675.4000244
1057.725934	676.4000244
1058.290817	675.0
1058.855643	674.0
1059.420411	672.2000122
1059.985122	670.4000244
1060.549775	672.2000122
1061.114371	672.4000244
1061.678908	671.4000244
1062.243389	671.2000122
1062.807811	670.2000122
1063.372176	671.2000122
1063.936483	672.2000122
1064.500733	670.5999756
1065.064925	670.0
1065.62906	671.0
1066.193137	673.5999756
1066.757156	671.2000122
1067.321118	670.5999756
1067.885022	670.0
1068.448869	668.5999756
1069.012658	671.0
1069.57639	670.0
1070.140063	678.2000122
1070.70368	669.5999756
1071.267239	666.5999756
1071.83074	667.7999878
1072.394184	671.2000122
1072.95757	668.7999878
1073.520899	668.7999878
1074.08417	668.2000122
1074.647383	667.7999878
1075.21054	670.5999756
1075.773638	669.2000122
1076.336679	670.2000122
1076.899663	671.5999756
1077.462589	674.0
1078.025457	671.7999878
1078.588268	670.2000122
1079.151022	673.0
1079.713718	673.0
1080.276356	670.2000122
1080.838937	675.0
1081.401461	672.0
1081.963927	675.5999756
1082.526336	673.0
1083.088687	677.0
1083.650981	675.2000122
1084.213217	672.7999878
1084.775396	677.0
1085.337517	673.2000122
1085.899581	677.7999878
1086.461587	674.5999756
1087.023536	676.7999878
1087.585428	678.7999878
1088.147262	680.2000122
1088.709039	679.2000122
1089.270758	678.0
1089.83242	682.5999756
1090.394024	683.2000122
1090.955571	683.0
1091.517061	679.7999878
1092.078493	680.4000244
1092.639868	683.0
1093.201185	688.4000244
1093.762445	681.7999878
1094.323648	679.0
1094.884793	684.5999756
1095.445881	682.4000244
1096.006911	679.0
1096.567884	680.0
1097.1288	684.4000244
1097.689659	679.4000244
1098.25046	677.5999756
1098.811203	681.7999878
1099.37189	676.0
1099.932518	677.7999878
1100.49309	677.2000122
1101.053604	672.5999756
1101.614061	672.7999878
1102.174461	672.5999756
1102.734803	671.7999878
1103.295088	672.0
1103.855316	670.4000244
1104.415486	668.7999878
1104.975599	668.2000122
1105.535655	669.7999878
1106.095653	667.4000244
1106.655594	669.7999878
1107.215478	668.7999878
1107.775305	671.0
1108.335074	673.4000244
1108.894786	669.0
1109.45444	668.5999756
1110.014038	670.7999878
1110.573578	668.5999756
1111.133061	669.5999756
1111.692486	667.7999878
1112.251854	669.7999878
1112.811165	670.7999878
1113.370419	667.2000122
1113.929616	668.2000122
1114.488755	671.0
1115.047837	667.5999756
1115.606862	670.0
1116.16583	667.5999756
1116.72474	669.0
1117.283593	669.4000244
1117.842389	666.0
1118.401128	666.5999756
1118.959809	665.7999878
1119.518433	668.7999878
1120.077	665.2000122
1120.63551	667.0
1121.193963	666.4000244
1121.752358	670.2000122
1122.310697	666.4000244
1122.868978	666.0
1123.427202	666.4000244
1123.985368	667.4000244
1124.543478	663.5999756
1125.10153	664.2000122
1125.659526	666.7999878
1126.217464	664.5999756
1126.775345	666.5999756
1127.333168	665.7999878
1127.890935	668.0
1128.448644	664.5999756
1129.006297	664.0
1129.563892	665.4000244
1130.12143	664.7999878
1130.678911	667.4000244
1131.236335	667.0
1131.793701	666.0
1132.351011	665.5999756
1132.908263	665.0
1133.465458	665.7999878
1134.022597	664.2000122
1134.579678	664.0
1135.136702	666.0
1135.693669	666.5999756
1136.250578	666.2000122
1136.807431	665.5999756
1137.364227	665.0
1137.920965	665.4000244
1138.477647	666.2000122
1139.034271	664.4000244
1139.590839	664.2000122
1140.147349	663.7999878
1140.703802	666.4000244
1141.260198	665.5999756
1141.816537	663.4000244
1142.37282	667.5999756
1142.929045	661.4000244
1143.485213	666.0
1144.041323	664.0
1144.597377	665.4000244
1145.153374	666.0
1145.709314	665.2000122
1146.265197	663.4000244
1146.821023	664.5999756
1147.376792	663.5999756
1147.932503	663.7999878
1148.488158	664.0
1149.043756	663.4000244
1149.599297	662.5999756
1150.154781	664.7999878
1150.710207	666.0
1151.265577	665.2000122
1151.82089	664.7999878
1152.376146	666.4000244
1152.931345	663.4000244
1153.486487	665.0
1154.041572	666.0
1154.5966	665.0
1155.151571	667.7999878
1155.706485	667.0
1156.261342	665.5999756
1156.816142	664.5999756
1157.370885	665.5999756
1157.925572	666.5999756
1158.480201	664.0
1159.034774	665.7999878
1159.589289	663.4000244
1160.143748	666.5999756
1160.698149	665.7999878
1161.252494	666.5999756
1161.806782	665.7999878
1162.361013	664.5999756
1162.915187	661.2000122
1163.469304	665.4000244
1164.023364	663.5999756
1164.577368	663.7999878
1165.131314	663.7999878
1165.685204	665.2000122
1166.239036	667.4000244
1166.792812	664.4000244
1167.346531	664.7999878
1167.900193	665.4000244
1168.453798	667.0
1169.007347	666.7999878
1169.560838	665.2000122
1170.114273	666.2000122
1170.66765	663.2000122
1171.220971	665.0
1171.774235	664.7999878
1172.327443	664.5999756
1172.880593	664.2000122
1173.433687	665.5999756
1173.986723	668.2000122
1174.539703	663.7999878
1175.092626	661.7999878
1175.645493	663.0
1176.198302	666.0
1176.751055	664.7999878
1177.303751	665.5999756
1177.85639	665.5999756
1178.408972	664.2000122
1178.961498	664.0
1179.513966	662.4000244
1180.066378	665.0
1180.618733	665.0
1181.171032	664.7999878
1181.723273	664.2000122
1182.275458	664.0
1182.827586	663.2000122
1183.379657	666.2000122
1183.931672	665.4000244
1184.48363	665.0
1185.035531	665.7999878
1185.587375	663.5999756
1186.139162	663.7999878
1186.690893	664.2000122
1187.242567	662.2000122
1187.794184	662.5999756
1188.345745	665.4000244
1188.897249	665.0
1189.448696	664.4000244
1190.000086	663.4000244
1190.55142	667.0
1191.102697	664.7999878
1191.653918	664.7999878
1192.205081	664.4000244
1192.756188	662.7999878
1193.307238	684.2000122
1193.858232	662.4000244
1194.409169	663.4000244
1194.960049	665.4000244
1195.510872	662.7999878
1196.061639	665.2000122
1196.612349	665.0
1197.163003	666.7999878
1197.713599	664.4000244
1198.264139	663.2000122
1198.814623	665.5999756
1199.36505	663.5999756
1199.91542	665.0
1200.465734	663.5999756
1201.01599	663.2000122
1201.566191	662.4000244
1202.116334	664.5999756
1202.666421	663.4000244
1203.216452	665.2000122
1203.766425	666.0
1204.316343	662.7999878
1204.866203	666.0
1205.416007	664.5999756
1205.965754	665.4000244
1206.515445	664.0
1207.065079	665.2000122
1207.614657	664.5999756
1208.164177	662.5999756
1208.713642	665.0
1209.26305	663.2000122
1209.812401	665.2000122
1210.361695	666.0
1210.910933	665.7999878
1211.460115	663.4000244
1212.00924	666.7999878
1212.558308	668.2000122
1213.10732	668.4000244
1213.656275	663.2000122
1214.205174	666.2000122
1214.754016	666.0
1215.302801	663.7999878
1215.85153	665.2000122
1216.400203	665.5999756
1216.948819	665.5999756
1217.497378	664.0
1218.045881	663.4000244
1218.594327	664.0
1219.142717	666.2000122
1219.691051	663.4000244
1220.239327	666.2000122
1220.787548	665.4000244
1221.335712	663.0
1221.883819	665.0
1222.43187	664.0
1222.979864	668.0
1223.527802	664.7999878
1224.075683	665.5999756
1224.623508	665.2000122
1225.171277	663.5999756
1225.718989	666.2000122
1226.266644	664.0
1226.814243	664.7999878
1227.361786	664.4000244
1227.909272	663.5999756
1228.456702	664.7999878
1229.004075	663.7999878
1229.551392	664.0
1230.098652	666.2000122
1230.645856	663.5999756
1231.193003	663.5999756
1231.740094	668.0
1232.287129	664.7999878
1232.834107	664.4000244
1233.381029	664.5999756
1233.927894	665.7999878
1234.474703	661.5999756
1235.021455	664.0
1235.568151	662.2000122
1236.114791	664.5999756
1236.661374	663.2000122
1237.207901	665.2000122
1237.754372	664.4000244
1238.300786	665.0
1238.847144	663.7999878
1239.393445	667.0
1239.93969	664.2000122
1240.485879	665.4000244
1241.032011	664.2000122
1241.578087	665.4000244
1242.124106	666.2000122
1242.67007	664.4000244
1243.215976	664.0
1243.761827	665.7999878
1244.307621	665.0
1244.853359	665.4000244
1245.39904	662.0
1245.944665	664.7999878
1246.490234	663.4000244
1247.035746	665.7999878
1247.581203	663.5999756
1248.126602	665.2000122
1248.671946	662.4000244
1249.217233	665.2000122
1249.762464	666.5999756
1250.307638	664.0
1250.852757	665.5999756
1251.397819	665.0
1251.942824	667.7999878
1252.487774	663.5999756
1253.032667	663.7999878
1253.577503	663.7999878
1254.122284	664.2000122
1254.667008	664.4000244
1255.211676	664.2000122
1255.756288	663.0
1256.300843	664.4000244
1256.845342	666.7999878
1257.389785	666.4000244
1257.934172	666.0
1258.478502	664.4000244
1259.022776	664.7999878
1259.566994	665.4000244
1260.111156	680.2000122
1260.655261	667.0
1261.199311	662.4000244
1261.743304	668.4000244
1262.28724	665.2000122
1262.831121	666.2000122
1263.374945	665.0
1263.918713	669.5999756
1264.462425	675.5999756
1265.006081	674.5999756
1265.54968	678.5999756
1266.093223	669.4000244
1266.636711	669.0
1267.180141	668.5999756
1267.723516	669.4000244
1268.266835	669.7999878
1268.810097	665.5999756
1269.353303	666.0
1269.896453	667.0
1270.439547	665.7999878
1270.982584	665.4000244
1271.525566	663.4000244
1272.068491	664.5999756
1272.61136	668.7999878
1273.154173	665.2000122
1273.69693	667.5999756
1274.239631	665.4000244
1274.782275	665.7999878
1275.324864	664.4000244
1275.867396	664.5999756
1276.409872	666.0
1276.952292	665.4000244
1277.494656	664.5999756
1278.036964	664.7999878
1278.579215	667.4000244
1279.121411	665.4000244
1279.66355	668.0
1280.205634	665.2000122
1280.747661	668.7999878
1281.289632	668.4000244
1281.831547	671.0
1282.373406	671.4000244
1282.915209	677.7999878
1283.456955	686.0
1283.998646	707.5999756
1284.540281	759.5999756
1285.081859	825.2000122
1285.623381	814.0
1286.164848	733.4000244
1286.706258	688.0
1287.247612	673.7999878
1287.788911	671.2000122
1288.330153	669.2000122
1288.871339	668.7999878
1289.412469	666.7999878
1289.953543	665.7999878
1290.494561	665.2000122
1291.035523	666.2000122
1291.576428	665.2000122
1292.117278	663.2000122
1292.658072	665.7999878
1293.19881	664.4000244
1293.739492	665.2000122
1294.280118	664.0
1294.820687	665.7999878
1295.361201	663.4000244
1295.901659	665.0
1296.442061	667.7999878
1296.982406	663.7999878
1297.522696	664.7999878
1298.06293	662.2000122
1298.603108	665.5999756
1299.143229	664.5999756
1299.683295	666.0
1300.223305	665.5999756
1300.763259	662.7999878
1301.303157	664.5999756
1301.842999	665.7999878
1302.382785	663.7999878
1302.922515	664.4000244
1303.462189	663.4000244
1304.001807	662.0
1304.541369	666.2000122
1305.080875	663.4000244
1305.620326	664.0
1306.15972	663.2000122
1306.699058	663.4000244
1307.238341	664.4000244
1307.777567	664.7999878
1308.316738	667.7999878
1308.855853	662.2000122
1309.394912	662.0
1309.933915	664.7999878
1310.472862	664.5999756
1311.011753	664.2000122
1311.550588	662.5999756
1312.089367	664.5999756
1312.62809	664.0
1313.166758	661.5999756
1313.70537	666.0
1314.243925	665.4000244
1314.782425	663.0
1315.320869	665.5999756
1315.859257	662.4000244
1316.397589	664.5999756
1316.935866	666.0
1317.474086	664.7999878
1318.012251	663.4000244
1318.55036	667.2000122
1319.088413	666.0
1319.62641	665.2000122
1320.164351	662.7999878
1320.702236	664.2000122
1321.240066	662.4000244
1321.777839	663.4000244
1322.315557	664.7999878
1322.853219	663.5999756
1323.390826	666.2000122
1323.928376	670.2000122
1324.465871	665.0
1325.003309	662.2000122
1325.540692	662.2000122
1326.07802	666.7999878
1326.615291	662.4000244
1327.152506	662.2000122
1327.689666	663.2000122
1328.22677	663.0
1328.763818	665.2000122
1329.300811	663.0
1329.837747	666.7999878
1330.374628	663.7999878
1330.911453	664.0
1331.448222	663.0
1331.984936	663.2000122
1332.521594	661.5999756
1333.058196	665.5999756
1333.594742	665.0
1334.131232	664.4000244
1334.667667	663.7999878
1335.740369	669.7999878
1336.276637	664.0
1336.812848	665.5999756
1337.349004	665.7999878
1337.885105	662.7999878
1338.421149	665.7999878
1338.957138	664.4000244
1339.493071	663.0
1340.028949	664.2000122
1340.56477	663.5999756
1341.100536	665.0
1341.636246	666.7999878
1342.171901	665.5999756
1342.7075	663.5999756
1343.243043	664.5999756
1343.77853	662.2000122
1344.313962	665.7999878
1344.849338	665.7999878
1345.384659	664.2000122
1345.919923	663.2000122
1346.455133	665.2000122
1346.990286	664.4000244
1347.525384	665.0
1348.060426	664.7999878
1348.595412	661.7999878
1349.130343	661.5999756
1349.665218	664.0
1350.200037	663.0
1350.734801	666.2000122
1351.269509	663.0
1351.804162	662.7999878
1352.338758	661.5999756
1352.8733	663.5999756
1353.407785	662.7999878
1353.942215	665.0
1354.476589	662.4000244
1355.010908	666.4000244
1355.545171	666.0
1356.079379	665.2000122
1356.61353	663.5999756
1357.147627	664.0
1357.681667	663.7999878
1358.215652	663.5999756
1358.749582	661.0
1359.283456	663.7999878
1359.817274	663.0
1360.351037	665.2000122
1360.884744	663.2000122
1361.418395	663.4000244
1361.951991	664.5999756
1362.485531	668.0
1363.019016	663.2000122
1363.552445	663.5999756
1364.085819	663.7999878
1364.619137	667.2000122
1365.1524	663.5999756
1365.685607	664.5999756
1366.218758	665.2000122
1366.751854	663.7999878
1367.284894	662.7999878
1367.817879	664.4000244
1368.350808	664.5999756
1368.883682	665.5999756
1369.4165	666.0
1369.949263	662.2000122
1370.48197	668.4000244
1371.014622	667.2000122
1371.547218	665.7999878
1372.079758	665.7999878
1372.612244	666.4000244
1373.144673	664.7999878
1373.677047	665.2000122
1374.209366	665.2000122
1374.741629	667.0
1375.273836	666.2000122
1375.805989	666.7999878
1376.338085	663.4000244
1376.870126	667.0
1377.402112	664.0
1377.934042	667.7999878
1378.465917	667.7999878
1378.997736	665.7999878
1379.5295	663.4000244
1380.061208	667.7999878
1380.592861	668.5999756
1381.124459	670.0
1381.656	665.0
1382.187487	668.7999878
1382.718918	667.2000122
1383.250294	667.0
1383.781614	668.2000122
1384.312879	666.5999756
1384.844088	669.5999756
1385.375242	670.7999878
1385.90634	675.5999756
1386.437383	680.4000244
1386.968371	688.2000122
1387.499303	713.4000244
1388.03018	803.0
1388.561001	967.0
1389.091767	945.7999878
1389.622478	755.2000122
1390.153133	691.7999878
1390.683733	678.5999756
1391.214277	674.0
1391.744766	671.4000244
1392.2752	666.4000244
1392.805578	669.5999756
1393.335901	665.0
1393.866168	670.5999756
1394.396381	666.7999878
1394.926537	668.4000244
1395.456639	667.4000244
1395.986685	668.2000122
1396.516675	667.2000122
1397.046611	665.2000122
1397.576491	663.4000244
1398.106315	668.0
1398.636084	666.2000122
1399.165798	664.4000244
1399.695457	665.5999756
1400.22506	664.7999878
1400.754608	665.7999878
1401.284101	662.2000122
1401.813538	663.2000122
1402.34292	663.5999756
1402.872247	663.0
1403.401518	665.0
1403.930734	663.7999878
1404.459895	664.7999878
1404.989	664.2000122
1405.51805	666.0
1406.047045	665.7999878
1406.575984	665.7999878
1407.104869	666.2000122
1407.633697	666.4000244
1408.162471	668.0
1408.691189	671.2000122
1409.219852	674.2000122
1409.74846	683.4000244
1410.277013	689.5999756
1410.80551	680.2000122
1411.333952	672.5999756
1411.862339	666.4000244
1412.39067	668.0
1412.918946	664.2000122
1413.447167	664.5999756
1413.975333	667.2000122
1414.503444	665.4000244
1415.031499	664.7999878
1415.559499	677.7999878
1416.087444	662.4000244
1416.615333	662.7999878
1417.143167	664.4000244
1417.670947	661.5999756
1418.19867	662.2000122
1418.726339	663.2000122
1419.253952	662.0
1419.781511	665.4000244
1420.309014	664.0
1420.836461	664.5999756
1421.363854	662.7999878
1421.891191	662.4000244
1422.418474	666.4000244
1422.945701	665.5999756
1423.472872	663.2000122
1423.999989	662.5999756
1424.52705	666.2000122
1425.054057	663.7999878
1425.581008	663.7999878
1426.107904	662.0
1426.634745	662.2000122
1427.16153	665.0
1427.688261	665.0
1428.214936	663.0
1428.741556	665.5999756
1429.268121	663.2000122
1429.794631	661.7999878
1430.321085	662.2000122
1430.847485	664.0
1431.373829	663.4000244
1431.900118	664.4000244
1432.426353	661.7999878
1432.952532	661.5999756
1433.478655	663.4000244
1434.004724	663.2000122
1434.530738	661.4000244
1435.056696	661.4000244
1435.5826	662.4000244
1436.108448	662.2000122
1436.634241	664.2000122
1437.159979	664.5999756
1437.685662	663.4000244
1438.21129	664.4000244
1438.736863	662.0
1439.262381	661.7999878
1439.787843	663.4000244
1440.313251	663.7999878
1440.838603	664.5999756
1441.3639	663.0
1441.889143	661.5999756
1442.41433	662.5999756
1442.939462	661.2000122
1443.464539	661.2000122
1443.989561	663.5999756
1444.514528	662.0
1445.03944	663.4000244
1445.564297	663.7999878
1446.089099	664.5999756
1446.613846	664.4000244
1447.138537	662.2000122
1447.663174	662.2000122
1448.187756	661.5999756
1448.712282	663.0
1449.236754	662.5999756
1449.761171	664.0
1450.285532	660.5999756
1450.809839	665.4000244
1451.33409	662.7999878
1451.858287	663.5999756
1452.382428	661.5999756
1452.906515	662.7999878
1453.430546	661.7999878
1453.954523	660.5999756
1454.478444	664.4000244
1455.002311	659.7999878
1455.526123	662.4000244
1456.049879	661.7999878
1456.573581	660.4000244
1457.097227	664.5999756
1457.620819	662.0
1458.144356	664.2000122
1458.667837	663.4000244
1459.191264	660.4000244
1459.714636	661.5999756
1460.237952	663.2000122
1460.761214	662.7999878
1461.284421	665.0
1461.807573	661.0
1462.33067	661.2000122
1462.853712	663.2000122
1463.376699	665.2000122
1463.899632	663.5999756
1464.422509	663.5999756
1464.945331	660.4000244
1465.468099	663.0
1465.990811	664.2000122
1466.513469	661.4000244
1467.036071	663.0
1467.558619	663.5999756
1468.081112	663.0
1468.60355	659.4000244
1469.125933	661.4000244
1469.648261	662.0
1470.170534	665.0
1470.692752	663.5999756
1471.214916	663.2000122
1471.737024	661.0
1472.259078	663.5999756
1472.781077	658.4000244
1473.303021	662.7999878
1473.82491	663.2000122
1474.346744	663.0
1474.868523	664.2000122
1475.390248	664.2000122
1475.911917	662.0
1476.433532	663.5999756
1476.955092	661.4000244
1477.476597	663.0
1477.998047	663.0
1478.519442	662.4000244
1479.040783	662.2000122
1479.562068	662.5999756
1480.083299	665.2000122
1480.604475	662.0
1481.125596	663.2000122
1481.646663	664.2000122
1482.167674	661.7999878
1482.688631	661.5999756
1483.209533	663.0
1483.73038	661.2000122
1484.251172	660.7999878
1484.771909	661.0
1485.292592	663.2000122
1485.81322	662.2000122
1486.333793	662.7999878
1486.854311	663.0
1487.374775	660.5999756
1487.895183	663.0
1488.415537	659.5999756
1488.935836	660.7999878
1489.456081	660.7999878
1489.97627	662.0
1490.496405	660.2000122
1491.016485	661.2000122
1491.536511	660.0
1492.056481	660.7999878
1492.576397	661.5999756
1493.096258	662.5999756
1493.616064	662.7999878
1494.135816	663.0
1494.655513	663.2000122
1495.175155	660.7999878
1495.694742	665.5999756
1496.214274	660.2000122
1496.733752	661.2000122
1497.253175	661.4000244
1497.772544	660.7999878
1498.291858	664.4000244
1498.811116	662.7999878
1499.330321	661.2000122
1499.84947	670.4000244
1500.368565	660.5999756
1500.887605	661.0
1501.406591	660.5999756
1501.925521	663.4000244
1502.444397	662.5999756
1502.963219	658.7999878
1503.481985	659.7999878
1504.000697	662.0
1504.519355	658.7999878
1505.037957	662.4000244
1505.556505	661.2000122
1506.074999	662.2000122
1506.593437	665.0
1507.111821	661.4000244
1507.63015	661.7999878
1508.148425	664.4000244
1508.666645	660.2000122
1509.18481	663.4000244
1509.702921	660.7999878
1510.220977	664.0
1510.738979	669.5999756
1511.256925	662.7999878
1511.774817	661.4000244
1512.292655	662.4000244
1512.810438	661.4000244
1513.328166	662.5999756
1513.84584	659.5999756
1514.363459	660.0
1514.881023	662.0
1515.398533	662.5999756
1515.915988	661.0
1516.433389	660.5999756
1516.950734	658.7999878
1517.468026	661.2000122
1517.985263	662.2000122
1518.502445	662.2000122
1519.019572	660.4000244
1519.536645	660.2000122
1520.053664	663.0
1520.570628	658.2000122
1521.087537	662.4000244
1521.604392	660.0
1522.121192	661.4000244
1522.637937	662.7999878
1523.154628	662.2000122
1523.671265	663.2000122
1524.187847	660.5999756
1524.704374	663.2000122
1525.220847	661.0
1525.737265	662.7999878
1526.253629	663.5999756
1526.769938	662.5999756
1527.286192	661.0
1527.802392	659.4000244
1528.318538	659.5999756
1528.834629	661.4000244
1529.350666	662.5999756
1529.866648	665.0
1530.382575	661.4000244
1530.898448	661.5999756
1531.414266	661.7999878
1531.93003	661.4000244
1532.44574	660.7999878
1532.961395	659.5999756
1533.476995	663.5999756
1533.992541	663.2000122
1534.508033	662.0
1535.02347	661.7999878
1535.538852	661.0
1536.05418	662.5999756
1536.569454	661.2000122
1537.084673	661.4000244
1537.599837	662.5999756
1538.114947	660.4000244
1538.630003	663.2000122
1539.145004	661.5999756
1539.659951	661.5999756
1540.174843	663.5999756
1540.689681	662.2000122
1541.204465	660.0
1541.719194	658.0
1542.233868	660.7999878
1542.748488	664.0
1543.263054	660.4000244
1543.777565	662.4000244
1544.292022	664.2000122
1544.806424	662.4000244
1545.320772	662.4000244
1545.835066	662.2000122
1546.349305	661.4000244
1546.863489	661.2000122
1547.37762	661.0
1547.891696	661.7999878
1548.405717	661.4000244
1548.919684	661.7999878
1549.433597	660.7999878
1549.947455	664.5999756
1550.461259	662.4000244
1550.975009	661.0
1551.488704	659.2000122
1552.002345	660.4000244
1552.515931	662.7999878
1553.029463	661.4000244
1553.542941	662.7999878
1554.056364	662.2000122
1554.569733	663.2000122
1555.083048	661.0
1555.596308	661.7999878
1556.109514	663.0
1556.622665	664.0
1557.135762	660.5999756
1557.648805	663.0
1558.161794	662.4000244
1558.674728	661.7999878
1559.187608	663.7999878
1559.700433	661.4000244
1560.213205	662.5999756
1560.725921	660.5999756
1561.238584	660.5999756
1561.751192	660.5999756
1562.263746	662.4000244
1562.776246	662.0
1563.288691	661.7999878
1563.801082	660.5999756
1564.313419	661.7999878
1564.825701	660.5999756
1565.337929	659.7999878
1565.850103	660.4000244
1566.362223	664.7999878
1566.874288	662.4000244
1567.386299	660.4000244
1567.898256	662.0
1568.410158	663.4000244
1568.922007	663.2000122
1569.4338	661.7999878
1569.94554	663.0
1570.457226	662.7999878
1570.968857	661.0
1571.480434	663.4000244
1571.991956	663.2000122
1572.503425	663.0
1573.014839	659.4000244
1573.526199	660.4000244
1574.037505	660.4000244
1574.548756	660.4000244
1575.059953	659.7999878
1575.571096	662.7999878
1576.082185	658.5999756
1576.59322	659.0
1577.1042	661.5999756
1577.615126	662.4000244
1578.125998	662.2000122
1578.636816	662.7999878
1579.14758	662.4000244
1579.658289	659.0
1580.168944	662.7999878
1580.679545	660.0
1581.190092	661.4000244
1581.700585	661.4000244
1582.211023	660.2000122
1582.721407	657.5999756
1583.231737	660.7999878
1583.742013	662.0
1584.252235	659.4000244
1584.762403	659.7999878
1585.272516	661.5999756
1585.782575	660.2000122
1586.292581	661.2000122
1586.802532	662.7999878
1587.312428	660.5999756
1587.822271	661.0
1588.33206	658.5999756
1588.841794	661.4000244
1589.351474	661.7999878
1589.8611	660.4000244
1590.370672	661.4000244
1590.88019	662.4000244
1591.389654	659.4000244
1591.899064	663.0
1592.408419	659.7999878
