1042.980685	748.5
1043.547124	754.25
1044.113505	751.25
1044.679828	749.25
1045.246093	746.5
1045.8123	750.25
1046.378449	751.5
1046.94454	747.0
1047.510573	751.0
1048.076548	740.0
1048.642465	743.5
1049.208325	743.5
1049.774126	738.25
1050.339869	741.75
1050.905555	744.25
1051.471183	738.25
1052.036752	739.5
1052.602264	740.5
1053.167718	740.75
1053.733114	738.5
1054.298452	737.5
1054.863733	738.25
1055.428955	732.5
1055.994119	737.75
1056.559226	740.25
1057.124275	732.5
1057.689266	735.5
1058.254199	739.5
1058.819074	735.5
1059.383891	733.0
1059.94865	732.0
1060.513352	731.5
1061.077996	728.25
1061.642582	728.75
1062.20711	731.0
1062.77158	731.25
1063.335992	735.75
1063.900347	731.5
1064.464643	729.5
1065.028882	727.75
1065.593063	732.75
1066.157187	724.0
1066.721252	731.5
1067.28526	727.5
1067.84921	730.0
1068.413102	730.5
1068.976936	726.25
1069.540713	725.75
1070.104431	736.5
1070.668092	729.0
1071.231696	726.5
1071.795241	727.5
1072.358729	724.5
1072.922159	727.25
1073.485531	730.0
1074.048845	728.5
1074.612102	722.0
1075.175301	723.25
1075.738442	725.75
1076.301525	722.5
1076.864551	721.5
1077.427519	724.0
1077.990429	724.5
1078.553281	726.5
1079.116076	720.5
1079.678813	719.25
1080.241492	723.25
1080.804114	718.75
1081.366678	715.5
1081.929184	718.0
1082.491633	721.75
1083.054024	720.0
1083.616357	717.5
1084.178632	724.25
1084.74085	716.75
1085.30301	721.5
1085.865113	720.5
1086.427158	722.5
1086.989145	720.5
1087.551074	721.25
1088.112946	720.5
1088.67476	721.25
1089.236517	718.0
1089.798216	715.75
1090.359857	720.5
1090.92144	723.0
1091.482966	718.25
1092.044435	716.0
1092.605845	718.0
1093.167199	719.0
1093.728494	715.5
1094.289732	711.5
1094.850912	717.25
1095.412035	725.75
1095.9731	718.5
1096.534107	716.5
1097.095057	725.25
1097.65595	717.75
1098.216784	715.0
1098.777561	716.5
1099.338281	720.0
1100.459547	729.0
1101.020094	712.75
1101.580584	708.0
1102.141015	710.5
1102.701389	716.0
1103.261706	712.25
1103.821965	713.0
1104.382167	710.25
1104.942311	715.5
1105.502397	711.0
1106.062426	715.5
1106.622398	707.25
1107.182312	714.25
1107.742168	718.25
1108.301967	706.25
1108.861708	711.5
1109.421392	709.25
1109.981019	711.0
1110.540587	712.0
1111.100099	710.75
1111.659553	711.25
1112.218949	710.25
1112.778288	705.5
1113.33757	710.25
1113.896794	708.75
1114.45596	708.5
1115.015069	708.75
1115.574121	714.5
1116.133115	717.75
1116.692052	706.75
1117.250931	712.25
1117.809753	712.5
1118.368517	708.5
1118.927224	708.5
1119.485873	710.0
1120.044465	712.75
1120.603	703.75
1121.161477	709.5
1121.719897	708.5
1122.278259	708.5
1122.836564	710.25
1123.394812	702.5
1123.953002	711.5
1124.511135	710.25
1125.06921	703.0
1125.627228	706.5
1126.185189	707.75
1126.743092	708.25
1127.300938	705.25
1127.858726	707.75
1128.416457	714.0
1128.974131	709.25
1129.531748	705.0
1130.089307	705.75
1130.646808	702.75
1131.204252	706.25
1131.761639	711.25
1132.318969	707.75
1132.876241	706.5
1133.433456	706.25
1133.990614	705.5
1134.547714	701.5
1135.104757	706.0
1135.661743	706.75
1136.218671	706.0
1136.775542	706.0
1137.332356	705.5
1137.889112	702.5
1138.445811	703.0
1139.002453	703.25
1139.559037	704.25
1140.115565	700.5
1140.672035	702.0
1141.228447	702.75
1141.784803	703.5
1142.341101	705.25
1142.897342	705.25
1143.453525	707.0
1144.009651	698.75
1144.565721	703.75
1145.121732	704.0
1145.677687	702.5
1146.233584	704.25
1146.789424	705.25
1147.345207	703.0
1147.900933	704.5
1148.456601	704.5
1149.012212	700.75
1149.567766	703.5
1150.123263	702.5
1150.678702	700.75
1151.234085	705.75
1151.78941	702.5
1152.344678	698.75
1152.899888	705.25
1153.455042	704.0
1154.010138	700.75
1154.565177	706.0
1155.120159	699.75
1155.675084	704.0
1156.229951	704.75
1156.784762	703.0
1157.339515	700.0
1157.894211	705.75
1158.44885	700.75
1159.003432	699.75
1159.557956	707.0
1160.112424	699.25
1160.666834	695.75
1161.221187	701.0
1161.775483	705.75
1162.329722	700.5
1162.883904	706.0
1163.438029	701.0
1163.992096	700.0
1164.546107	698.75
1165.10006	700.5
1165.653956	700.25
1166.207795	702.5
1166.761577	701.5
1167.315302	702.25
1167.86897	700.0
1168.422581	698.25
1168.976134	700.5
1169.529631	700.75
1170.08307	701.5
1170.636453	703.25
1171.189778	697.5
1171.743046	704.25
1172.296257	704.0
1172.849412	702.5
1173.402509	694.75
1173.955549	696.25
1174.508532	702.25
1175.061458	696.25
1175.614327	699.0
1176.167138	696.75
1176.719893	701.75
1177.272591	698.5
1177.825232	701.25
1178.377816	697.0
1178.930342	700.5
1179.482812	695.75
1180.035225	698.75
1180.587581	699.5
1181.139879	698.75
1181.692121	698.75
1182.244306	699.75
1182.796434	695.75
1183.348504	696.5
1183.900518	699.75
1184.452475	696.25
1185.004375	694.5
1185.556218	701.25
1186.108004	694.25
1186.659733	704.75
1187.211405	699.75
1187.76302	702.75
1188.314578	699.0
1188.866079	698.5
1189.417523	698.75
1189.96891	697.5
1190.520241	700.0
1191.071514	697.5
1191.622731	696.25
1192.17389	699.75
1192.724993	696.0
1193.276039	716.75
1193.827027	700.5
1194.377959	697.5
1194.928834	697.75
1195.479653	706.0
1196.030414	694.75
1196.581118	694.75
1197.131766	699.0
1197.682356	700.5
1198.23289	697.75
1198.783367	692.5
1199.333786	694.75
1199.88415	697.25
1200.434456	700.0
1200.984705	696.25
1201.534898	697.5
1202.085033	698.75
1202.635112	695.0
1203.185134	700.25
1203.735099	701.5
1204.285007	694.75
1204.834859	695.25
1205.384653	697.0
1205.934391	695.25
1206.484072	689.0
1207.033696	695.5
1207.583263	696.75
1208.132774	694.0
1208.682228	695.0
1209.231624	697.5
1209.780965	696.0
1210.330248	696.25
1210.879474	699.75
1211.428644	694.75
1211.977757	698.5
1212.526813	694.75
1213.075813	691.5
1213.624755	700.0
1214.173641	693.5
1214.72247	694.75
1215.271242	697.0
1215.819958	695.5
1216.368617	698.0
1216.917219	695.75
1217.465764	693.0
1218.014253	693.0
1218.562685	695.75
1219.11106	691.0
1219.659378	690.75
1220.20764	693.75
1220.755845	695.0
1221.303993	696.25
1221.852085	693.25
1222.400119	695.75
1222.948097	694.5
1223.496019	695.75
1224.043883	696.25
1224.591691	692.25
1225.139443	697.0
1225.687137	694.5
1226.234775	694.5
1226.782357	696.5
1227.329881	693.75
1227.877349	691.75
1228.42476	696.25
1228.972115	696.75
1229.519413	695.0
1230.066654	697.75
1230.613839	693.5
1231.160967	694.75
1231.708038	694.25
1232.255053	693.0
1232.802011	695.5
1233.348912	695.25
1233.895757	695.0
1234.442545	692.5
1234.989277	694.0
1235.535951	692.5
1236.08257	696.75
1236.629131	695.25
1237.175636	694.5
1237.722085	689.0
1238.268477	693.75
1238.814812	692.0
1239.361091	694.75
1239.907313	696.5
1240.453478	696.5
1240.999587	694.25
1241.54564	693.0
1242.091636	695.0
1242.637575	697.25
1243.183457	693.0
1243.729284	692.25
1244.275053	697.5
1244.820766	693.0
1245.366423	691.0
1245.912022	695.75
1246.457566	690.75
1247.003053	694.5
1247.548483	692.25
1248.093857	695.0
1248.639174	699.25
1249.184435	695.25
1249.729639	692.5
1250.274787	694.25
1250.819878	692.25
1251.364912	691.25
1251.909891	691.0
1252.454812	689.25
1252.999677	693.75
1253.544486	692.75
1254.089238	691.75
1254.633934	693.5
1255.178573	697.0
1255.723156	697.75
1256.267682	693.25
1256.812152	693.5
1257.356565	690.5
1257.900922	691.75
1258.445223	691.5
1258.989467	692.75
1259.533654	693.25
1260.077785	701.25
1260.62186	696.25
1261.165878	699.25
1261.70984	692.25
1262.253745	695.75
1262.797594	693.0
1263.341386	692.75
1263.885123	695.5
1264.428802	696.0
1264.972425	694.25
1265.515992	695.75
1266.059503	708.25
1266.602957	700.25
1267.146354	696.5
1267.689696	694.25
1268.23298	696.5
1268.776209	693.0
1269.319381	689.75
1269.862497	688.25
1270.405556	690.5
1270.948559	694.0
1271.491506	692.25
1272.034396	693.5
1272.57723	692.75
1273.120007	694.25
1273.662728	693.5
1274.205393	693.5
1274.748002	693.25
1275.290554	694.0
1275.83305	693.5
1276.375489	691.5
1276.917872	694.75
1277.460199	691.5
1278.00247	693.75
1278.544684	694.75
1279.086842	696.25
1279.628943	690.75
1280.170989	695.25
1280.712978	693.75
1281.25491	693.5
1281.796787	693.75
1282.338607	690.0
1282.880371	694.0
1283.422078	694.75
1283.963729	692.0
1284.505324	691.25
1285.046863	701.75
1285.588345	713.25
1286.129772	814.5
1286.671142	813.5
1287.212455	720.0
1287.753713	697.25
1288.294914	695.25
1288.836059	699.25
1289.377147	693.75
1289.91818	695.0
1290.459156	696.75
1291.000076	691.5
1291.54094	694.5
1292.081747	695.0
1292.622499	693.5
1293.163194	695.25
1293.703833	694.25
1294.244415	691.75
1294.784942	691.0
1295.325412	694.0
1295.865826	697.25
1296.406184	690.0
1296.946486	692.75
1297.486731	696.0
1298.026921	690.5
1298.567054	690.0
1299.107131	691.0
1299.647152	691.25
1300.187116	692.25
1300.727025	693.0
1301.266877	690.25
1301.806673	693.75
1302.346413	689.75
1302.886097	692.5
1303.425725	691.25
1303.965297	696.0
1304.504812	692.25
1305.044272	692.0
1305.583675	691.5
1306.123022	692.5
1306.662313	688.75
1307.201548	691.5
1307.740727	693.25
1308.279849	691.75
1308.818916	694.0
1309.357926	696.0
1309.896881	695.25
1310.435779	692.0
1310.974621	694.25
1311.513407	695.5
1312.052137	694.5
1312.590811	693.0
1313.129429	688.0
1313.667991	691.75
1314.206497	692.25
1314.744946	693.75
1315.28334	691.75
1315.821678	691.5
1316.359959	690.5
1316.898184	691.25
1317.436354	693.0
1317.974467	686.0
1318.512525	690.75
1319.050526	692.75
1319.588471	693.75
1320.12636	691.0
1320.664194	688.25
1321.201971	691.25
1321.739692	687.75
1322.277357	691.5
1322.814967	691.5
1323.35252	691.25
1323.890017	694.75
1324.427458	691.75
1324.964843	692.5
1325.502173	696.25
1326.039446	694.5
1326.576663	693.5
1327.113824	691.0
1327.65093	692.5
1328.187979	693.5
1328.724972	691.25
1329.26191	691.0
1329.798791	688.25
1330.335617	691.25
1330.872386	694.0
1331.4091	691.25
1331.945758	690.5
1332.48236	691.75
1333.018905	693.25
1333.555395	691.25
1334.091829	693.5
1334.628207	694.5
1335.164529	694.75
1335.700796	690.5
1336.237006	692.75
1336.77316	690.75
1337.309259	689.25
1337.845301	687.25
1338.381288	695.75
1338.917219	690.5
1339.453094	691.0
1339.988913	693.0
1340.524676	693.0
1341.060383	693.25
1341.596034	688.25
1342.13163	687.0
1342.66717	688.0
1343.202653	695.5
1343.738081	692.75
1344.273453	690.5
1344.80877	690.0
1345.34403	686.25
1345.879235	689.0
1346.414383	689.0
1346.949476	691.75
1347.484513	689.5
1348.019494	691.0
1348.55442	690.25
1349.089289	689.5
1349.624103	697.0
1350.158861	691.0
1350.693563	691.5
1351.228209	694.75
1351.7628	694.0
1352.297334	691.5
1352.831813	693.75
1353.366236	694.75
1353.900604	690.0
1354.434915	691.25
1354.969171	691.0
1355.503371	689.25
1356.037515	691.5
1356.571604	689.5
1357.105636	688.25
1357.639613	694.75
1358.173535	692.0
1358.7074	689.5
1359.24121	690.5
1359.774964	691.0
1360.308662	690.0
1360.842304	696.75
1361.375891	689.5
1361.909422	692.0
1362.442897	692.0
1362.976317	690.5
1363.50968	695.5
1364.042989	691.75
1364.576241	693.5
1365.109438	695.25
1365.642579	692.25
1366.175664	691.0
1366.708693	693.5
1367.241667	689.25
1367.774585	690.25
1368.307448	698.0
1368.840255	688.25
1369.373006	690.25
1369.905701	692.75
1370.438341	693.75
1370.970925	694.25
1371.503454	692.5
1372.035926	686.75
1372.568344	693.5
1373.100705	690.75
1373.633011	692.5
1374.165261	691.0
1374.697456	690.0
1375.229595	686.25
1375.761678	695.5
1376.293705	687.75
1376.825677	694.25
1377.357594	688.75
1377.889455	693.75
1378.42126	691.5
1378.953009	691.5
1379.484703	690.0
1380.016342	692.25
1380.547924	692.5
1381.079452	689.0
1381.610923	690.5
1382.142339	694.0
1382.673699	691.0
1383.205004	691.25
1383.736253	689.5
1384.267447	690.5
1384.798585	692.0
1385.329668	691.5
1385.860695	689.25
1386.391666	691.75
1386.922582	692.25
1387.453442	689.5
1387.984247	693.5
1388.514996	712.5
1389.04569	814.75
1389.576328	926.75
1390.10691	743.75
1390.637437	699.25
1391.167909	694.25
1391.698325	689.75
1392.228685	690.5
1392.75899	692.5
1393.28924	696.0
1393.819434	693.5
1394.349572	686.5
1394.879655	693.75
1395.409683	692.5
1395.939655	690.5
1396.469571	690.5
1396.999432	691.75
1397.529237	688.0
1398.058987	694.25
1398.588682	689.5
1399.118321	692.75
1399.647905	691.5
1400.177433	693.0
1400.706906	690.75
1401.236323	691.75
1401.765685	692.0
1402.294991	692.75
1402.824242	690.0
1403.353437	692.75
1403.882577	691.75
1404.411662	692.25
1404.940691	689.75
1405.469665	691.25
1405.998583	692.0
1406.527446	689.25
1407.056253	691.5
1407.585005	692.0
1408.113702	689.0
1408.642343	692.0
1409.170929	688.75
1409.69946	692.5
1410.227935	698.25
1410.756354	712.25
1411.284719	700.25
1411.813028	692.0
1412.341281	687.75
1412.869479	689.75
1413.397622	692.75
1413.92571	686.5
1414.453742	694.5
1414.981718	691.25
1415.50964	703.75
1416.037506	690.25
1416.565316	688.0
1417.093072	690.0
1417.620772	691.75
1418.148416	688.5
1418.676005	689.75
1419.203539	690.25
1419.731018	688.5
1420.258441	691.25
1420.785809	690.75
1421.313122	692.5
1421.840379	691.25
1422.367582	691.75
1422.894728	687.75
1423.42182	691.75
1423.948856	690.5
1424.475837	693.25
1425.002762	689.0
1425.529633	689.25
1426.056448	690.5
1426.583207	693.75
1427.109912	692.75
1427.636561	690.75
1428.163155	688.75
1428.689694	692.5
1429.216177	691.75
1429.742605	690.75
1430.268978	694.25
1430.795296	696.75
1431.321558	691.0
1431.847765	688.5
1432.373917	692.75
1432.900014	693.75
1433.426056	689.75
1433.952042	690.0
1434.477973	689.5
1435.003849	691.0
1435.529669	692.0
1436.055435	694.25
1436.581145	690.75
1437.1068	686.75
1437.632399	687.25
1438.157944	693.5
1438.683433	691.0
1439.208868	688.5
1439.734247	688.25
1440.25957	691.5
1440.784839	691.5
1441.310053	689.0
1441.835211	691.5
1442.360314	688.5
1442.885362	689.25
1443.410355	693.25
1443.935292	690.25
1444.460175	693.5
1444.985002	691.5
1445.509774	691.75
1446.034491	691.75
1446.559153	688.75
1447.08376	690.0
1447.608312	687.0
1448.132808	691.25
1448.65725	688.0
1449.181636	688.5
1449.705967	693.0
1450.230243	692.75
1450.754464	689.5
1451.27863	690.75
1451.802741	690.0
1452.326797	689.5
1452.850797	688.0
1453.374743	692.25
1453.898633	691.75
1454.422468	693.0
1454.946249	695.25
1455.469974	690.25
1455.993644	692.25
1456.517259	692.5
1457.040819	688.0
1457.564324	689.5
1458.087773	690.5
1458.611168	690.25
1459.134508	685.5
1459.657793	693.25
1460.181022	689.25
1460.704197	687.75
1461.227316	692.0
1461.750381	690.25
1462.27339	690.5
1462.796345	695.5
1463.319244	697.5
1463.842089	696.75
1464.364878	692.75
1464.887613	691.0
1465.410292	691.5
1465.932916	686.75
1466.455486	690.5
1466.978	688.75
1467.50046	688.5
1468.022864	690.25
1468.545214	689.0
1469.067508	689.0
1469.589748	691.0
1470.111932	689.5
1470.634062	690.75
1471.156136	692.25
1471.678156	686.25
1472.20012	689.75
1472.72203	688.25
1473.243885	689.5
1473.765685	690.25
1474.28743	692.5
1474.80912	692.75
1475.330755	690.75
1475.852335	691.75
1476.37386	683.75
1476.89533	688.25
1477.416745	691.75
1477.938106	688.5
1478.459411	689.0
1478.980662	690.0
1479.501857	692.0
1480.022998	686.5
1480.544084	690.75
1481.065115	685.75
1481.586091	687.0
1482.107012	690.5
1482.627878	688.75
1483.14869	691.75
1483.669446	689.25
1484.190148	688.75
1484.710794	687.75
1485.231386	687.75
1485.751923	691.0
1486.272406	690.0
1486.792833	690.0
1487.313205	691.0
1487.833523	691.75
1488.353786	687.75
1488.873994	690.5
1489.394147	693.5
1489.914245	691.0
1490.434288	684.25
1490.954277	692.5
1491.474211	689.25
1491.99409	688.25
1492.513914	688.5
1493.033683	689.75
1493.553398	690.0
1494.073057	691.5
1494.592662	688.0
1495.112212	690.75
1495.631708	691.25
1496.151148	687.5
1496.670534	691.25
1497.189865	686.25
1497.709141	690.0
1498.228362	694.0
1498.747529	687.75
1499.266641	691.0
1499.785698	699.5
1500.3047	688.25
1500.823648	689.5
1501.34254	687.25
1501.861379	689.5
1502.380162	690.25
1502.89889	687.75
1503.417564	686.5
1503.936183	688.75
1504.454748	690.75
1504.973257	689.5
1505.491712	687.75
1506.010112	692.25
1506.528458	691.25
1507.046748	689.0
1507.564984	689.75
1508.083166	691.75
1508.601292	691.5
1509.119364	687.0
1509.637381	686.75
1510.155344	693.75
1510.673252	697.5
1511.191105	692.0
1511.708903	692.25
1512.226647	687.75
1512.744336	688.25
1513.261971	686.75
1513.77955	687.0
1514.297076	687.0
1514.814546	688.0
1515.331962	689.75
1515.849323	687.75
1516.366629	685.75
1516.883881	689.75
1517.401078	690.75
1517.918221	687.0
1518.435309	688.0
1518.952342	687.5
1519.469321	689.25
1519.986245	688.0
1520.503114	687.75
1521.019929	691.5
1521.536689	688.0
1522.053395	684.0
1522.570046	690.25
1523.086642	686.25
1523.603184	691.75
1524.119671	690.0
1524.636103	689.5
1525.152481	690.75
1525.668805	693.75
1526.185073	696.25
1526.701288	690.75
1527.217447	688.0
1527.733552	686.0
1528.249603	682.0
1528.765599	694.5
1529.28154	690.0
1529.797427	687.25
1530.313259	688.25
1530.829037	685.5
1531.34476	691.75
1531.860429	692.0
1532.376043	688.75
1532.891602	688.0
1533.407107	690.5
1533.922558	693.75
1534.437954	689.5
1534.953295	685.75
1535.468582	689.0
1535.983815	690.5
1536.498993	687.25
1537.014116	691.0
1537.529185	687.5
1538.044199	690.0
1538.559159	685.5
1539.074064	690.0
1539.588915	690.75
1540.103712	685.75
1540.618454	688.25
1541.133141	692.5
1541.647774	687.75
1542.162353	691.5
1542.676877	690.5
1543.191346	690.5
1543.705761	692.0
1544.220122	688.5
1544.734428	689.25
1545.24868	689.25
1545.762877	694.0
1546.27702	685.75
1546.791109	688.5
1547.305143	694.5
1547.819122	694.5
1548.333047	689.0
1548.846918	684.25
1549.360734	685.0
1549.874496	689.75
1550.388204	689.0
1550.901857	695.75
1551.415455	690.25
1551.929	690.0
1552.442489	691.25
1552.955925	687.25
1553.469306	692.25
1553.982632	690.75
1554.495905	693.75
1555.009123	689.75
1555.522286	687.5
1556.035395	685.75
1556.54845	688.5
1557.06145	690.25
1557.574396	687.0
1558.087288	689.0
1558.600125	690.0
1559.112908	686.5
1559.625637	689.0
1560.138311	688.25
1560.650931	691.25
1561.163497	687.0
1561.676008	686.25
1562.188465	687.75
1562.700867	688.0
1563.213216	690.0
1563.725509	689.5
1564.237749	692.0
1564.749934	683.5
1565.262065	688.25
1565.774142	691.5
1566.286164	690.0
1566.798132	689.25
1567.310046	686.75
1567.821906	687.5
1568.333711	689.75
1568.845462	692.5
1569.357158	686.25
1569.868801	688.25
1570.380389	690.5
1570.891922	689.75
1571.403402	686.5
1571.914827	688.5
1572.426198	688.25
1572.937515	689.5
1573.448777	691.5
1573.959985	690.25
1574.471139	688.25
1574.982239	691.5
1575.493285	687.0
1576.004276	689.5
1576.515213	686.5
1577.026096	688.0
1577.536924	687.0
1578.047698	687.75
1578.558419	690.0
1579.069084	690.25
1579.579696	688.75
1580.090254	689.0
1580.600757	685.75
1581.111206	690.25
1581.621601	686.5
1582.131941	687.0
1582.642228	688.0
1583.15246	688.0
1583.662638	692.75
1584.172762	686.75
1584.682832	692.5
1585.192847	690.75
1585.702809	690.0
1586.212716	687.25
1586.722569	691.75
1587.232368	690.0
1587.742113	686.5
1588.251803	690.5
1588.76144	688.0
1589.271022	686.5
1589.78055	684.75
1590.290024	687.5
1590.799444	686.75
1591.30881	689.0
1591.818121	691.25
1592.327379	684.5
