1042.414189	724.0
1042.980685	727.25
1043.547124	725.5
1044.113505	725.5
1044.679828	729.5
1045.246093	721.25
1045.8123	722.5
1046.378449	726.75
1046.94454	721.5
1047.510573	720.75
1048.076548	719.75
1048.642465	711.0
1049.208325	710.75
1049.774126	713.75
1050.339869	711.75
1050.905555	715.75
1051.471183	711.5
1052.036752	713.5
1052.602264	707.25
1053.167718	717.0
1053.733114	711.75
1054.298452	709.0
1054.863733	714.75
1055.428955	712.0
1055.994119	709.0
1056.559226	708.25
1057.124275	711.75
1057.689266	709.25
1058.254199	709.5
1058.819074	711.0
1059.383891	710.5
1059.94865	707.5
1060.513352	713.25
1061.077996	710.0
1061.642582	708.5
1062.20711	707.25
1062.77158	706.25
1063.335992	706.75
1063.900347	708.25
1064.464643	707.5
1065.028882	710.5
1065.593063	706.25
1066.157187	705.75
1066.721252	703.25
1067.28526	708.0
1067.84921	703.75
1068.413102	706.5
1068.976936	709.0
1069.540713	707.5
1070.104431	721.0
1070.668092	705.25
1071.231696	708.75
1071.795241	708.5
1072.358729	710.75
1072.922159	708.75
1073.485531	711.5
1074.048845	709.75
1074.612102	706.5
1075.175301	710.0
1075.738442	711.5
1076.301525	708.0
1076.864551	709.0
1077.427519	707.0
1077.990429	710.5
1078.553281	714.5
1079.116076	711.75
1079.678813	714.25
1080.241492	713.5
1080.804114	715.25
1081.366678	709.25
1081.929184	714.25
1082.491633	718.25
1083.054024	716.75
1083.616357	719.75
1084.178632	723.25
1084.74085	719.75
1085.30301	722.25
1085.865113	727.75
1086.427158	724.75
1086.989145	729.0
1087.551074	733.0
1088.112946	729.5
1088.67476	734.5
1089.236517	732.25
1089.798216	732.5
1090.359857	734.75
1090.92144	742.0
1091.482966	740.25
1092.044435	746.0
1092.605845	740.75
1093.167199	744.25
1093.728494	750.0
1094.289732	748.0
1094.850912	745.0
1095.412035	753.75
1095.9731	743.0
1096.534107	741.0
1097.095057	744.75
1097.65595	734.5
1098.216784	737.25
1098.777561	729.5
1099.338281	730.75
1099.898943	723.5
1100.459547	724.75
1101.020094	721.25
1101.580584	716.0
1102.141015	719.5
1102.701389	717.75
1103.261706	712.5
1103.821965	717.0
1104.382167	717.25
1104.942311	709.5
1105.502397	715.75
1106.062426	706.25
1106.622398	708.25
1107.182312	704.5
1107.742168	704.5
1108.301967	702.25
1108.861708	703.75
1109.421392	706.0
1109.981019	703.0
1110.540587	706.25
1111.100099	703.5
1111.659553	702.25
1112.218949	699.75
1112.778288	694.25
1113.33757	696.25
1113.896794	700.5
1114.45596	695.25
1115.015069	701.75
1115.574121	699.75
1116.133115	698.75
1116.692052	700.5
1117.250931	698.25
1117.809753	696.75
1118.368517	699.0
1118.927224	699.5
1119.485873	693.5
1120.044465	697.0
1120.603	694.25
1121.161477	694.5
1121.719897	694.75
1122.278259	695.75
1122.836564	693.0
1123.394812	695.5
1123.953002	698.75
1124.511135	696.25
1125.06921	693.5
1125.627228	696.5
1126.185189	696.75
1126.743092	692.75
1127.300938	694.5
1127.858726	699.25
1128.416457	693.0
1128.974131	693.5
1129.531748	692.0
1130.089307	693.5
1130.646808	690.0
1131.204252	692.75
1131.761639	693.5
1132.318969	695.25
1132.876241	691.0
1133.433456	693.25
1133.990614	691.5
1134.547714	695.25
1135.104757	692.75
1135.661743	695.75
1136.218671	694.0
1136.775542	692.25
1137.332356	696.5
1137.889112	694.75
1138.445811	693.25
1139.002453	693.25
1139.559037	691.75
1140.115565	691.0
1140.672035	691.25
1141.228447	692.25
1141.784803	692.75
1142.341101	692.0
1142.897342	689.0
1143.453525	687.25
1144.009651	691.5
1144.565721	692.25
1145.121732	692.25
1145.677687	696.0
1146.233584	695.25
1146.789424	696.25
1147.345207	692.5
1147.900933	693.5
1148.456601	694.5
1149.012212	693.5
1149.567766	693.75
1150.123263	690.5
1150.678702	687.25
1151.234085	692.25
1151.78941	691.0
1152.344678	690.5
1152.899888	693.25
1153.455042	689.5
1154.010138	691.5
1154.565177	690.75
1155.120159	692.25
1155.675084	689.5
1156.229951	694.75
1156.784762	693.0
1157.339515	694.25
1157.894211	694.5
1158.44885	690.5
1159.003432	690.25
1159.557956	689.5
1160.112424	692.5
1160.666834	689.25
1161.221187	695.5
1161.775483	692.25
1162.329722	691.5
1162.883904	692.0
1163.438029	688.75
1163.992096	689.25
1164.546107	689.5
1165.10006	692.5
1165.653956	690.0
1166.207795	688.25
1166.761577	690.25
1167.315302	691.5
1167.86897	693.25
1168.422581	692.75
1168.976134	687.5
1169.529631	691.75
1170.08307	692.25
1170.636453	693.0
1171.189778	691.0
1171.743046	690.75
1172.296257	690.0
1172.849412	690.0
1173.402509	692.75
1173.955549	689.75
1174.508532	693.0
1175.061458	691.5
1175.614327	691.5
1176.167138	693.75
1176.719893	689.75
1177.272591	691.5
1177.825232	690.25
1178.377816	690.0
1178.930342	690.5
1179.482812	686.75
1180.035225	692.0
1180.587581	692.25
1181.139879	686.75
1181.692121	693.0
1182.244306	692.0
1182.796434	688.25
1183.348504	688.0
1183.900518	688.25
1184.452475	691.5
1185.004375	693.75
1185.556218	692.0
1186.108004	688.0
1186.659733	686.0
1187.211405	685.75
1187.76302	688.75
1188.314578	691.25
1188.866079	690.25
1189.417523	690.25
1189.96891	690.0
1190.520241	684.5
1191.071514	687.5
1191.622731	688.0
1192.17389	688.0
1192.724993	691.25
1193.276039	707.5
1193.827027	690.0
1194.377959	692.25
1194.928834	690.25
1195.479653	692.75
1196.030414	690.75
1196.581118	686.75
1197.131766	684.5
1197.682356	690.0
1198.23289	685.75
1198.783367	686.25
1199.333786	685.25
1199.88415	692.5
1200.434456	686.25
1200.984705	689.25
1201.534898	690.5
1202.085033	693.0
1202.635112	690.25
1203.185134	692.75
1203.735099	685.5
1204.285007	686.25
1204.834859	691.25
1205.384653	685.75
1205.934391	689.5
1206.484072	688.25
1207.033696	691.0
1207.583263	687.25
1208.132774	690.5
1208.682228	688.25
1209.231624	687.25
1209.780965	689.0
1210.330248	687.25
1210.879474	693.25
1211.428644	689.0
1211.977757	688.0
1212.526813	692.5
1213.075813	688.75
1213.624755	687.0
1214.173641	691.5
1214.72247	688.25
1215.271242	690.5
1215.819958	687.75
1216.368617	689.5
1216.917219	688.5
1217.465764	686.25
1218.014253	694.75
1218.562685	686.25
1219.11106	689.25
1219.659378	683.0
1220.20764	688.75
1220.755845	688.75
1221.303993	686.25
1221.852085	691.25
1222.400119	691.5
1222.948097	688.75
1223.496019	692.0
1224.043883	689.75
1224.591691	688.5
1225.139443	690.5
1225.687137	689.75
1226.234775	688.75
1226.782357	687.5
1227.329881	692.25
1227.877349	684.0
1228.42476	684.0
1228.972115	688.25
1229.519413	688.75
1230.066654	685.5
1230.613839	691.5
1231.160967	687.25
1231.708038	690.5
1232.255053	686.0
1232.802011	688.5
1233.348912	686.75
1233.895757	686.75
1234.442545	686.75
1234.989277	687.0
1235.535951	687.0
1236.08257	687.0
1236.629131	687.5
1237.175636	687.5
1237.722085	688.25
1238.268477	682.75
1238.814812	687.25
1239.361091	684.5
1239.907313	682.5
1240.453478	689.25
1240.999587	689.25
1241.54564	686.25
1242.091636	688.75
1242.637575	685.5
1243.183457	689.25
1243.729284	687.75
1244.275053	687.5
1244.820766	688.0
1245.366423	683.75
1245.912022	687.0
1246.457566	686.0
1247.003053	686.0
1247.548483	685.75
1248.093857	688.25
1248.639174	688.5
1249.184435	690.75
1249.729639	688.75
1250.274787	689.0
1250.819878	684.75
1251.364912	687.75
1251.909891	687.75
1252.454812	686.75
1252.999677	683.75
1253.544486	686.25
1254.089238	685.0
1254.633934	688.75
1255.178573	687.25
1255.723156	686.5
1256.267682	688.0
1256.812152	686.0
1257.356565	685.25
1257.900922	687.25
1258.445223	686.25
1258.989467	694.75
1259.533654	688.0
1260.077785	700.5
1260.62186	691.75
1261.165878	689.0
1261.70984	681.25
1262.253745	686.5
1262.797594	686.0
1263.341386	687.75
1263.885123	812.0
1264.428802	903.75
1264.972425	845.5
1265.515992	703.0
1266.059503	690.75
1266.602957	688.75
1267.146354	685.5
1267.689696	689.5
1268.23298	691.0
1268.776209	685.5
1269.319381	687.0
1269.862497	683.75
1270.405556	684.75
1270.948559	683.5
1271.491506	686.0
1272.034396	684.75
1272.57723	687.75
1273.120007	690.0
1273.662728	681.25
1274.205393	688.0
1274.748002	686.25
1275.290554	689.0
1275.83305	689.25
1276.375489	689.0
1276.917872	689.75
1277.460199	686.25
1278.00247	685.0
1278.544684	685.75
1279.086842	684.25
1279.628943	686.25
1280.170989	685.5
1280.712978	684.75
1281.25491	685.25
1281.796787	682.5
1282.338607	687.5
1282.880371	688.0
1283.422078	690.0
1283.963729	686.5
1284.505324	689.25
1285.046863	687.0
1285.588345	688.0
1286.129772	714.25
1286.671142	733.5
1287.212455	695.0
1287.753713	689.0
1288.294914	687.0
1288.836059	683.75
1289.377147	689.25
1289.91818	685.5
1290.459156	684.25
1291.000076	684.5
1291.54094	692.0
1292.081747	691.0
1292.622499	685.5
1293.163194	688.75
1293.703833	687.25
1294.244415	687.5
1294.784942	687.25
1295.325412	689.75
1295.865826	686.25
1296.406184	688.25
1296.946486	687.5
1297.486731	690.0
1298.026921	684.75
1298.567054	690.0
1299.107131	689.75
1299.647152	688.0
1300.187116	689.25
1300.727025	685.0
1301.266877	687.25
1301.806673	686.75
1302.346413	686.0
1302.886097	683.5
1303.425725	688.25
1303.965297	682.25
1304.504812	685.0
1305.044272	688.0
1305.583675	686.5
1306.123022	687.25
1306.662313	689.75
1307.201548	687.0
1307.740727	687.0
1308.279849	685.25
1308.818916	681.5
1309.357926	686.25
1309.896881	682.5
1310.435779	685.75
1310.974621	683.0
1311.513407	688.75
1312.052137	686.5
1312.590811	685.0
1313.129429	682.0
1313.667991	689.5
1314.206497	688.5
1314.744946	684.5
1315.28334	685.5
1315.821678	685.25
1316.359959	683.5
1316.898184	687.25
1317.436354	684.25
1317.974467	685.5
1318.512525	687.25
1319.050526	687.5
1319.588471	687.5
1320.12636	684.0
1320.664194	687.75
1321.201971	684.5
1321.739692	684.0
1322.277357	687.25
1322.814967	683.5
1323.35252	693.25
1323.890017	694.25
1324.427458	681.25
1324.964843	684.25
1325.502173	686.75
1326.039446	685.5
1326.576663	689.5
1327.113824	688.75
1327.65093	682.5
1328.187979	685.25
1328.724972	687.25
1329.26191	683.0
1329.798791	688.25
1330.335617	688.25
1330.872386	682.75
1331.4091	686.75
1331.945758	684.0
1332.48236	683.5
1333.018905	688.0
1333.555395	681.25
1334.091829	689.0
1334.628207	688.0
1335.164529	684.5
1335.700796	684.0
1336.237006	686.75
1336.77316	686.5
1337.309259	689.75
1337.845301	686.0
1338.381288	686.75
1338.917219	687.5
1339.453094	685.5
1339.988913	687.75
1340.524676	686.5
1341.060383	687.5
1341.596034	688.75
1342.13163	688.0
1342.66717	687.75
1343.202653	687.75
1343.738081	685.25
1344.273453	689.0
1344.80877	683.75
1345.34403	686.0
1345.879235	688.0
1346.414383	685.25
1346.949476	684.25
1347.484513	684.0
1348.019494	689.0
1348.55442	683.25
1349.089289	684.5
1349.624103	689.75
1350.158861	683.75
1350.693563	684.75
1351.228209	685.0
1351.7628	686.25
1352.297334	685.0
1352.831813	684.5
1353.366236	685.25
1353.900604	685.75
1354.434915	686.75
1354.969171	689.25
1355.503371	684.75
1356.037515	681.0
1356.571604	690.5
1357.105636	683.25
1357.639613	685.0
1358.173535	687.25
1358.7074	687.0
1359.24121	683.0
1359.774964	686.0
1360.308662	680.25
1360.842304	686.0
1361.375891	684.0
1361.909422	684.5
1362.442897	685.25
1362.976317	685.5
1363.50968	682.25
1364.042989	682.0
1364.576241	686.25
1365.109438	681.75
1365.642579	683.25
1366.175664	686.5
1366.708693	688.75
1367.241667	683.5
1367.774585	689.25
1368.307448	687.0
1368.840255	684.75
1369.373006	684.75
1369.905701	684.75
1370.438341	687.5
1370.970925	685.25
1371.503454	686.75
1372.035926	687.25
1372.568344	682.75
1373.100705	684.5
1373.633011	686.25
1374.165261	685.0
1374.697456	685.5
1375.229595	687.5
1375.761678	684.5
1376.293705	687.25
1376.825677	683.75
1377.357594	683.5
1377.889455	684.25
1378.42126	685.75
1378.953009	684.25
1379.484703	684.0
1380.016342	684.5
1380.547924	680.5
1381.079452	685.25
1381.610923	686.75
1382.142339	690.0
1382.673699	685.5
1383.205004	684.5
1383.736253	681.75
1384.267447	685.25
1384.798585	687.5
1385.329668	686.0
1385.860695	685.0
1386.391666	683.75
1386.922582	688.5
1387.453442	688.0
1387.984247	687.5
1388.514996	689.25
1389.04569	719.5
1389.576328	765.75
1390.10691	706.5
1390.637437	685.25
1391.167909	687.0
1391.698325	686.25
1392.228685	688.75
1392.75899	689.75
1393.28924	685.25
1393.819434	685.5
1394.349572	687.0
1394.879655	685.5
1395.409683	685.25
1395.939655	689.25
1396.469571	687.0
1396.999432	684.5
1397.529237	686.5
1398.058987	688.5
1398.588682	688.25
1399.118321	685.75
1399.647905	687.25
1400.177433	686.25
1400.706906	684.5
1401.236323	688.25
1401.765685	686.25
1402.294991	684.5
1402.824242	684.25
1403.353437	685.75
1403.882577	686.25
1404.411662	689.75
1404.940691	688.0
1405.469665	684.75
1405.998583	685.0
1406.527446	685.5
1407.056253	684.75
1407.585005	682.75
1408.113702	686.0
1408.642343	688.0
1409.170929	689.0
1409.69946	687.0
1410.227935	686.25
1410.756354	696.75
1411.284719	695.0
1411.813028	685.0
1412.341281	686.75
1412.869479	686.5
1413.397622	685.5
1413.92571	684.5
1414.453742	686.25
1414.981718	685.5
1415.50964	700.75
1416.037506	684.0
1416.565316	687.5
1417.093072	687.0
1417.620772	686.5
1418.148416	687.0
1418.676005	686.25
1419.203539	686.25
1419.731018	683.0
1420.258441	687.5
1420.785809	687.5
1421.313122	685.75
1421.840379	688.0
1422.367582	685.0
1422.894728	685.75
1423.42182	683.75
1423.948856	685.0
1424.475837	685.5
1425.002762	684.25
1425.529633	683.5
1426.056448	686.75
1426.583207	680.5
1427.109912	687.75
1427.636561	687.0
1428.163155	684.25
1428.689694	685.0
1429.216177	687.5
1429.742605	681.5
1430.268978	683.25
1430.795296	685.5
1431.321558	686.0
1431.847765	684.5
1432.373917	685.5
1432.900014	686.75
1433.426056	687.5
1433.952042	684.75
1434.477973	687.75
1435.003849	689.0
1435.529669	682.75
1436.055435	684.0
1436.581145	687.5
1437.1068	683.25
1437.632399	691.75
1438.157944	684.0
1438.683433	685.75
1439.208868	686.75
1439.734247	685.25
1440.25957	686.25
1440.784839	684.5
1441.310053	686.0
1441.835211	690.5
1442.360314	680.0
1442.885362	687.25
1443.410355	685.25
1443.935292	689.25
1444.460175	687.75
1444.985002	685.0
1445.509774	684.0
1446.034491	684.5
1446.559153	688.0
1447.08376	686.25
1447.608312	683.75
1448.132808	686.25
1448.65725	685.75
1449.181636	686.25
1449.705967	687.75
1450.230243	682.0
1450.754464	686.5
1451.27863	683.25
1451.802741	690.5
1452.326797	687.75
1452.850797	687.5
1453.374743	685.5
1453.898633	687.25
1454.422468	684.25
1454.946249	682.5
1455.469974	685.75
1455.993644	687.25
1456.517259	684.25
1457.040819	687.75
1457.564324	687.0
1458.087773	686.5
1458.611168	689.0
1459.134508	684.5
1459.657793	688.0
1460.181022	686.25
1460.704197	689.0
1461.227316	688.25
1461.750381	683.25
1462.27339	686.75
1462.796345	698.75
1463.842089	693.0
1464.364878	686.75
1464.887613	685.5
1465.410292	685.25
1465.932916	683.75
1466.455486	687.75
1466.978	688.5
1467.50046	685.0
1468.022864	688.25
1468.545214	686.75
1469.067508	686.25
1469.589748	684.0
1470.111932	687.75
1470.634062	682.0
1471.156136	686.5
1471.678156	683.25
1472.20012	687.0
1472.72203	687.0
1473.243885	683.0
1473.765685	683.5
1474.28743	686.5
1474.80912	682.75
1475.330755	686.0
1475.852335	685.25
1476.37386	684.5
1476.89533	683.0
1477.416745	684.5
1477.938106	682.5
1478.459411	685.5
1478.980662	685.0
1479.501857	689.5
1480.022998	684.75
1480.544084	688.25
1481.065115	684.0
1481.586091	683.25
1482.107012	687.25
1482.627878	685.25
1483.14869	688.75
1483.669446	685.75
1484.190148	683.25
1484.710794	685.75
1485.231386	686.0
1485.751923	688.25
1486.272406	682.5
1486.792833	683.25
1487.313205	684.0
1487.833523	687.75
1488.353786	684.75
1488.873994	683.5
1489.394147	684.25
1489.914245	687.0
1490.434288	687.75
1490.954277	685.75
1491.474211	682.75
1491.99409	688.5
1492.513914	682.0
1493.033683	684.75
1493.553398	684.25
1494.073057	686.25
1494.592662	683.0
1495.112212	685.5
1495.631708	682.25
1496.151148	684.75
1496.670534	687.25
1497.189865	684.0
1497.709141	683.25
1498.228362	682.75
1498.747529	684.0
1499.266641	685.0
1499.785698	689.75
1500.3047	685.25
1500.823648	686.75
1501.34254	686.75
1501.861379	683.75
1502.380162	684.5
1502.89889	682.0
1503.417564	684.75
1503.936183	682.0
1504.454748	684.5
1504.973257	683.25
1505.491712	686.75
1506.010112	688.0
1506.528458	684.75
1507.046748	686.25
1507.564984	686.5
1508.083166	685.5
1508.601292	679.25
1509.119364	684.75
1509.637381	688.5
1510.155344	687.5
1510.673252	695.25
1511.191105	686.0
1511.708903	685.25
1512.226647	680.0
1512.744336	680.25
1513.261971	686.25
1513.77955	681.0
1514.297076	686.25
1514.814546	684.5
1515.331962	686.0
1515.849323	681.25
1516.366629	684.0
1516.883881	688.75
1517.401078	684.5
1517.918221	684.75
1518.435309	685.0
1518.952342	685.75
1519.469321	686.5
1519.986245	686.75
1520.503114	683.0
1521.019929	682.0
1521.536689	685.0
1522.053395	680.75
1522.570046	685.75
1523.086642	680.75
1523.603184	685.0
1524.119671	683.25
1524.636103	686.75
1525.152481	682.75
1525.668805	692.5
1526.185073	703.75
1526.701288	689.25
1527.217447	684.5
1527.733552	682.5
1528.249603	684.75
1528.765599	682.25
1529.28154	680.0
1529.797427	682.5
1530.313259	681.75
1530.829037	688.0
1531.34476	686.5
1531.860429	688.5
1532.376043	684.5
1532.891602	684.75
1533.407107	684.75
1533.922558	681.25
1534.437954	684.25
1534.953295	684.75
1535.468582	684.25
1535.983815	684.75
1536.498993	683.0
1537.014116	689.5
1537.529185	684.0
1538.044199	684.25
1538.559159	684.75
1539.074064	684.75
1539.588915	684.75
1540.103712	685.25
1540.618454	685.5
1541.133141	686.25
1541.647774	687.75
1542.162353	683.0
1542.676877	682.0
1543.191346	683.5
1543.705761	683.5
1544.220122	685.5
1544.734428	685.0
1545.24868	682.5
1545.762877	687.75
1546.27702	681.75
1546.791109	687.75
1547.305143	683.75
1547.819122	684.0
1548.333047	686.0
1548.846918	682.75
1549.360734	684.5
1549.874496	688.5
1550.388204	682.25
1550.901857	686.75
1551.415455	683.0
1551.929	685.25
1552.442489	684.25
1552.955925	686.0
1553.469306	685.0
1553.982632	689.75
1554.495905	684.25
1555.009123	688.25
1555.522286	683.5
1556.035395	686.75
1556.54845	683.25
1557.06145	685.5
1557.574396	680.0
1558.087288	687.0
1558.600125	690.75
1559.112908	685.0
1559.625637	686.5
1560.138311	685.0
1560.650931	685.25
1561.163497	690.0
1561.676008	686.0
1562.188465	688.75
1562.700867	683.5
1563.213216	684.75
1563.725509	688.75
1564.237749	685.75
1564.749934	686.75
1565.262065	687.25
1565.774142	685.75
1566.286164	686.75
1566.798132	689.0
1567.310046	683.75
1567.821906	686.0
1568.333711	692.25
1568.845462	686.75
1569.357158	686.25
1569.868801	686.5
1570.380389	689.75
1570.891922	683.75
1571.403402	683.5
1571.914827	689.5
1572.426198	683.5
1572.937515	683.75
1573.448777	685.75
1573.959985	685.25
1574.471139	685.25
1574.982239	684.5
1575.493285	682.75
1576.004276	684.5
1576.515213	681.5
1577.026096	683.5
1577.536924	686.5
1578.047698	683.75
1578.558419	682.75
1579.069084	686.25
1579.579696	687.5
1580.090254	685.5
1580.600757	685.75
1581.111206	683.75
1581.621601	685.0
1582.131941	684.5
1582.642228	690.0
1583.15246	686.75
1583.662638	683.5
1584.172762	684.25
1584.682832	684.0
1585.192847	684.25
1585.702809	686.25
1586.212716	682.0
1586.722569	683.75
1587.232368	683.75
1587.742113	683.0
1588.251803	683.5
1588.76144	682.25
1589.271022	682.25
1589.78055	683.5
1590.290024	684.75
1590.799444	684.25
1591.30881	679.0
1591.818121	687.0
1592.327379	682.25
