1042.980685	750.75
1043.547124	749.75
1044.113505	752.5
1044.679828	751.5
1045.246093	745.0
1045.8123	753.75
1046.378449	748.25
1046.94454	743.0
1047.510573	746.25
1048.076548	744.75
1048.642465	742.5
1049.208325	741.5
1049.774126	741.75
1050.339869	737.0
1050.905555	746.25
1051.471183	734.0
1052.036752	733.75
1052.602264	733.0
1053.167718	741.5
1053.733114	734.25
1054.298452	733.75
1054.863733	739.5
1055.428955	731.75
1055.994119	732.25
1056.559226	734.0
1057.124275	731.25
1057.689266	735.0
1058.254199	737.0
1058.819074	735.25
1059.383891	727.5
1059.94865	733.75
1060.513352	732.25
1061.077996	730.25
1061.642582	729.5
1062.20711	729.75
1062.77158	729.5
1063.335992	731.0
1063.900347	731.0
1064.464643	728.5
1065.028882	727.25
1065.593063	727.25
1066.157187	727.0
1066.721252	725.75
1067.28526	725.25
1067.84921	728.75
1068.413102	725.5
1068.976936	722.0
1069.540713	720.0
1070.104431	736.75
1070.668092	729.75
1071.231696	724.25
1071.795241	725.75
1072.358729	726.25
1072.922159	720.0
1073.485531	723.0
1074.048845	725.75
1074.612102	720.75
1075.175301	722.75
1075.738442	724.25
1076.301525	723.5
1076.864551	721.5
1077.427519	725.0
1077.990429	721.75
1078.553281	723.5
1079.116076	719.25
1079.678813	721.0
1080.241492	723.0
1080.804114	718.0
1081.366678	721.0
1081.929184	724.75
1082.491633	724.0
1083.054024	728.25
1083.616357	726.75
1084.178632	724.75
1084.74085	724.0
1085.30301	719.0
1085.865113	719.0
1086.427158	729.25
1086.989145	722.5
1087.551074	731.0
1088.112946	724.0
1088.67476	722.75
1089.236517	721.5
1089.798216	719.25
1090.359857	723.75
1090.92144	721.0
1091.482966	717.5
1092.044435	723.5
1092.605845	718.5
1093.167199	714.5
1093.728494	720.5
1094.289732	713.75
1094.850912	721.75
1095.412035	731.75
1095.9731	714.5
1096.534107	719.25
1097.095057	723.75
1097.65595	714.25
1098.216784	718.0
1098.777561	714.25
1099.338281	717.25
1099.898943	719.0
1100.459547	718.75
1101.020094	716.25
1101.580584	719.25
1102.141015	716.25
1102.701389	720.75
1103.261706	717.5
1103.821965	717.5
1104.382167	710.5
1104.942311	718.25
1105.502397	716.25
1106.062426	720.0
1106.622398	713.5
1107.182312	713.25
1107.742168	716.5
1108.301967	714.0
1108.861708	716.5
1109.421392	712.75
1109.981019	716.25
1110.540587	710.0
1111.100099	717.75
1111.659553	715.25
1112.218949	716.5
1112.778288	713.25
1113.33757	708.25
1113.896794	709.5
1114.45596	711.25
1115.015069	711.0
1115.574121	707.5
1116.133115	712.0
1116.692052	711.75
1117.250931	716.25
1117.809753	714.25
1118.368517	713.5
1118.927224	710.0
1119.485873	712.5
1120.044465	709.25
1120.603	706.25
1121.161477	714.25
1121.719897	712.0
1122.278259	708.0
1122.836564	712.0
1123.394812	704.75
1123.953002	710.25
1124.511135	711.75
1125.06921	708.5
1125.627228	714.0
1126.185189	705.25
1126.743092	704.75
1127.300938	711.0
1127.858726	711.5
1128.416457	707.5
1128.974131	710.5
1129.531748	710.25
1130.089307	712.0
1130.646808	706.0
1131.204252	711.75
1131.761639	706.25
1132.318969	708.5
1132.876241	714.5
1133.433456	710.5
1133.990614	709.0
1134.547714	712.5
1135.104757	706.75
1135.661743	712.25
1136.218671	714.0
1136.775542	711.0
1137.332356	716.0
1137.889112	708.25
1138.445811	709.75
1139.002453	711.0
1139.559037	707.25
1140.115565	707.5
1140.672035	711.75
1141.228447	706.0
1141.784803	710.0
1142.341101	711.75
1142.897342	708.75
1143.453525	708.5
1144.009651	705.5
1144.565721	707.0
1145.121732	707.5
1145.677687	708.25
1146.233584	712.5
1146.789424	708.25
1147.345207	704.25
1147.900933	708.75
1148.456601	710.5
1149.012212	708.0
1149.567766	711.75
1150.123263	710.75
1150.678702	708.25
1151.234085	706.75
1151.78941	712.75
1152.344678	705.5
1152.899888	706.0
1153.455042	713.25
1154.010138	717.75
1154.565177	706.5
1155.120159	703.75
1155.675084	707.75
1156.229951	705.75
1156.784762	712.5
1157.339515	706.25
1157.894211	707.5
1158.44885	705.25
1159.003432	705.0
1159.557956	710.25
1160.112424	707.5
1160.666834	704.75
1161.221187	710.75
1161.775483	712.25
1162.329722	709.25
1162.883904	708.75
1163.438029	707.0
1163.992096	707.5
1164.546107	713.5
1165.10006	704.75
1165.653956	705.5
1166.207795	706.5
1166.761577	708.75
1167.315302	705.25
1167.86897	711.0
1168.422581	713.0
1168.976134	706.25
1169.529631	706.5
1170.08307	707.5
1170.636453	703.75
1171.189778	702.5
1171.743046	707.25
1172.296257	707.5
1172.849412	705.25
1173.402509	708.25
1173.955549	704.0
1174.508532	701.25
1175.061458	706.0
1175.614327	703.75
1176.167138	706.25
1176.719893	704.5
1177.272591	706.0
1177.825232	703.25
1178.377816	703.75
1178.930342	709.25
1179.482812	704.5
1180.035225	705.75
1180.587581	701.0
1181.139879	702.0
1181.692121	704.0
1182.244306	709.75
1182.796434	706.5
1183.348504	705.5
1183.900518	703.5
1184.452475	704.25
1185.004375	708.75
1185.556218	703.75
1186.108004	700.75
1186.659733	701.25
1187.211405	708.25
1187.76302	706.0
1188.314578	711.75
1188.866079	707.0
1189.417523	703.0
1189.96891	702.25
1190.520241	699.25
1191.071514	703.5
1191.622731	705.25
1192.17389	703.0
1192.724993	710.5
1193.276039	721.25
1193.827027	705.75
1194.377959	702.25
1194.928834	706.0
1195.479653	702.5
1196.030414	700.25
1196.581118	705.75
1197.131766	702.25
1197.682356	701.5
1198.23289	703.75
1198.783367	699.0
1199.333786	701.5
1199.88415	703.75
1200.434456	701.5
1200.984705	705.5
1201.534898	706.0
1202.085033	700.0
1202.635112	704.0
1203.185134	698.25
1203.735099	705.25
1204.285007	707.5
1204.834859	704.25
1205.384653	704.5
1205.934391	700.75
1206.484072	705.0
1207.033696	700.75
1207.583263	701.0
1208.132774	700.75
1208.682228	707.5
1209.231624	704.25
1209.780965	702.25
1210.330248	707.5
1210.879474	702.5
1211.428644	702.0
1211.977757	703.75
1212.526813	706.75
1213.075813	701.5
1213.624755	699.0
1214.173641	702.5
1214.72247	702.75
1215.271242	700.0
1215.819958	699.75
1216.368617	700.75
1216.917219	701.0
1217.465764	702.5
1218.014253	701.25
1218.562685	701.75
1219.11106	704.25
1219.659378	698.75
1220.20764	704.0
1220.755845	703.25
1221.303993	705.25
1221.852085	699.0
1222.400119	702.75
1222.948097	704.25
1223.496019	700.25
1224.043883	704.75
1224.591691	702.75
1225.139443	700.0
1225.687137	702.25
1226.234775	701.75
1226.782357	703.25
1227.329881	701.0
1227.877349	702.75
1228.42476	703.75
1228.972115	701.5
1229.519413	704.0
1230.066654	700.25
1230.613839	700.5
1231.160967	702.0
1231.708038	701.75
1232.255053	700.25
1232.802011	700.25
1233.348912	707.25
1233.895757	699.0
1234.442545	702.0
1234.989277	703.5
1235.535951	699.5
1236.08257	701.75
1236.629131	702.5
1237.175636	702.25
1237.722085	703.25
1238.268477	702.0
1238.814812	699.75
1239.361091	706.0
1239.907313	701.25
1240.453478	703.25
1240.999587	697.75
1241.54564	698.75
1242.091636	696.5
1242.637575	701.25
1243.183457	700.75
1243.729284	696.25
1244.275053	696.25
1244.820766	702.5
1245.366423	701.25
1245.912022	703.25
1246.457566	699.5
1247.003053	699.75
1247.548483	703.25
1248.093857	698.0
1248.639174	700.0
1249.184435	698.25
1249.729639	706.25
1250.274787	698.5
1250.819878	697.5
1251.364912	698.25
1251.909891	699.5
1252.454812	701.75
1252.999677	705.75
1253.544486	699.5
1254.089238	698.0
1254.633934	699.25
1255.178573	699.25
1255.723156	701.25
1256.267682	697.5
1256.812152	696.25
1257.356565	702.0
1257.900922	697.75
1258.445223	698.5
1258.989467	696.5
1259.533654	701.25
1260.077785	709.0
1260.62186	697.25
1261.165878	700.25
1261.70984	702.0
1262.253745	703.75
1262.797594	695.25
1263.341386	696.0
1263.885123	699.0
1264.428802	695.75
1264.972425	698.75
1265.515992	701.5
1266.059503	706.25
1266.602957	696.25
1267.146354	702.75
1267.689696	700.25
1268.23298	701.75
1268.776209	698.75
1269.319381	698.5
1269.862497	700.0
1270.405556	697.25
1270.948559	702.0
1271.491506	698.5
1272.034396	699.5
1272.57723	700.25
1273.120007	701.25
1273.662728	700.75
1274.205393	698.0
1274.748002	695.5
1275.290554	696.5
1275.83305	697.75
1276.375489	703.75
1276.917872	697.0
1277.460199	698.0
1278.00247	703.0
1278.544684	697.75
1279.086842	702.5
1279.628943	696.25
1280.170989	696.75
1280.712978	693.5
1281.25491	699.0
1281.796787	699.25
1282.338607	701.5
1282.880371	699.0
1283.422078	698.5
1283.963729	699.0
1284.505324	703.75
1285.046863	695.75
1285.588345	702.75
1286.129772	725.25
1286.671142	721.75
1287.212455	707.75
1287.753713	703.0
1288.294914	699.25
1288.836059	705.25
1289.377147	694.75
1289.91818	698.5
1290.459156	696.5
1291.000076	698.75
1291.54094	695.25
1292.081747	699.0
1292.622499	702.25
1293.163194	695.75
1293.703833	697.25
1294.244415	699.75
1294.784942	700.5
1295.325412	702.5
1295.865826	699.0
1296.406184	697.0
1296.946486	699.0
1297.486731	701.5
1298.026921	699.25
1298.567054	702.5
1299.107131	702.5
1299.647152	694.0
1300.187116	699.75
1300.727025	697.5
1301.266877	694.5
1301.806673	700.25
1302.346413	697.25
1302.886097	697.75
1303.425725	703.25
1303.965297	698.0
1304.504812	694.25
1305.044272	701.5
1305.583675	701.25
1306.123022	699.5
1306.662313	703.0
1307.201548	699.75
1307.740727	697.5
1308.279849	697.0
1308.818916	697.5
1309.357926	699.25
1309.896881	696.75
1310.435779	695.25
1310.974621	704.0
1311.513407	698.25
1312.052137	705.75
1312.590811	696.5
1313.129429	699.75
1313.667991	698.75
1314.206497	700.75
1314.744946	697.5
1315.28334	696.5
1315.821678	701.5
1316.359959	698.75
1316.898184	697.25
1317.436354	696.25
1317.974467	700.5
1318.512525	698.0
1319.050526	695.5
1319.588471	702.0
1320.12636	698.25
1320.664194	696.5
1321.201971	699.0
1321.739692	696.25
1322.277357	696.0
1322.814967	698.75
1323.35252	695.0
1323.890017	702.0
1324.427458	692.0
1324.964843	691.25
1325.502173	698.75
1326.039446	702.25
1326.576663	701.5
1327.113824	696.75
1327.65093	695.5
1328.187979	697.5
1328.724972	695.75
1329.26191	699.25
1329.798791	705.75
1330.335617	697.0
1330.872386	693.0
1331.4091	696.75
1331.945758	697.0
1332.48236	695.0
1333.018905	701.0
1333.555395	704.5
1334.091829	700.75
1334.628207	698.5
1335.164529	697.5
1335.700796	693.25
1336.237006	694.5
1336.77316	700.25
1337.309259	699.25
1337.845301	702.0
1338.381288	701.5
1338.917219	695.5
1339.453094	699.5
1339.988913	695.0
1340.524676	702.75
1341.060383	697.25
1341.596034	693.25
1342.13163	695.5
1342.66717	697.0
1343.202653	700.5
1343.738081	697.5
1344.273453	695.0
1344.80877	696.25
1345.34403	702.75
1345.879235	700.0
1346.414383	694.5
1346.949476	698.25
1347.484513	698.0
1348.019494	698.25
1348.55442	696.75
1349.089289	696.75
1349.624103	697.5
1350.158861	698.75
1350.693563	694.5
1351.228209	699.0
1351.7628	696.0
1352.297334	697.75
1352.831813	698.75
1353.366236	698.0
1353.900604	697.75
1354.434915	697.75
1354.969171	695.0
1355.503371	703.5
1356.037515	693.75
1356.571604	698.0
1357.105636	697.25
1357.639613	696.5
1358.173535	698.5
1358.7074	697.75
1359.24121	699.75
1359.774964	701.5
1360.308662	703.25
1360.842304	697.25
1361.375891	698.5
1361.909422	697.0
1362.442897	699.0
1362.976317	698.25
1363.50968	694.25
1364.042989	697.25
1364.576241	697.75
1365.109438	698.0
1365.642579	697.25
1366.175664	696.25
1366.708693	697.5
1367.241667	701.25
1367.774585	699.75
1368.307448	700.75
1368.840255	699.75
1369.373006	701.0
1369.905701	698.75
1370.438341	696.75
1370.970925	699.25
1371.503454	696.75
1372.035926	696.5
1372.568344	695.0
1373.100705	698.25
1373.633011	694.5
1374.165261	699.5
1374.697456	700.25
1375.229595	702.75
1375.761678	699.5
1376.293705	700.25
1376.825677	695.0
1377.357594	697.75
1377.889455	698.5
1378.42126	696.25
1378.953009	700.25
1379.484703	697.0
1380.016342	699.25
1380.547924	692.5
1381.079452	695.5
1381.610923	697.0
1382.142339	696.0
1382.673699	695.5
1383.205004	695.75
1383.736253	696.5
1384.267447	698.25
1384.798585	697.75
1385.329668	697.25
1385.860695	694.5
1386.391666	695.25
1386.922582	700.75
1387.453442	697.5
1387.984247	693.5
1388.514996	700.75
1389.04569	723.75
1389.576328	740.5
1390.10691	712.0
1390.637437	695.5
1391.167909	697.75
1391.698325	694.0
1392.228685	694.75
1392.75899	697.25
1393.28924	695.0
1393.819434	703.0
1394.349572	700.5
1394.879655	700.0
1395.409683	698.0
1395.939655	693.0
1396.469571	697.25
1396.999432	699.25
1397.529237	694.75
1398.058987	702.25
1398.588682	701.0
1399.118321	702.25
1399.647905	696.25
1400.177433	693.25
1400.706906	696.5
1401.236323	697.75
1401.765685	693.75
1402.294991	695.75
1402.824242	701.0
1403.353437	696.75
1403.882577	693.75
1404.411662	696.25
1404.940691	696.25
1405.469665	695.75
1405.998583	699.5
1406.527446	698.5
1407.056253	700.0
1407.585005	697.5
1408.113702	697.0
1408.642343	696.5
1409.170929	697.0
1409.69946	701.0
1410.227935	702.0
1410.756354	699.75
1411.284719	700.75
1411.813028	697.5
1412.341281	699.25
1412.869479	696.75
1413.397622	700.25
1413.92571	695.75
1414.453742	698.5
1414.981718	697.75
1415.50964	712.0
1416.037506	697.75
1416.565316	698.5
1417.093072	696.75
1417.620772	697.75
1418.148416	697.25
1418.676005	698.5
1419.203539	698.0
1419.731018	701.25
1420.258441	698.0
1420.785809	697.25
1421.313122	698.25
1421.840379	698.75
1422.367582	695.0
1422.894728	695.5
1423.42182	701.5
1423.948856	702.25
1424.475837	695.75
1425.002762	704.0
1426.056448	701.25
1426.583207	697.75
1427.109912	697.75
1427.636561	696.0
1428.163155	697.25
1428.689694	697.25
1429.216177	700.25
1429.742605	696.75
1430.268978	695.75
1430.795296	697.25
1431.321558	695.0
1431.847765	693.0
1432.373917	699.25
1432.900014	699.0
1433.426056	699.25
1433.952042	693.75
1434.477973	700.25
1435.003849	697.0
1435.529669	697.5
1436.055435	695.0
1436.581145	699.25
1437.1068	695.25
1437.632399	697.5
1438.157944	699.0
1438.683433	696.5
1439.208868	697.75
1439.734247	695.75
1440.25957	692.5
1440.784839	696.75
1441.310053	698.75
1441.835211	701.25
1442.360314	695.75
1442.885362	697.25
1443.410355	698.25
1443.935292	699.25
1444.460175	695.0
1444.985002	696.0
1445.509774	695.5
1446.034491	694.75
1446.559153	700.0
1447.08376	697.0
1447.608312	699.75
1448.132808	701.75
1448.65725	698.75
1449.181636	702.5
1449.705967	695.5
1450.230243	696.0
1450.754464	694.0
1451.27863	699.25
1451.802741	697.0
1452.326797	696.0
1452.850797	697.75
1453.374743	699.25
1453.898633	691.75
1454.422468	695.5
1454.946249	695.5
1455.469974	701.5
1455.993644	696.0
1456.517259	696.0
1457.040819	698.0
1457.564324	699.0
1458.087773	699.0
1458.611168	697.5
1459.134508	701.25
1459.657793	696.25
1460.181022	695.25
1460.704197	703.0
1461.227316	695.75
1461.750381	696.75
1462.27339	699.25
1462.796345	708.5
1463.319244	721.5
1463.842089	695.0
1464.364878	698.5
1464.887613	699.0
1465.410292	692.25
1465.932916	695.5
1466.455486	698.0
1466.978	696.75
1467.50046	696.25
1468.022864	698.75
1468.545214	692.25
1469.067508	695.75
1469.589748	694.25
1470.111932	701.5
1470.634062	696.5
1471.156136	699.0
1471.678156	696.25
1472.20012	697.25
1472.72203	696.75
1473.243885	695.75
1473.765685	700.5
1474.28743	693.75
1474.80912	693.0
1475.330755	696.25
1475.852335	695.25
1476.37386	693.75
1476.89533	697.5
1477.416745	696.5
1477.938106	695.5
1478.459411	694.25
1478.980662	697.5
1479.501857	688.5
1480.022998	702.75
1480.544084	695.0
1481.065115	699.75
1481.586091	696.0
1482.107012	694.25
1482.627878	690.25
1483.14869	700.0
1483.669446	696.75
1484.190148	698.25
1484.710794	696.75
1485.231386	696.25
1485.751923	698.75
1486.272406	693.0
1486.792833	695.5
1487.313205	696.75
1487.833523	692.25
1488.353786	696.25
1488.873994	694.0
1489.394147	697.0
1489.914245	698.75
1490.434288	696.5
1490.954277	694.75
1491.474211	693.25
1491.99409	696.25
1492.513914	694.25
1493.033683	699.0
1493.553398	697.25
1494.073057	694.75
1494.592662	696.0
1495.112212	692.75
1495.631708	699.5
1496.151148	695.75
1496.670534	691.0
1497.189865	695.0
1497.709141	697.25
1498.228362	695.0
1498.747529	694.0
1499.266641	694.75
1499.785698	703.75
1500.3047	694.75
1500.823648	698.5
1501.34254	696.25
1501.861379	691.75
1502.380162	697.75
1502.89889	698.0
1503.417564	694.0
1503.936183	698.25
1504.454748	694.75
1504.973257	694.25
1505.491712	696.75
1506.010112	698.75
1506.528458	693.75
1507.046748	695.5
1507.564984	697.75
1508.083166	698.0
1508.601292	694.75
1509.119364	697.25
1509.637381	691.75
1510.155344	692.75
1510.673252	704.75
1511.191105	696.5
1511.708903	690.25
1512.226647	699.5
1512.744336	693.25
1513.261971	691.0
1513.77955	697.25
1514.297076	696.5
1514.814546	697.25
1515.331962	691.5
1515.849323	697.75
1516.366629	693.0
1516.883881	696.0
1517.401078	692.25
1517.918221	692.0
1518.435309	694.5
1518.952342	692.0
1519.469321	695.75
1519.986245	690.5
1520.503114	696.25
1521.019929	695.75
1521.536689	696.75
1522.053395	695.5
1522.570046	690.5
1523.086642	695.0
1523.603184	690.75
1524.119671	697.0
1524.636103	697.0
1525.152481	697.75
1525.668805	700.25
1526.185073	711.25
1526.701288	701.25
1527.217447	696.0
1527.733552	691.75
1528.249603	692.25
1528.765599	695.25
1529.28154	695.75
1529.797427	691.5
1530.313259	693.5
1530.829037	693.25
1531.34476	696.0
1531.860429	699.0
1532.376043	697.0
1532.891602	695.5
1533.407107	694.0
1533.922558	697.75
1534.437954	693.75
1534.953295	693.25
1535.468582	695.5
1535.983815	692.0
1536.498993	692.25
1537.014116	694.0
1537.529185	694.25
1538.044199	689.5
1538.559159	694.25
1539.074064	694.25
1539.588915	692.75
1540.103712	700.25
1540.618454	693.0
1541.133141	693.75
1541.647774	696.25
1542.162353	696.75
1542.676877	696.0
1543.191346	698.5
1543.705761	694.0
1544.220122	694.75
1544.734428	697.25
1545.24868	694.5
1545.762877	690.75
1546.27702	697.75
1546.791109	697.0
1547.305143	699.5
1547.819122	695.0
1548.333047	697.25
1548.846918	694.25
1549.360734	696.0
1549.874496	692.75
1550.388204	692.0
1550.901857	697.25
1551.415455	694.75
1551.929	700.0
1552.442489	697.25
1552.955925	692.5
1553.469306	696.0
1553.982632	694.25
1554.495905	696.5
1555.009123	695.75
1555.522286	694.0
1556.035395	694.5
1556.54845	694.75
1557.06145	695.75
1557.574396	694.75
1558.087288	698.0
1558.600125	692.5
1559.112908	700.75
1559.625637	696.75
1560.138311	694.0
1560.650931	698.0
1561.163497	694.0
1561.676008	697.75
1562.188465	698.0
1562.700867	695.5
1563.213216	695.0
1563.725509	697.25
1564.237749	693.25
1564.749934	696.75
1565.262065	698.75
1565.774142	697.0
1566.286164	693.75
1566.798132	696.5
1567.310046	694.25
1567.821906	694.0
1568.333711	695.75
1568.845462	697.25
1569.357158	693.75
1569.868801	694.0
1570.380389	698.25
1570.891922	697.0
1571.403402	692.25
1571.914827	696.75
1572.426198	695.0
1572.937515	692.75
1573.448777	697.0
1573.959985	698.25
1574.471139	692.0
1574.982239	695.75
1575.493285	697.25
1576.004276	692.25
1576.515213	694.75
1577.026096	693.5
1577.536924	695.75
1578.047698	699.5
1578.558419	695.25
1579.069084	697.5
1579.579696	692.75
1580.090254	693.25
1580.600757	694.0
1581.111206	690.25
1581.621601	694.75
1582.131941	695.0
1582.642228	695.25
1583.15246	693.0
1583.662638	695.75
1584.172762	695.25
1584.682832	693.0
1585.192847	691.75
1585.702809	694.25
1586.212716	693.25
1586.722569	693.75
1587.232368	696.75
1587.742113	690.25
1588.251803	694.0
1588.76144	693.5
1589.271022	695.25
1589.78055	691.75
1590.290024	694.75
1590.799444	690.5
1591.30881	696.0
1591.818121	691.5
1592.327379	690.5
