1042.414189	694.5
1042.980685	695.75
1043.547124	693.0
1044.113505	690.0
1044.679828	686.0
1045.246093	689.75
1045.8123	686.25
1046.378449	685.25
1046.94454	684.75
1047.510573	687.0
1048.076548	685.5
1048.642465	684.75
1049.208325	677.75
1049.774126	682.5
1050.339869	678.75
1050.905555	680.75
1051.471183	679.25
1052.036752	679.25
1052.602264	675.25
1053.167718	679.5
1053.733114	674.0
1054.298452	683.25
1054.863733	677.5
1055.428955	673.5
1055.994119	675.0
1056.559226	677.25
1057.124275	674.75
1057.689266	676.25
1058.254199	675.25
1058.819074	670.0
1059.383891	676.5
1059.94865	673.25
1060.513352	672.5
1061.077996	676.25
1061.642582	674.5
1062.20711	677.5
1062.77158	673.25
1063.335992	676.75
1063.900347	671.75
1064.464643	676.5
1065.028882	675.75
1065.593063	674.25
1066.157187	674.0
1066.721252	672.5
1067.28526	673.25
1067.84921	674.25
1068.413102	671.75
1068.976936	670.75
1069.540713	672.0
1070.104431	677.75
1070.668092	674.25
1071.231696	672.5
1071.795241	669.25
1072.358729	672.75
1072.922159	670.75
1073.485531	668.5
1074.048845	671.75
1074.612102	671.0
1075.175301	674.0
1075.738442	669.5
1076.301525	671.75
1076.864551	671.75
1077.427519	672.0
1077.990429	670.0
1078.553281	672.75
1079.116076	671.5
1079.678813	673.0
1080.241492	670.5
1080.804114	670.75
1081.366678	670.5
1081.929184	673.0
1082.491633	675.5
1083.054024	668.75
1083.616357	669.75
1084.178632	670.75
1084.74085	670.25
1085.30301	675.5
1085.865113	668.0
1086.427158	671.75
1086.989145	672.75
1087.551074	671.0
1088.112946	672.25
1088.67476	672.5
1089.236517	674.25
1089.798216	672.75
1090.359857	673.0
1090.92144	671.25
1091.482966	668.0
1092.044435	676.0
1092.605845	669.5
1093.167199	672.0
1093.728494	673.0
1094.289732	671.0
1094.850912	672.25
1095.412035	679.75
1095.9731	669.25
1096.534107	675.25
1097.095057	675.75
1097.65595	669.75
1098.216784	668.75
1098.777561	670.0
1099.338281	670.0
1099.898943	672.5
1100.459547	669.0
1101.020094	672.0
1101.580584	665.25
1102.141015	669.25
1102.701389	668.5
1103.261706	669.0
1103.821965	666.0
1104.382167	672.75
1104.942311	668.0
1105.502397	668.0
1106.062426	669.75
1106.622398	667.75
1107.182312	674.0
1107.742168	668.5
1108.301967	670.5
1108.861708	668.0
1109.421392	669.5
1109.981019	667.75
1110.540587	668.75
1111.100099	671.25
1111.659553	667.75
1112.218949	670.75
1112.778288	672.0
1113.33757	668.75
1113.896794	669.5
1114.45596	669.5
1115.015069	670.5
1115.574121	667.25
1116.133115	669.5
1116.692052	668.0
1117.250931	670.0
1117.809753	669.5
1118.368517	668.75
1118.927224	667.5
1119.485873	667.0
1120.044465	668.0
1120.603	666.25
1121.161477	668.0
1121.719897	664.25
1122.278259	670.75
1122.836564	668.5
1123.394812	669.25
1123.953002	668.5
1124.511135	667.5
1125.06921	669.25
1125.627228	668.0
1126.185189	667.5
1126.743092	667.0
1127.300938	673.75
1127.858726	670.25
1128.416457	669.75
1128.974131	672.25
1129.531748	667.5
1130.089307	670.75
1130.646808	671.25
1131.204252	667.5
1131.761639	669.0
1132.318969	669.75
1132.876241	669.0
1133.433456	669.25
1133.990614	668.25
1134.547714	668.5
1135.104757	666.0
1135.661743	668.5
1136.218671	667.25
1136.775542	668.25
1137.332356	666.25
1137.889112	669.0
1138.445811	667.5
1139.002453	664.75
1139.559037	668.0
1140.115565	668.5
1140.672035	668.75
1141.228447	665.75
1141.784803	668.5
1142.341101	665.0
1142.897342	671.0
1143.453525	665.25
1144.009651	666.5
1144.565721	668.5
1145.121732	669.0
1145.677687	664.25
1146.233584	669.25
1146.789424	668.25
1147.345207	669.0
1147.900933	670.5
1148.456601	666.0
1149.012212	665.5
1149.567766	667.75
1150.123263	668.0
1150.678702	667.25
1151.234085	671.0
1151.78941	665.75
1152.344678	667.0
1152.899888	666.75
1153.455042	667.25
1154.010138	668.25
1154.565177	667.0
1155.120159	667.75
1155.675084	670.75
1156.229951	664.75
1156.784762	667.25
1157.339515	666.5
1157.894211	670.5
1158.44885	665.75
1159.003432	672.75
1159.557956	666.0
1160.112424	671.5
1160.666834	668.0
1161.221187	667.75
1161.775483	667.75
1162.329722	670.0
1162.883904	671.25
1163.438029	667.0
1163.992096	666.75
1164.546107	667.0
1165.10006	666.75
1165.653956	666.25
1166.207795	666.25
1166.761577	672.5
1167.315302	666.0
1167.86897	667.25
1168.422581	670.75
1168.976134	669.25
1169.529631	668.5
1170.08307	668.0
1170.636453	669.75
1171.189778	665.75
1171.743046	665.5
1172.296257	666.0
1172.849412	667.75
1173.402509	667.0
1173.955549	667.5
1174.508532	668.5
1175.061458	665.0
1175.614327	666.25
1176.167138	665.75
1176.719893	667.5
1177.272591	666.0
1177.825232	668.25
1178.377816	665.75
1178.930342	667.25
1179.482812	664.75
1180.035225	666.25
1180.587581	665.25
1181.139879	667.75
1181.692121	663.75
1182.244306	664.5
1182.796434	667.0
1183.348504	668.25
1183.900518	666.25
1184.452475	668.0
1185.004375	670.0
1185.556218	669.75
1186.108004	669.0
1186.659733	667.5
1187.211405	665.25
1187.76302	662.75
1188.314578	665.25
1188.866079	665.75
1189.417523	664.75
1189.96891	666.75
1190.520241	667.0
1191.071514	663.0
1191.622731	666.75
1192.17389	663.75
1192.724993	667.75
1193.276039	691.0
1193.827027	667.75
1194.377959	666.75
1194.928834	665.75
1195.479653	668.25
1196.030414	666.0
1196.581118	668.25
1197.131766	665.0
1197.682356	669.5
1198.23289	666.75
1198.783367	666.5
1199.333786	665.5
1199.88415	667.0
1200.434456	666.75
1200.984705	667.75
1201.534898	664.25
1202.085033	666.0
1202.635112	667.25
1203.185134	667.5
1203.735099	665.0
1204.285007	664.25
1204.834859	668.75
1205.384653	667.25
1205.934391	666.75
1206.484072	665.75
1207.033696	670.0
1207.583263	663.75
1208.132774	666.0
1208.682228	667.75
1209.231624	665.75
1209.780965	664.25
1210.330248	665.0
1210.879474	668.75
1211.428644	666.0
1211.977757	665.25
1212.526813	667.5
1213.075813	668.5
1213.624755	666.0
1214.173641	667.5
1214.72247	666.75
1215.271242	666.5
1215.819958	664.75
1216.368617	670.5
1216.917219	663.75
1217.465764	665.75
1218.014253	662.75
1218.562685	664.75
1219.11106	666.5
1219.659378	665.5
1220.20764	666.5
1220.755845	665.5
1221.303993	667.0
1221.852085	666.75
1222.400119	666.0
1222.948097	663.75
1223.496019	667.0
1224.043883	667.0
1224.591691	665.25
1225.139443	668.0
1225.687137	667.75
1226.234775	666.75
1226.782357	665.5
1227.329881	667.0
1227.877349	667.0
1228.42476	668.25
1228.972115	666.75
1229.519413	665.25
1230.066654	665.0
1230.613839	665.75
1231.160967	667.5
1231.708038	667.0
1232.255053	667.25
1232.802011	663.75
1233.348912	664.25
1233.895757	665.25
1234.442545	666.5
1234.989277	665.25
1235.535951	665.0
1236.08257	666.5
1236.629131	662.75
1237.175636	667.0
1237.722085	664.75
1238.268477	668.5
1238.814812	668.0
1239.361091	669.0
1239.907313	667.0
1240.453478	667.75
1240.999587	667.25
1241.54564	666.5
1242.091636	667.25
1242.637575	665.75
1243.183457	664.5
1243.729284	667.75
1244.275053	668.0
1244.820766	664.5
1245.366423	665.0
1245.912022	668.5
1246.457566	665.25
1247.003053	667.0
1247.548483	664.75
1248.093857	667.5
1248.639174	665.5
1249.184435	664.5
1249.729639	667.25
1250.274787	667.25
1250.819878	666.5
1251.364912	665.25
1251.909891	662.5
1252.454812	668.75
1252.999677	666.25
1253.544486	665.75
1254.089238	668.75
1254.633934	666.75
1255.178573	665.25
1255.723156	664.75
1256.267682	668.0
1256.812152	666.75
1257.356565	668.25
1257.900922	666.75
1258.445223	666.75
1258.989467	671.0
1259.533654	668.75
1260.077785	680.5
1260.62186	664.25
1261.165878	665.0
1261.70984	666.25
1262.253745	672.25
1262.797594	666.5
1263.341386	665.75
1263.885123	664.0
1264.428802	667.25
1264.972425	673.5
1265.515992	679.0
1266.059503	677.5
1266.602957	670.75
1267.146354	669.75
1267.689696	667.75
1268.23298	670.0
1268.776209	669.5
1269.319381	666.0
1269.862497	669.75
1270.405556	666.25
1270.948559	667.0
1271.491506	667.75
1272.034396	665.25
1272.57723	668.5
1273.120007	662.75
1273.662728	664.75
1274.205393	665.5
1274.748002	667.0
1275.290554	668.75
1275.83305	668.5
1276.375489	663.0
1276.917872	666.5
1277.460199	665.5
1278.00247	668.0
1278.544684	665.25
1279.086842	666.0
1279.628943	668.5
1280.170989	667.75
1280.712978	666.5
1281.25491	669.0
1281.796787	671.0
1282.338607	668.0
1282.880371	669.25
1283.422078	669.5
1283.963729	673.0
1284.505324	681.0
1285.046863	712.5
1285.588345	789.5
1286.129772	798.75
1286.671142	708.25
1287.212455	680.75
1287.753713	671.5
1288.294914	668.25
1288.836059	671.75
1289.377147	666.5
1289.91818	665.75
1290.459156	671.5
1291.000076	668.5
1291.54094	666.5
1292.081747	668.0
1292.622499	665.25
1293.163194	665.25
1293.703833	666.25
1294.244415	665.75
1294.784942	667.25
1295.325412	668.5
1295.865826	666.5
1296.406184	667.75
1296.946486	667.0
1297.486731	666.5
1298.026921	665.5
1298.567054	664.25
1299.107131	665.0
1299.647152	664.0
1300.187116	668.0
1300.727025	665.0
1301.266877	664.25
1301.806673	668.25
1302.346413	667.0
1302.886097	666.0
1303.425725	667.75
1303.965297	667.0
1304.504812	663.0
1305.044272	667.75
1305.583675	664.0
1306.123022	664.25
1306.662313	667.0
1307.201548	666.5
1307.740727	668.0
1308.279849	666.0
1308.818916	666.5
1309.357926	662.75
1309.896881	667.25
1310.435779	666.0
1310.974621	665.5
1311.513407	667.25
1312.052137	665.25
1312.590811	666.5
1313.129429	669.0
1313.667991	665.25
1314.206497	666.5
1314.744946	664.75
1315.28334	665.25
1315.821678	666.75
1316.359959	665.5
1316.898184	666.75
1317.436354	667.0
1317.974467	666.25
1318.512525	665.5
1319.050526	665.75
1319.588471	666.25
1320.12636	666.0
1320.664194	668.5
1321.201971	668.25
1321.739692	669.25
1322.277357	666.75
1322.814967	665.0
1323.35252	665.5
1323.890017	671.0
1324.427458	665.75
1324.964843	666.0
1325.502173	667.0
1326.039446	668.25
1326.576663	665.0
1327.113824	665.0
1327.65093	668.0
1328.187979	666.75
1328.724972	665.25
1329.26191	664.75
1329.798791	668.75
1330.335617	666.0
1330.872386	666.0
1331.4091	665.75
1331.945758	665.75
1332.48236	664.0
1333.018905	666.25
1333.555395	665.0
1334.091829	666.75
1334.628207	667.25
1335.164529	666.75
1335.700796	665.0
1336.237006	666.5
1336.77316	665.25
1337.309259	668.5
1337.845301	665.0
1338.381288	664.75
1338.917219	665.5
1339.453094	666.0
1339.988913	667.25
1340.524676	666.0
1341.060383	665.0
1341.596034	667.5
1342.13163	664.0
1342.66717	665.75
1343.202653	665.5
1343.738081	668.0
1344.273453	667.25
1344.80877	668.75
1345.34403	666.25
1345.879235	667.0
1346.414383	664.25
1346.949476	666.0
1347.484513	667.0
1348.019494	665.0
1348.55442	667.75
1349.089289	663.25
1349.624103	665.75
1350.158861	664.5
1350.693563	665.0
1351.228209	665.75
1351.7628	667.75
1352.297334	663.0
1352.831813	665.0
1353.366236	664.75
1353.900604	667.75
1354.434915	667.0
1354.969171	667.0
1355.503371	666.5
1356.037515	666.25
1356.571604	665.25
1357.105636	667.75
1357.639613	666.0
1358.173535	666.75
1358.7074	668.75
1359.24121	666.5
1359.774964	666.5
1360.308662	666.75
1360.842304	665.75
1361.375891	664.75
1361.909422	669.0
1362.442897	665.0
1362.976317	664.25
1363.50968	665.75
1364.042989	665.25
1364.576241	662.0
1365.109438	667.5
1365.642579	666.0
1366.175664	666.25
1366.708693	664.5
1367.241667	663.25
1367.774585	666.5
1368.307448	668.0
1368.840255	667.5
1369.373006	667.0
1369.905701	667.25
1370.438341	670.75
1370.970925	673.25
1371.503454	670.25
1372.035926	667.75
1372.568344	667.0
1373.100705	663.25
1373.633011	664.25
1374.165261	665.0
1374.697456	667.0
1375.229595	667.25
1375.761678	665.5
1376.293705	665.0
1376.825677	668.75
1377.357594	668.0
1377.889455	665.0
1378.42126	666.0
1378.953009	665.0
1379.484703	666.25
1380.016342	665.0
1380.547924	666.5
1381.079452	663.25
1381.610923	665.75
1382.142339	665.25
1382.673699	667.25
1383.205004	668.0
1383.736253	670.0
1384.267447	664.0
1384.798585	667.25
1385.329668	668.0
1385.860695	668.5
1386.391666	671.5
1386.922582	671.75
1387.453442	676.5
1387.984247	688.5
1388.514996	772.25
1389.04569	933.5
1389.576328	814.0
1390.10691	699.0
1390.637437	675.5
1391.167909	669.5
1391.698325	669.0
1392.228685	670.0
1392.75899	670.75
1393.28924	667.25
1393.819434	669.5
1394.349572	666.5
1394.879655	666.0
1395.409683	666.25
1395.939655	665.25
1396.469571	666.25
1396.999432	662.75
1397.529237	665.5
1398.058987	662.75
1398.588682	666.25
1399.118321	663.5
1399.647905	667.75
1400.177433	666.5
1400.706906	665.5
1401.236323	664.0
1401.765685	665.5
1402.294991	668.0
1402.824242	667.25
1403.353437	666.5
1403.882577	666.5
1404.411662	666.75
1404.940691	665.75
1405.469665	666.5
1405.998583	663.0
1406.527446	666.25
1407.056253	667.0
1407.585005	669.5
1408.113702	668.75
1408.642343	669.0
1409.170929	667.5
1409.69946	672.25
1410.227935	685.75
1410.756354	685.0
1411.284719	672.75
1411.813028	670.25
1412.341281	667.0
1412.869479	667.25
1413.397622	669.25
1413.92571	666.5
1414.453742	666.0
1414.981718	665.0
1415.50964	679.0
1416.037506	665.25
1416.565316	666.5
1417.093072	665.5
1417.620772	666.75
1418.148416	664.25
1418.676005	666.5
1419.203539	663.25
1419.731018	666.25
1420.258441	669.25
1420.785809	667.25
1421.313122	665.75
1421.840379	666.75
1422.367582	665.75
1422.894728	667.0
1423.42182	665.25
1423.948856	666.75
1424.475837	666.25
1425.002762	665.25
1425.529633	663.0
1426.056448	666.5
1426.583207	667.0
1427.109912	663.5
1427.636561	667.0
1428.163155	663.75
1428.689694	666.25
1429.216177	666.0
1429.742605	670.5
1430.268978	665.25
1430.795296	664.5
1431.321558	663.0
1431.847765	663.5
1432.373917	662.25
1432.900014	668.0
1433.426056	664.25
1433.952042	667.0
1434.477973	667.25
1435.003849	670.25
1435.529669	665.25
1436.055435	667.25
1436.581145	664.75
1437.1068	666.25
1437.632399	662.5
1438.157944	665.5
1438.683433	664.5
1439.208868	663.5
1439.734247	666.25
1440.25957	670.0
1440.784839	667.0
1441.310053	665.5
1441.835211	666.5
1442.360314	665.25
1442.885362	664.0
1443.410355	663.75
1443.935292	665.0
1444.460175	665.25
1444.985002	667.75
1445.509774	665.25
1446.034491	663.75
1446.559153	667.5
1447.08376	666.25
1447.608312	667.25
1448.132808	665.5
1448.65725	667.5
1449.181636	662.5
1449.705967	664.5
1450.230243	666.0
1450.754464	665.0
1451.27863	663.75
1451.802741	666.25
1452.326797	664.0
1452.850797	667.75
1453.374743	665.25
1453.898633	664.75
1454.422468	664.25
1454.946249	665.5
1455.469974	665.0
1455.993644	664.75
1456.517259	666.25
1457.040819	665.75
1457.564324	663.5
1458.087773	666.25
1458.611168	665.0
1459.134508	663.25
1459.657793	666.0
1460.181022	667.25
1460.704197	667.5
1461.227316	665.75
1461.750381	664.0
1462.27339	668.75
1462.796345	683.5
1463.319244	695.5
1463.842089	672.5
1464.364878	664.75
1464.887613	666.5
1465.410292	666.25
1465.932916	664.0
1466.455486	664.75
1466.978	665.25
1467.50046	666.0
1468.022864	665.5
1468.545214	667.0
1469.067508	666.5
1469.589748	666.75
1470.111932	668.5
1470.634062	664.75
1471.156136	668.0
1471.678156	667.0
1472.20012	667.0
1472.72203	667.0
1473.243885	663.5
1473.765685	668.5
1474.28743	665.5
1474.80912	666.5
1475.330755	666.0
1475.852335	666.25
1476.37386	665.25
1476.89533	666.0
1477.416745	669.25
1477.938106	664.0
1478.459411	667.75
1478.980662	664.5
1479.501857	664.75
1480.022998	666.75
1480.544084	661.75
1481.065115	665.0
1481.586091	666.75
1482.107012	662.25
1482.627878	666.75
1483.14869	666.5
1483.669446	666.0
1484.190148	663.5
1484.710794	666.25
1485.231386	667.5
1485.751923	664.75
1486.272406	664.75
1486.792833	665.75
1487.313205	663.25
1487.833523	666.25
1488.353786	663.25
1488.873994	666.25
1489.394147	666.5
1489.914245	665.75
1490.434288	665.0
1490.954277	665.75
1491.474211	664.0
1491.99409	664.75
1492.513914	662.75
1493.033683	666.5
1493.553398	665.0
1494.073057	666.75
1494.592662	663.75
1495.112212	668.0
1495.631708	663.5
1496.151148	664.5
1496.670534	665.0
1497.189865	662.5
1497.709141	661.5
1498.228362	663.5
1498.747529	665.5
1499.266641	662.25
1499.785698	675.0
1500.3047	664.75
1500.823648	662.75
1501.34254	662.75
1501.861379	666.5
1502.380162	663.25
1502.89889	664.0
1503.417564	663.5
1503.936183	667.0
1504.454748	662.5
1504.973257	665.75
1505.491712	665.0
1506.010112	665.25
1506.528458	665.0
1507.046748	668.25
1507.564984	665.5
1508.083166	666.25
1508.601292	666.0
1509.119364	662.5
1509.637381	664.0
1510.155344	663.5
1510.673252	673.5
1511.191105	665.0
1511.708903	665.5
1512.226647	666.75
1512.744336	661.25
1513.261971	666.0
1513.77955	665.75
1514.297076	663.25
1514.814546	666.25
1515.331962	666.0
1515.849323	664.5
1516.366629	666.0
1516.883881	663.75
1517.401078	664.25
1517.918221	667.0
1518.435309	663.25
1518.952342	663.75
1519.469321	663.0
1521.019929	666.0
1521.536689	664.25
1522.053395	664.5
1522.570046	664.0
1523.086642	665.0
1523.603184	664.75
1524.119671	664.5
1524.636103	665.5
1525.152481	665.25
1525.668805	671.5
1526.185073	693.25
1526.701288	674.25
1527.217447	666.0
1527.733552	667.0
1528.249603	666.5
1528.765599	663.25
1529.28154	663.75
1529.797427	663.25
1530.313259	664.0
1530.829037	663.0
1531.34476	664.75
1531.860429	665.0
1532.376043	665.75
1532.891602	665.5
1533.407107	665.5
1533.922558	667.0
1534.437954	663.5
1534.953295	665.0
1535.468582	662.75
1535.983815	664.5
1536.498993	664.75
1537.014116	664.5
1537.529185	664.75
1538.044199	667.25
1538.559159	669.5
1539.074064	664.25
1539.588915	664.5
1540.103712	666.0
1540.618454	663.5
1541.133141	665.5
1541.647774	663.75
1542.162353	664.25
1542.676877	664.25
1543.191346	664.25
1543.705761	663.25
1544.220122	665.25
1544.734428	663.5
1545.24868	667.5
1545.762877	666.5
1546.27702	668.0
1546.791109	667.25
1547.305143	665.25
1547.819122	666.0
1548.333047	668.25
1548.846918	664.0
1549.360734	666.75
1549.874496	668.0
1550.388204	666.75
1550.901857	667.25
1551.415455	666.0
1551.929	665.75
1552.442489	665.5
1552.955925	662.75
1553.469306	665.25
1553.982632	664.25
1554.495905	666.25
1555.009123	664.0
1555.522286	665.5
1556.035395	664.0
1556.54845	664.25
1557.06145	668.75
1557.574396	668.75
1558.087288	666.0
1558.600125	665.25
1559.112908	665.75
1559.625637	666.25
1560.138311	665.25
1560.650931	667.0
1561.163497	666.25
1561.676008	666.25
1562.188465	665.75
1562.700867	663.25
1563.213216	668.5
1563.725509	670.25
1564.237749	669.5
1564.749934	668.25
1565.262065	666.25
1565.774142	667.5
1566.286164	669.75
1566.798132	666.75
1567.310046	669.0
1567.821906	670.5
1568.333711	672.0
1568.845462	665.75
1569.357158	668.75
1569.868801	665.75
1570.380389	668.0
1570.891922	666.0
1571.403402	665.5
1571.914827	665.0
1572.426198	662.5
1572.937515	667.75
1573.448777	667.25
1573.959985	664.25
1574.471139	664.75
1574.982239	667.75
1575.493285	664.75
1576.004276	667.0
1576.515213	664.25
1577.026096	667.25
1577.536924	664.75
1578.047698	663.25
1578.558419	668.5
1579.069084	665.75
1579.579696	666.0
1580.090254	664.0
1580.600757	666.0
1581.111206	665.5
1581.621601	664.0
1582.131941	664.0
1582.642228	667.5
1583.15246	665.75
1583.662638	667.0
1584.172762	662.75
1584.682832	667.25
1585.192847	666.25
1585.702809	665.25
1586.212716	667.0
1586.722569	666.75
1587.232368	666.25
1587.742113	664.25
1588.251803	665.0
1588.76144	664.75
1589.271022	665.5
1589.78055	663.75
1590.290024	666.25
1590.799444	664.5
1591.30881	667.0
1591.818121	669.25
1592.327379	665.5
