1042.414189	719.5
1042.980685	718.75
1043.547124	715.0
1044.113505	714.25
1044.679828	713.75
1045.246093	712.0
1045.8123	709.0
1046.378449	708.25
1046.94454	710.25
1047.510573	708.0
1048.076548	709.25
1048.642465	711.25
1049.208325	710.25
1049.774126	707.25
1050.339869	704.0
1050.905555	707.5
1051.471183	703.5
1052.036752	703.25
1052.602264	700.0
1053.167718	701.25
1053.733114	701.25
1054.298452	704.75
1054.863733	699.5
1055.428955	702.25
1055.994119	697.75
1056.559226	698.25
1057.124275	703.0
1057.689266	699.25
1058.254199	696.25
1058.819074	699.5
1059.383891	696.75
1059.94865	697.5
1060.513352	696.5
1061.077996	697.25
1061.642582	695.0
1062.20711	698.75
1062.77158	695.25
1063.335992	696.25
1063.900347	698.75
1064.464643	693.0
1065.028882	698.0
1065.593063	694.5
1066.157187	695.0
1066.721252	696.75
1067.28526	692.75
1067.84921	695.75
1068.413102	697.25
1068.976936	695.25
1069.540713	696.75
1070.104431	701.0
1070.668092	698.0
1071.231696	695.5
1071.795241	695.75
1072.358729	696.5
1072.922159	692.0
1073.485531	695.25
1074.048845	693.75
1074.612102	697.5
1075.175301	694.5
1075.738442	699.75
1076.301525	695.0
1076.864551	694.5
1077.427519	691.75
1077.990429	694.5
1078.553281	693.75
1079.116076	692.0
1079.678813	694.5
1080.241492	695.75
1080.804114	697.25
1081.366678	693.0
1081.929184	691.0
1082.491633	694.5
1083.054024	699.0
1083.616357	695.25
1084.178632	693.5
1084.74085	696.25
1085.30301	698.75
1085.865113	694.75
1086.427158	692.5
1086.989145	696.25
1087.551074	697.0
1088.112946	696.25
1088.67476	695.5
1089.236517	696.0
1089.798216	694.5
1090.359857	691.75
1090.92144	693.75
1091.482966	693.75
1092.044435	692.5
1092.605845	693.0
1093.167199	690.5
1093.728494	696.75
1094.289732	696.0
1094.850912	694.5
1095.412035	706.25
1095.9731	694.75
1096.534107	692.0
1097.095057	699.75
1097.65595	693.75
1098.216784	692.0
1098.777561	695.75
1099.338281	690.5
1099.898943	696.75
1100.459547	696.25
1101.020094	694.25
1101.580584	700.5
1102.141015	696.0
1102.701389	697.0
1103.261706	694.5
1103.821965	695.75
1104.382167	696.0
1104.942311	692.5
1105.502397	696.75
1106.062426	695.5
1106.622398	696.0
1107.182312	694.0
1107.742168	693.5
1108.301967	697.75
1108.861708	695.5
1109.421392	697.0
1109.981019	694.5
1110.540587	694.25
1111.100099	694.5
1111.659553	694.25
1112.218949	694.75
1112.778288	694.75
1113.33757	691.25
1113.896794	693.25
1114.45596	693.75
1115.015069	694.25
1115.574121	694.5
1116.133115	693.5
1116.692052	694.5
1117.250931	694.75
1117.809753	691.0
1118.368517	693.25
1118.927224	695.0
1119.485873	692.25
1120.044465	699.0
1120.603	692.25
1121.161477	696.0
1121.719897	696.0
1122.278259	691.5
1122.836564	695.0
1123.394812	697.75
1123.953002	696.0
1124.511135	694.0
1125.06921	696.75
1125.627228	699.5
1126.185189	694.25
1126.743092	694.0
1127.300938	695.5
1127.858726	694.75
1128.416457	693.5
1128.974131	695.25
1129.531748	695.25
1130.089307	693.25
1130.646808	697.5
1131.204252	693.0
1131.761639	695.0
1132.318969	700.25
1132.876241	695.75
1133.433456	694.75
1133.990614	697.25
1134.547714	693.75
1135.104757	698.5
1135.661743	694.75
1136.218671	696.5
1136.775542	695.0
1137.332356	696.0
1137.889112	695.25
1138.445811	694.25
1139.002453	697.75
1139.559037	694.25
1140.115565	692.0
1140.672035	693.0
1141.228447	694.75
1141.784803	694.5
1142.341101	695.5
1142.897342	699.25
1143.453525	697.75
1144.009651	695.25
1144.565721	698.25
1145.121732	699.5
1145.677687	695.75
1146.233584	696.75
1146.789424	698.0
1147.345207	698.0
1147.900933	698.0
1148.456601	693.5
1149.012212	698.25
1149.567766	696.75
1150.123263	704.5
1150.678702	706.75
1151.234085	702.25
1151.78941	699.25
1152.344678	696.5
1152.899888	699.75
1153.455042	690.5
1154.010138	698.0
1154.565177	698.75
1155.120159	698.5
1155.675084	694.25
1156.229951	700.25
1156.784762	700.0
1157.339515	695.25
1157.894211	702.25
1158.44885	701.75
1159.003432	700.25
1159.557956	697.25
1160.112424	701.25
1160.666834	701.5
1161.221187	694.5
1161.775483	693.0
1162.329722	699.5
1162.883904	702.25
1163.438029	699.0
1163.992096	698.0
1164.546107	694.5
1165.10006	697.0
1165.653956	700.5
1166.207795	698.75
1166.761577	701.75
1167.315302	697.5
1167.86897	697.75
1168.422581	695.75
1168.976134	697.75
1169.529631	701.25
1170.08307	697.0
1170.636453	699.75
1171.189778	696.75
1171.743046	697.25
1172.296257	696.25
1172.849412	695.25
1173.402509	696.25
1173.955549	699.25
1174.508532	699.75
1175.061458	704.25
1175.614327	700.0
1176.167138	698.5
1176.719893	697.75
1177.272591	696.25
1177.825232	701.0
1178.377816	699.75
1178.930342	696.5
1179.482812	698.75
1180.035225	699.75
1180.587581	695.25
1181.139879	698.25
1181.692121	701.0
1182.244306	699.0
1182.796434	696.0
1183.348504	694.75
1183.900518	700.0
1184.452475	700.75
1185.004375	696.75
1185.556218	696.5
1186.108004	696.0
1186.659733	703.0
1187.211405	698.75
1187.76302	697.25
1188.314578	700.5
1188.866079	697.5
1189.417523	701.0
1189.96891	694.5
1190.520241	698.75
1191.071514	699.25
1191.622731	701.75
1192.17389	702.25
1192.724993	699.5
1193.276039	718.25
1193.827027	696.0
1194.377959	696.75
1194.928834	705.75
1195.479653	705.0
1196.030414	700.5
1196.581118	702.75
1197.131766	697.0
1197.682356	699.25
1198.23289	700.25
1198.783367	693.5
1199.333786	700.5
1199.88415	700.0
1200.434456	700.5
1200.984705	697.0
1201.534898	698.75
1202.085033	700.0
1202.635112	696.25
1203.185134	699.5
1203.735099	703.75
1204.285007	699.25
1204.834859	703.5
1205.384653	696.25
1205.934391	700.0
1206.484072	699.25
1207.033696	702.5
1207.583263	700.0
1208.132774	696.25
1208.682228	701.0
1209.231624	696.0
1209.780965	699.25
1210.330248	702.5
1210.879474	700.5
1211.428644	698.75
1211.977757	701.5
1212.526813	705.25
1213.075813	700.75
1213.624755	706.0
1214.173641	702.25
1214.72247	701.5
1215.271242	697.0
1215.819958	699.75
1216.368617	701.0
1216.917219	700.5
1217.465764	701.75
1218.014253	703.5
1218.562685	706.75
1219.11106	699.0
1219.659378	701.25
1220.20764	701.5
1220.755845	702.5
1221.303993	700.75
1221.852085	700.25
1222.400119	703.75
1222.948097	704.25
1223.496019	699.25
1224.043883	703.5
1224.591691	702.0
1225.139443	700.5
1225.687137	704.75
1226.234775	699.5
1226.782357	699.5
1227.329881	706.0
1227.877349	698.5
1228.42476	704.0
1228.972115	706.25
1229.519413	696.0
1230.066654	704.0
1230.613839	705.25
1231.160967	705.75
1231.708038	703.75
1232.255053	707.0
1232.802011	706.25
1233.348912	701.0
1233.895757	703.25
1234.442545	704.0
1234.989277	703.75
1235.535951	706.25
1236.08257	703.75
1236.629131	701.5
1237.175636	704.75
1237.722085	702.25
1238.268477	705.25
1238.814812	700.25
1239.361091	704.75
1239.907313	701.75
1240.453478	706.25
1240.999587	706.0
1241.54564	705.0
1242.091636	703.5
1242.637575	704.75
1243.183457	699.25
1243.729284	706.5
1244.275053	707.5
1244.820766	707.0
1245.366423	703.75
1245.912022	704.0
1246.457566	707.25
1247.003053	705.25
1247.548483	707.25
1248.093857	705.75
1248.639174	705.75
1249.184435	707.25
1249.729639	703.0
1250.274787	705.0
1250.819878	702.25
1251.364912	713.75
1251.909891	704.0
1252.454812	706.0
1252.999677	708.5
1253.544486	706.25
1254.089238	707.0
1254.633934	709.0
1255.178573	707.5
1255.723156	706.5
1256.267682	705.0
1256.812152	707.5
1257.356565	709.25
1257.900922	711.5
1258.445223	712.5
1258.989467	713.0
1259.533654	714.25
1260.077785	724.5
1260.62186	706.5
1261.165878	709.5
1261.70984	717.75
1262.253745	718.25
1262.797594	724.75
1263.341386	725.0
1263.885123	737.0
1264.428802	739.0
1264.972425	735.75
1265.515992	730.5
1266.059503	719.25
1266.602957	718.25
1267.146354	712.25
1267.689696	714.25
1268.23298	714.0
1268.776209	705.5
1269.319381	716.0
1269.862497	708.0
1270.405556	712.25
1270.948559	716.5
1271.491506	711.0
1272.034396	710.25
1272.57723	710.5
1273.120007	708.75
1273.662728	710.25
1274.205393	710.25
1274.748002	710.5
1275.290554	712.25
1275.83305	713.75
1276.375489	709.5
1276.917872	714.75
1277.460199	709.75
1278.00247	713.5
1278.544684	714.25
1279.086842	717.25
1279.628943	719.0
1280.170989	721.0
1280.712978	722.75
1281.25491	738.0
1281.796787	761.75
1282.338607	793.0
1282.880371	880.0
1283.422078	1021.0
1283.963729	1167.75
1284.505324	1235.5
1285.046863	1095.75
1285.588345	903.0
1286.129772	802.75
1286.671142	757.25
1287.212455	740.0
1287.753713	726.5
1288.294914	720.0
1288.836059	720.25
1289.377147	717.0
1289.91818	716.5
1290.459156	719.5
1291.000076	714.0
1291.54094	716.75
1292.081747	717.25
1292.622499	713.0
1293.163194	714.5
1293.703833	712.5
1294.244415	706.75
1294.784942	713.0
1295.325412	715.5
1295.865826	713.75
1296.406184	704.0
1296.946486	715.0
1297.486731	716.0
1298.026921	708.75
1298.567054	708.5
1299.107131	709.75
1299.647152	710.0
1300.187116	708.75
1300.727025	713.25
1301.266877	710.25
1301.806673	708.25
1302.346413	711.5
1302.886097	712.5
1303.425725	714.0
1303.965297	712.5
1304.504812	711.0
1305.044272	711.0
1305.583675	704.25
1306.123022	714.5
1306.662313	714.5
1307.201548	705.75
1307.740727	707.0
1308.279849	708.75
1308.818916	713.0
1309.357926	705.5
1309.896881	710.75
1310.435779	712.5
1310.974621	710.0
1311.513407	711.5
1312.052137	708.0
1312.590811	708.0
1313.129429	712.75
1313.667991	711.25
1314.206497	706.75
1314.744946	711.25
1315.28334	713.0
1315.821678	708.5
1316.359959	715.0
1316.898184	714.25
1317.436354	708.5
1317.974467	709.0
1318.512525	712.5
1319.050526	708.75
1319.588471	709.75
1320.12636	708.5
1320.664194	707.0
1321.201971	707.0
1321.739692	714.75
1322.277357	712.0
1322.814967	711.25
1323.35252	716.75
1323.890017	717.75
1324.427458	711.25
1324.964843	711.5
1325.502173	709.5
1326.039446	711.0
1326.576663	709.0
1327.113824	712.0
1327.65093	704.75
1328.187979	708.5
1328.724972	712.75
1329.26191	714.75
1329.798791	711.5
1330.335617	710.25
1330.872386	716.0
1331.4091	713.0
1331.945758	706.75
1332.48236	709.75
1333.018905	712.75
1333.555395	709.5
1334.091829	710.25
1334.628207	708.0
1335.164529	708.0
1335.700796	710.25
1336.237006	712.75
1336.77316	706.0
1337.309259	709.0
1337.845301	714.75
1338.381288	714.25
1338.917219	711.5
1339.453094	712.0
1339.988913	711.0
1340.524676	712.0
1341.060383	711.25
1341.596034	709.75
1342.13163	713.0
1342.66717	718.25
1343.202653	712.25
1343.738081	715.5
1344.273453	715.25
1344.80877	712.5
1345.34403	713.0
1345.879235	712.75
1346.414383	716.25
1346.949476	713.75
1347.484513	713.5
1348.019494	712.0
1348.55442	714.0
1349.089289	711.0
1349.624103	712.25
1350.158861	716.0
1350.693563	712.75
1351.228209	714.5
1351.7628	716.0
1352.297334	712.5
1352.831813	717.0
1353.366236	712.75
1353.900604	714.25
1354.434915	711.75
1354.969171	711.75
1355.503371	714.75
1356.037515	713.5
1356.571604	709.25
1357.105636	713.25
1357.639613	713.5
1358.173535	714.25
1358.7074	714.25
1359.24121	715.5
1359.774964	718.25
1360.308662	718.75
1360.842304	716.0
1361.375891	712.5
1361.909422	710.5
1362.442897	719.75
1362.976317	713.0
1363.50968	718.5
1364.042989	713.75
1364.576241	722.75
1365.109438	716.75
1365.642579	716.25
1366.175664	721.0
1366.708693	719.5
1367.241667	716.75
1367.774585	717.25
1368.307448	719.75
1368.840255	722.75
1369.373006	724.0
1369.905701	731.75
1370.438341	741.75
1370.970925	725.25
1371.503454	720.25
1372.035926	719.25
1372.568344	719.0
1373.100705	724.0
1373.633011	717.0
1374.165261	721.25
1374.697456	718.0
1375.229595	725.0
1375.761678	721.0
1376.293705	720.0
1376.825677	719.5
1377.357594	723.75
1377.889455	719.5
1378.42126	719.0
1378.953009	721.25
1379.484703	721.0
1380.016342	718.0
1380.547924	720.75
1381.079452	728.5
1381.610923	721.5
1382.142339	729.75
1382.673699	725.75
1383.205004	734.5
1383.736253	736.75
1384.267447	741.0
1384.798585	750.5
1385.329668	762.75
1385.860695	782.0
1386.391666	839.5
1386.922582	964.25
1387.453442	1281.25
1387.984247	1755.5
1388.514996	1736.25
1389.04569	1228.0
1389.576328	914.5
1390.10691	812.75
1390.637437	760.75
1391.167909	752.5
1391.698325	732.5
1392.228685	734.5
1392.75899	731.75
1393.28924	731.25
1393.819434	735.0
1394.349572	730.75
1394.879655	726.25
1395.409683	726.25
1395.939655	720.5
1396.469571	725.5
1396.999432	720.0
1397.529237	721.25
1398.058987	720.0
1398.588682	719.25
1399.118321	722.0
1399.647905	720.25
1400.177433	722.0
1400.706906	720.25
1401.236323	727.0
1401.765685	726.25
1402.294991	723.75
1402.824242	725.0
1403.353437	720.5
1403.882577	722.75
1404.411662	720.25
1404.940691	724.0
1405.469665	729.25
1405.998583	723.25
1406.527446	732.5
1407.056253	735.75
1407.585005	737.75
1408.113702	746.25
1408.642343	753.25
1409.170929	766.5
1409.69946	773.5
1410.227935	774.0
1410.756354	753.25
1411.284719	742.5
1411.813028	730.75
1412.341281	724.75
1412.869479	725.25
1413.397622	724.75
1413.92571	726.25
1414.453742	725.25
1414.981718	716.75
1415.50964	732.0
1416.037506	723.25
1416.565316	718.75
1417.093072	720.25
1417.620772	721.75
1418.148416	717.5
1418.676005	719.5
1419.203539	715.0
1419.731018	717.0
1420.258441	719.25
1420.785809	714.5
1421.313122	721.25
1421.840379	724.75
1422.367582	716.5
1422.894728	718.5
1423.42182	723.0
1423.948856	716.0
1424.475837	713.75
1425.002762	719.0
1425.529633	717.25
1426.056448	715.25
1426.583207	719.0
1427.109912	716.5
1427.636561	716.75
1428.163155	719.25
1428.689694	714.75
1429.216177	722.0
1429.742605	717.25
1430.268978	718.5
1430.795296	713.75
1431.321558	719.0
1431.847765	716.5
1432.373917	711.75
1432.900014	716.25
1433.426056	713.75
1433.952042	717.0
1434.477973	718.5
1435.003849	718.25
1435.529669	715.25
1436.055435	711.25
1436.581145	714.5
1437.1068	716.25
1437.632399	724.0
1438.157944	712.0
1438.683433	719.0
1439.208868	716.25
1439.734247	714.0
1440.25957	716.75
1440.784839	713.5
1441.310053	714.0
1441.835211	719.25
1442.360314	715.25
1442.885362	717.75
1443.410355	719.0
1443.935292	715.5
1444.460175	715.5
1444.985002	717.75
1445.509774	720.0
1446.034491	720.0
1446.559153	716.5
1447.08376	715.25
1447.608312	714.75
1448.132808	719.0
1448.65725	715.5
1449.181636	720.25
1449.705967	716.25
1450.230243	722.25
1450.754464	716.0
1451.27863	717.75
1451.802741	718.0
1452.326797	715.0
1452.850797	715.75
1453.374743	715.5
1453.898633	721.25
1454.422468	714.0
1454.946249	719.25
1455.469974	716.0
1455.993644	719.25
1456.517259	717.25
1457.040819	717.75
1457.564324	718.0
1458.087773	718.75
1458.611168	717.75
1459.134508	720.0
1459.657793	718.0
1460.181022	718.0
1460.704197	715.5
1461.227316	714.75
1461.750381	717.75
1462.27339	715.5
1462.796345	731.5
1463.842089	721.25
1464.364878	719.75
1464.887613	716.5
1465.410292	714.25
1465.932916	717.0
1466.455486	718.0
1466.978	717.0
1467.50046	717.75
1468.022864	719.75
1468.545214	713.0
1469.067508	718.25
1469.589748	721.25
1470.111932	717.5
1470.634062	720.5
1471.156136	719.0
1471.678156	717.0
1472.20012	717.0
1472.72203	714.5
1473.243885	715.75
1473.765685	718.25
1474.28743	717.5
1474.80912	722.75
1475.330755	720.5
1475.852335	720.75
1476.37386	715.75
1476.89533	719.5
1477.416745	718.75
1477.938106	715.0
1478.459411	713.25
1478.980662	717.0
1479.501857	719.0
1480.022998	715.5
1480.544084	716.0
1481.065115	721.5
1481.586091	720.25
1482.107012	718.75
1482.627878	721.25
1483.14869	714.0
1483.669446	719.75
1484.190148	719.0
1484.710794	715.5
1485.231386	715.75
1485.751923	716.75
1486.272406	717.25
1486.792833	718.25
1487.313205	718.5
1487.833523	720.5
1488.353786	718.5
1488.873994	719.0
1489.394147	713.25
1489.914245	715.25
1490.434288	719.5
1490.954277	719.25
1491.474211	722.25
1491.99409	721.25
1492.513914	714.5
1493.033683	715.0
1493.553398	718.5
1494.073057	713.75
1494.592662	719.25
1495.112212	719.25
1495.631708	719.5
1496.151148	720.0
1496.670534	721.25
1497.189865	717.75
1497.709141	721.0
1498.228362	720.25
1498.747529	719.0
1499.266641	720.5
1499.785698	727.25
1500.3047	716.0
1500.823648	720.75
1501.34254	716.75
1501.861379	720.0
1502.380162	717.75
1502.89889	722.0
1503.417564	720.0
1503.936183	723.75
1504.454748	718.25
1504.973257	719.5
1505.491712	719.25
1506.010112	717.0
1506.528458	716.75
1507.046748	715.25
1507.564984	721.5
1508.083166	719.75
1508.601292	713.75
1509.119364	716.5
1509.637381	711.75
1510.155344	719.0
1510.673252	724.25
1511.191105	714.75
1511.708903	718.25
1512.226647	721.0
1512.744336	717.25
1513.261971	722.0
1513.77955	720.0
1514.297076	722.25
1514.814546	723.75
1515.331962	724.25
1515.849323	721.25
1516.366629	722.25
1516.883881	716.25
1517.401078	718.75
1517.918221	717.75
1518.435309	721.75
1518.952342	720.0
1519.469321	719.25
1519.986245	717.5
1520.503114	723.5
1521.019929	724.75
1521.536689	716.75
1522.053395	718.25
1522.570046	726.25
1523.086642	717.25
1523.603184	722.0
1524.119671	721.0
1524.636103	720.75
1525.152481	719.75
1525.668805	726.25
1526.185073	744.0
1526.701288	728.5
1527.217447	725.25
1527.733552	717.75
1528.249603	722.75
1528.765599	716.5
1529.28154	724.75
1529.797427	720.5
1530.313259	718.75
1530.829037	720.25
1531.34476	718.75
1531.860429	728.75
1532.376043	724.5
1532.891602	715.5
1533.407107	719.25
1533.922558	721.5
1534.437954	722.75
1534.953295	719.5
1535.468582	723.25
1535.983815	725.5
1536.498993	722.5
1537.014116	716.75
1537.529185	718.25
1538.044199	721.75
1538.559159	725.75
1539.074064	726.25
1539.588915	725.25
1540.103712	716.0
1540.618454	718.25
1541.133141	720.5
1541.647774	723.0
1542.162353	720.0
1542.676877	724.5
1543.191346	723.25
1543.705761	723.0
1544.220122	722.0
1544.734428	718.0
1545.24868	721.25
1545.762877	726.0
1546.27702	722.5
1546.791109	724.25
1547.305143	726.75
1547.819122	721.5
1548.333047	723.0
1548.846918	723.0
1549.360734	719.75
1549.874496	725.25
1550.388204	723.25
1550.901857	717.75
1551.415455	724.0
1551.929	720.75
1552.442489	727.75
1552.955925	721.5
1553.469306	723.0
1553.982632	724.75
1554.495905	723.0
1555.009123	723.5
1555.522286	721.5
1556.035395	719.75
1556.54845	724.5
1557.06145	722.5
1557.574396	723.75
1558.087288	718.0
1558.600125	722.5
1559.112908	722.75
1559.625637	725.25
1560.138311	721.75
1560.650931	724.0
1561.163497	731.75
1561.676008	727.0
1562.188465	724.5
1562.700867	727.0
1563.213216	725.25
1563.725509	723.75
1564.237749	725.5
1564.749934	720.0
1565.262065	727.25
1565.774142	724.5
1566.286164	724.5
1566.798132	725.75
1567.310046	729.75
1567.821906	730.75
1568.333711	727.75
1568.845462	726.0
1569.357158	724.5
1569.868801	724.25
1570.380389	727.25
1570.891922	725.0
1571.403402	724.25
1571.914827	727.0
1572.426198	727.5
1572.937515	722.5
1573.448777	726.75
1573.959985	723.0
1574.471139	719.25
1574.982239	723.75
1575.493285	723.0
1576.004276	724.25
1576.515213	723.0
1577.026096	726.25
1577.536924	724.5
1578.047698	724.25
1578.558419	726.0
1579.069084	726.0
1579.579696	720.75
1580.090254	720.75
1580.600757	726.5
1581.111206	720.25
1581.621601	723.75
1582.131941	724.0
1582.642228	725.75
1583.15246	721.75
1583.662638	723.75
1584.172762	719.25
1584.682832	720.75
1585.192847	721.25
1585.702809	722.5
1586.212716	724.25
1586.722569	723.0
1587.232368	726.0
1587.742113	724.75
1588.251803	723.25
1588.76144	732.0
1589.271022	728.25
1589.78055	726.5
1590.290024	724.0
1590.799444	732.25
1591.30881	723.75
1591.818121	727.75
1592.327379	725.75
