1042.980685	766.25
1043.547124	772.0
1044.113505	762.5
1044.679828	762.25
1045.246093	764.0
1045.8123	762.75
1046.378449	756.25
1046.94454	762.25
1047.510573	755.0
1048.076548	757.75
1048.642465	753.75
1049.208325	756.5
1049.774126	752.5
1050.339869	750.75
1050.905555	746.25
1051.471183	742.0
1052.036752	739.75
1052.602264	746.25
1053.167718	742.0
1053.733114	737.75
1054.298452	746.25
1054.863733	748.5
1055.428955	742.0
1055.994119	738.5
1056.559226	740.75
1057.124275	738.25
1057.689266	742.25
1058.254199	733.25
1058.819074	737.0
1059.383891	734.0
1059.94865	741.75
1060.513352	740.25
1061.077996	738.5
1061.642582	732.5
1062.20711	733.25
1062.77158	731.25
1063.335992	738.75
1063.900347	729.0
1064.464643	734.75
1065.028882	738.75
1065.593063	730.5
1066.157187	730.5
1066.721252	734.0
1067.28526	732.5
1067.84921	731.25
1068.413102	731.75
1068.976936	724.0
1069.540713	732.5
1070.104431	737.25
1070.668092	725.25
1071.231696	734.25
1071.795241	729.0
1072.358729	727.0
1072.922159	724.0
1073.485531	731.25
1074.048845	729.5
1074.612102	730.25
1075.175301	727.5
1075.738442	728.25
1076.301525	730.0
1076.864551	731.25
1077.427519	731.75
1077.990429	726.5
1078.553281	724.0
1079.116076	729.75
1079.678813	726.75
1080.241492	728.25
1080.804114	728.0
1081.366678	733.5
1081.929184	728.75
1082.491633	731.25
1083.054024	723.0
1083.616357	728.25
1084.178632	731.5
1084.74085	725.75
1085.30301	734.75
1085.865113	728.5
1086.427158	729.25
1086.989145	726.0
1087.551074	726.5
1088.112946	725.75
1088.67476	726.25
1089.236517	731.0
1089.798216	725.5
1090.359857	728.0
1090.92144	726.75
1091.482966	726.5
1092.044435	728.75
1092.605845	721.75
1093.167199	726.0
1093.728494	726.75
1094.289732	725.5
1094.850912	728.25
1095.412035	736.25
1095.9731	723.25
1096.534107	721.25
1097.095057	728.75
1097.65595	718.75
1098.216784	723.75
1098.777561	725.5
1099.338281	715.0
1099.898943	722.75
1100.459547	722.5
1101.020094	722.0
1101.580584	726.0
1102.141015	722.0
1102.701389	719.0
1103.261706	714.25
1103.821965	725.0
1104.382167	719.75
1104.942311	719.25
1105.502397	718.75
1106.062426	720.75
1106.622398	720.0
1107.182312	718.75
1107.742168	721.75
1108.301967	720.0
1108.861708	718.75
1109.421392	719.75
1109.981019	720.5
1110.540587	721.5
1111.100099	719.25
1111.659553	714.25
1112.218949	716.25
1112.778288	718.0
1113.33757	713.25
1113.896794	715.75
1114.45596	717.25
1115.015069	717.25
1115.574121	714.0
1116.133115	713.75
1116.692052	714.5
1117.250931	710.0
1117.809753	712.0
1118.368517	716.5
1118.927224	716.25
1119.485873	712.75
1120.044465	715.5
1120.603	712.75
1121.161477	715.25
1121.719897	718.25
1122.278259	718.0
1122.836564	712.25
1123.394812	716.5
1123.953002	709.75
1124.511135	708.0
1125.06921	711.5
1125.627228	715.0
1126.185189	715.0
1126.743092	715.25
1127.300938	715.0
1127.858726	714.75
1128.416457	715.0
1128.974131	708.75
1129.531748	710.5
1130.089307	710.5
1130.646808	710.5
1131.204252	714.75
1131.761639	713.0
1132.318969	712.25
1132.876241	710.5
1133.433456	714.5
1133.990614	714.0
1134.547714	706.75
1135.104757	710.25
1135.661743	712.25
1136.218671	713.75
1136.775542	713.75
1137.332356	706.0
1137.889112	718.5
1138.445811	716.25
1139.002453	713.5
1139.559037	709.5
1140.115565	702.75
1140.672035	711.5
1141.228447	709.25
1141.784803	710.75
1142.341101	710.25
1142.897342	716.5
1143.453525	714.5
1144.009651	710.25
1144.565721	713.0
1145.121732	714.25
1145.677687	709.75
1146.233584	707.25
1146.789424	707.5
1147.345207	712.0
1147.900933	710.75
1148.456601	713.25
1149.012212	712.25
1149.567766	707.75
1150.123263	711.0
1150.678702	709.25
1151.234085	711.0
1151.78941	708.75
1152.344678	707.25
1152.899888	710.0
1153.455042	707.5
1154.010138	710.5
1154.565177	707.5
1155.120159	709.0
1155.675084	706.0
1156.229951	705.75
1156.784762	707.75
1157.339515	710.75
1157.894211	702.75
1158.44885	708.5
1159.003432	709.5
1159.557956	709.75
1160.112424	708.75
1160.666834	705.75
1161.221187	709.75
1161.775483	705.75
1162.329722	707.75
1162.883904	706.25
1163.438029	705.5
1163.992096	705.75
1164.546107	713.75
1165.10006	710.0
1165.653956	703.25
1166.207795	711.0
1166.761577	710.25
1167.315302	706.0
1167.86897	707.75
1168.422581	708.5
1168.976134	709.5
1169.529631	705.5
1170.08307	708.0
1170.636453	700.25
1171.189778	710.5
1171.743046	710.5
1172.296257	704.25
1172.849412	707.75
1173.402509	710.0
1173.955549	704.25
1174.508532	709.75
1175.061458	703.75
1175.614327	704.25
1176.167138	705.0
1176.719893	706.25
1177.272591	700.0
1177.825232	706.25
1178.377816	706.25
1178.930342	703.5
1179.482812	700.75
1180.035225	701.75
1180.587581	701.25
1181.139879	701.5
1181.692121	707.25
1182.244306	706.0
1182.796434	702.5
1183.348504	704.5
1183.900518	705.75
1184.452475	702.25
1185.004375	700.0
1185.556218	699.25
1186.108004	702.0
1186.659733	703.5
1187.211405	701.0
1187.76302	699.25
1188.314578	702.5
1188.866079	704.5
1189.417523	703.5
1189.96891	703.0
1190.520241	704.25
1191.071514	701.0
1191.622731	703.25
1192.17389	702.5
1192.724993	701.75
1193.276039	726.75
1193.827027	701.5
1194.377959	704.75
1194.928834	702.75
1195.479653	703.75
1196.030414	700.75
1196.581118	707.0
1197.131766	702.25
1197.682356	698.25
1198.23289	705.0
1198.783367	703.0
1199.333786	702.0
1199.88415	700.25
1200.434456	704.0
1200.984705	697.25
1201.534898	705.75
1202.085033	701.0
1202.635112	702.0
1203.185134	701.0
1203.735099	701.75
1204.285007	704.5
1204.834859	697.25
1205.384653	702.5
1205.934391	705.25
1206.484072	701.0
1207.033696	704.25
1207.583263	703.75
1208.132774	698.25
1208.682228	700.5
1209.231624	703.25
1209.780965	700.75
1210.330248	701.5
1210.879474	703.5
1211.428644	703.25
1211.977757	703.0
1212.526813	702.5
1213.075813	703.75
1213.624755	701.25
1214.173641	701.5
1214.72247	703.5
1215.271242	704.25
1215.819958	697.0
1216.368617	707.25
1216.917219	698.75
1217.465764	701.5
1218.014253	701.25
1218.562685	703.0
1219.11106	701.5
1219.659378	703.75
1220.20764	702.25
1220.755845	701.0
1221.303993	699.5
1221.852085	701.0
1222.400119	699.5
1222.948097	697.75
1223.496019	698.75
1224.043883	704.0
1224.591691	703.75
1225.139443	701.0
1225.687137	697.25
1226.234775	703.5
1226.782357	700.0
1227.329881	707.25
1227.877349	698.75
1228.42476	697.75
1228.972115	701.0
1229.519413	697.25
1230.066654	701.75
1230.613839	704.75
1231.160967	702.5
1231.708038	705.5
1232.255053	698.25
1232.802011	701.5
1233.348912	701.0
1233.895757	700.5
1234.442545	699.0
1234.989277	702.75
1235.535951	699.75
1236.08257	699.5
1236.629131	703.75
1237.175636	706.25
1237.722085	699.25
1238.268477	700.75
1238.814812	700.75
1239.361091	698.5
1239.907313	699.0
1240.453478	699.0
1240.999587	696.0
1241.54564	702.25
1242.091636	702.5
1242.637575	699.0
1243.183457	700.0
1243.729284	698.75
1244.275053	698.0
1244.820766	701.0
1245.366423	702.75
1245.912022	697.75
1246.457566	700.25
1247.003053	703.0
1247.548483	702.5
1248.093857	706.0
1248.639174	697.5
1249.184435	702.0
1249.729639	699.75
1250.274787	702.5
1250.819878	699.0
1251.364912	700.75
1251.909891	703.25
1252.454812	702.75
1252.999677	702.75
1253.544486	701.75
1254.089238	702.25
1254.633934	701.75
1255.178573	696.5
1255.723156	702.25
1256.267682	699.5
1256.812152	705.0
1257.356565	701.75
1257.900922	700.25
1258.445223	698.5
1258.989467	701.25
1259.533654	702.0
1260.077785	717.25
1260.62186	706.25
1261.165878	700.75
1261.70984	696.75
1262.253745	702.25
1262.797594	701.25
1263.341386	702.5
1263.885123	704.0
1264.428802	704.0
1264.972425	711.0
1265.515992	726.75
1266.059503	743.0
1266.602957	717.0
1267.146354	706.25
1267.689696	702.25
1268.23298	705.25
1268.776209	703.75
1269.319381	704.5
1269.862497	705.0
1270.405556	699.5
1270.948559	700.5
1271.491506	703.0
1272.034396	700.0
1272.57723	703.25
1273.120007	701.25
1273.662728	704.75
1274.205393	702.75
1274.748002	704.25
1275.290554	701.0
1275.83305	696.75
1276.375489	704.0
1276.917872	701.75
1277.460199	704.0
1278.00247	700.25
1278.544684	703.5
1279.086842	699.5
1279.628943	701.5
1280.170989	703.25
1280.712978	698.0
1281.25491	699.0
1281.796787	704.25
1282.338607	702.0
1282.880371	701.5
1283.422078	704.75
1283.963729	709.0
1284.505324	711.75
1285.046863	737.25
1285.588345	883.0
1286.129772	1209.25
1286.671142	1023.25
1287.212455	763.0
1287.753713	717.0
1288.294914	713.5
1288.836059	703.25
1289.377147	704.0
1289.91818	703.25
1290.459156	700.5
1291.000076	702.25
1291.54094	699.25
1292.081747	698.0
1292.622499	703.25
1293.163194	702.25
1293.703833	706.0
1294.244415	706.0
1294.784942	698.0
1295.325412	699.75
1295.865826	705.0
1296.406184	699.0
1296.946486	702.25
1297.486731	701.5
1298.026921	702.75
1298.567054	705.75
1299.107131	699.5
1299.647152	697.0
1300.187116	697.0
1300.727025	701.0
1301.266877	700.5
1301.806673	701.25
1302.346413	697.75
1302.886097	695.0
1303.425725	703.75
1303.965297	701.5
1304.504812	705.5
1305.044272	703.75
1305.583675	699.5
1306.123022	701.25
1306.662313	701.25
1307.201548	697.75
1307.740727	699.0
1308.279849	699.5
1308.818916	700.25
1309.357926	701.75
1309.896881	700.5
1310.435779	697.0
1310.974621	697.0
1311.513407	697.5
1312.052137	698.75
1312.590811	701.5
1313.129429	696.75
1313.667991	698.25
1314.206497	700.25
1314.744946	695.0
1315.28334	699.5
1315.821678	697.75
1316.359959	698.0
1316.898184	697.0
1317.436354	694.75
1317.974467	701.25
1318.512525	701.5
1319.050526	698.25
1319.588471	695.0
1320.12636	697.25
1320.664194	697.25
1321.201971	695.5
1321.739692	697.0
1322.277357	699.0
1322.814967	698.25
1323.35252	697.0
1323.890017	702.25
1324.427458	701.0
1324.964843	699.0
1325.502173	698.75
1326.039446	698.0
1326.576663	696.5
1327.113824	694.25
1327.65093	698.25
1328.187979	698.5
1328.724972	698.75
1329.26191	700.0
1329.798791	697.5
1330.335617	694.75
1330.872386	697.0
1331.4091	697.25
1331.945758	698.0
1332.48236	696.25
1333.018905	698.5
1333.555395	696.25
1334.091829	701.25
1334.628207	696.25
1335.164529	697.0
1335.700796	697.75
1336.237006	701.5
1336.77316	701.0
1337.309259	699.0
1337.845301	697.0
1338.381288	700.5
1338.917219	697.75
1339.453094	691.75
1339.988913	695.5
1340.524676	698.0
1341.060383	696.5
1341.596034	697.5
1342.13163	695.75
1342.66717	693.25
1343.202653	696.0
1343.738081	695.25
1344.273453	695.25
1344.80877	696.75
1345.34403	697.75
1345.879235	697.75
1346.414383	696.5
1346.949476	699.75
1347.484513	696.75
1348.019494	695.75
1348.55442	696.0
1349.089289	696.0
1349.624103	700.0
1350.158861	697.5
1350.693563	698.75
1351.228209	700.0
1351.7628	700.5
1352.297334	699.75
1352.831813	697.5
1353.366236	698.0
1353.900604	698.5
1354.434915	700.75
1354.969171	700.0
1355.503371	698.75
1356.037515	700.0
1356.571604	698.75
1357.105636	700.5
1357.639613	695.0
1358.173535	700.0
1358.7074	696.75
1359.24121	698.75
1359.774964	695.5
1360.308662	697.75
1360.842304	699.75
1361.375891	696.75
1361.909422	696.5
1362.442897	698.0
1362.976317	699.5
1363.50968	699.25
1364.042989	700.5
1364.576241	702.0
1365.109438	700.25
1365.642579	696.0
1366.175664	696.75
1366.708693	704.25
1367.241667	702.25
1367.774585	699.0
1368.307448	697.25
1368.840255	697.5
1369.373006	697.75
1369.905701	699.75
1370.438341	703.25
1370.970925	714.5
1371.503454	698.0
1372.035926	697.0
1372.568344	699.25
1373.100705	695.0
1373.633011	701.0
1374.165261	698.0
1374.697456	695.5
1375.229595	697.0
1375.761678	696.25
1376.293705	695.75
1376.825677	691.25
1377.357594	698.75
1377.889455	699.5
1378.42126	695.25
1378.953009	703.5
1379.484703	700.25
1380.016342	695.75
1380.547924	695.5
1381.079452	697.5
1381.610923	695.0
1382.142339	700.25
1382.673699	693.75
1383.205004	700.25
1383.736253	696.75
1384.267447	700.75
1384.798585	703.5
1385.329668	697.0
1385.860695	700.75
1386.391666	706.5
1386.922582	705.5
1387.453442	712.0
1387.984247	726.75
1388.514996	816.0
1389.04569	1316.25
1389.576328	1434.75
1390.10691	843.25
1390.637437	727.0
1391.167909	712.5
1391.698325	703.5
1392.228685	705.0
1392.75899	696.5
1393.28924	696.25
1393.819434	696.75
1394.349572	699.5
1394.879655	697.25
1395.409683	698.5
1395.939655	697.75
1396.469571	695.5
1396.999432	700.25
1397.529237	697.5
1398.058987	695.75
1398.588682	696.5
1399.118321	699.25
1399.647905	695.5
1400.177433	695.0
1400.706906	701.75
1401.236323	702.75
1401.765685	696.25
1402.294991	694.0
1402.824242	693.5
1403.353437	693.75
1403.882577	700.0
1404.411662	696.5
1404.940691	698.25
1405.469665	695.0
1405.998583	698.25
1406.527446	697.25
1407.056253	701.75
1407.585005	697.25
1408.113702	696.75
1408.642343	699.75
1409.170929	700.0
1409.69946	709.25
1410.227935	738.5
1410.756354	767.0
1411.284719	725.5
1411.813028	703.75
1412.341281	701.5
1412.869479	694.75
1413.397622	696.5
1413.92571	699.5
1414.453742	698.0
1414.981718	696.0
1415.50964	712.5
1416.037506	700.0
1416.565316	702.0
1417.093072	695.75
1417.620772	698.25
1418.148416	697.25
1418.676005	697.25
1419.203539	693.25
1419.731018	694.0
1420.258441	698.25
1420.785809	698.5
1421.313122	697.0
1421.840379	696.5
1422.367582	696.0
1422.894728	695.25
1423.42182	697.75
1423.948856	696.0
1424.475837	698.75
1425.002762	697.5
1425.529633	698.5
1426.056448	694.5
1426.583207	702.0
1427.109912	695.75
1427.636561	702.5
1428.163155	696.0
1428.689694	697.0
1429.216177	695.25
1429.742605	696.5
1430.268978	697.25
1430.795296	693.5
1431.321558	696.0
1431.847765	698.5
1432.373917	692.0
1432.900014	695.0
1433.426056	694.75
1433.952042	698.25
1434.477973	699.5
1435.003849	693.5
1435.529669	696.5
1436.055435	700.5
1436.581145	698.75
1437.1068	693.5
1437.632399	697.25
1438.157944	697.75
1438.683433	695.5
1439.208868	696.25
1439.734247	694.75
1440.25957	697.0
1440.784839	695.0
1441.310053	697.25
1441.835211	697.75
1442.360314	695.25
1442.885362	697.5
1443.410355	694.5
1443.935292	699.75
1444.460175	694.75
1444.985002	697.5
1445.509774	694.0
1446.034491	696.75
1446.559153	699.0
1447.08376	697.75
1447.608312	693.25
1448.132808	697.25
1448.65725	694.25
1449.181636	695.0
1449.705967	692.0
1450.230243	696.5
1450.754464	694.25
1451.27863	696.5
1451.802741	698.75
1452.326797	696.5
1452.850797	700.25
1453.374743	700.0
1453.898633	693.25
1454.422468	695.75
1454.946249	695.0
1455.469974	694.5
1455.993644	694.25
1456.517259	693.25
1457.040819	694.25
1457.564324	692.75
1458.087773	695.0
1458.611168	694.75
1459.134508	695.5
1459.657793	693.0
1460.181022	696.5
1460.704197	695.5
1461.227316	694.5
1461.750381	694.0
1462.27339	699.0
1462.796345	702.25
1463.319244	719.5
1463.842089	699.25
1464.364878	694.75
1464.887613	693.75
1465.410292	689.75
1465.932916	694.25
1466.455486	692.5
1466.978	694.25
1467.50046	693.75
1468.022864	691.75
1468.545214	695.25
1469.067508	694.5
1469.589748	697.25
1470.111932	697.75
1470.634062	698.5
1471.156136	693.5
1471.678156	699.5
1472.20012	697.25
1472.72203	692.25
1473.243885	695.5
1473.765685	696.25
1474.28743	690.25
1474.80912	692.5
1475.330755	694.5
1475.852335	695.25
1476.37386	694.75
1476.89533	699.0
1477.416745	693.25
1477.938106	695.25
1478.459411	694.25
1478.980662	696.5
1479.501857	691.75
1480.022998	695.5
1480.544084	693.75
1481.065115	695.25
1481.586091	696.25
1482.107012	698.0
1482.627878	695.5
1483.14869	692.0
1483.669446	694.25
1484.190148	695.5
1484.710794	692.25
1485.231386	697.25
1485.751923	699.5
1486.272406	695.75
1486.792833	692.5
1487.313205	693.5
1487.833523	693.5
1488.353786	694.5
1488.873994	696.0
1489.394147	698.25
1489.914245	693.25
1490.434288	696.75
1490.954277	694.5
1491.474211	695.5
1491.99409	694.5
1492.513914	693.75
1493.033683	699.0
1493.553398	697.0
1494.073057	694.75
1494.592662	695.25
1495.112212	693.0
1495.631708	698.0
1496.151148	697.0
1496.670534	693.25
1497.189865	695.5
1497.709141	695.25
1498.228362	695.75
1498.747529	691.5
1499.266641	689.5
1499.785698	704.25
1500.3047	691.25
1500.823648	691.0
1501.34254	693.5
1501.861379	693.25
1502.380162	692.0
1502.89889	693.0
1503.417564	690.75
1503.936183	695.0
1504.454748	693.75
1504.973257	691.0
1505.491712	695.25
1506.010112	691.0
1506.528458	695.0
1507.046748	693.0
1507.564984	694.0
1508.083166	694.25
1508.601292	694.75
1509.119364	693.5
1509.637381	694.5
1510.155344	693.5
1510.673252	703.0
1511.191105	693.0
1511.708903	694.75
1512.226647	693.25
1512.744336	692.25
1513.261971	696.25
1513.77955	691.25
1514.297076	695.0
1514.814546	693.75
1515.331962	692.0
1515.849323	694.0
1516.366629	692.0
1516.883881	694.25
1517.401078	693.0
1517.918221	694.5
1518.435309	695.0
1518.952342	690.75
1519.469321	693.5
1519.986245	692.25
1520.503114	695.25
1521.019929	696.75
1521.536689	692.5
1522.053395	691.5
1522.570046	690.25
1523.086642	694.75
1523.603184	695.5
1524.119671	691.75
1524.636103	695.75
1525.152481	693.75
1525.668805	694.5
1526.185073	709.25
1526.701288	701.0
1527.217447	694.25
1527.733552	695.0
1528.249603	695.25
1528.765599	693.75
1529.28154	689.75
1529.797427	697.25
1530.313259	697.25
1530.829037	686.75
1531.34476	693.75
1531.860429	693.0
1532.376043	691.75
1532.891602	694.5
1533.407107	692.5
1533.922558	686.75
1534.437954	699.25
1534.953295	694.25
1535.468582	690.75
1535.983815	692.25
1536.498993	695.75
1537.014116	698.25
1537.529185	693.5
1538.044199	693.25
1538.559159	693.75
1539.074064	692.25
1539.588915	695.25
1540.103712	693.0
1540.618454	689.5
1541.133141	694.0
1541.647774	690.25
1542.162353	695.75
1542.676877	696.25
1543.191346	692.0
1543.705761	692.5
1544.220122	695.5
1544.734428	693.0
1545.24868	692.5
1545.762877	689.75
1546.27702	693.0
1546.791109	695.0
1547.305143	693.75
1547.819122	690.75
1548.333047	694.5
1548.846918	693.5
1549.360734	700.0
1549.874496	697.5
1550.388204	695.5
1550.901857	693.25
1551.415455	690.75
1551.929	695.25
1552.442489	692.25
1552.955925	692.0
1553.469306	694.75
1553.982632	693.25
1554.495905	697.0
1555.009123	696.5
1555.522286	694.5
1556.035395	698.25
1556.54845	694.75
1557.06145	688.75
1557.574396	698.75
1558.087288	691.5
1558.600125	693.75
1559.112908	693.75
1559.625637	693.5
1560.138311	697.0
1560.650931	689.75
1561.163497	695.5
1561.676008	696.5
1562.188465	694.0
1562.700867	695.25
1563.213216	694.75
1563.725509	691.5
1564.237749	693.25
1564.749934	696.0
1565.262065	699.5
1565.774142	698.75
1566.286164	694.25
1566.798132	697.75
1567.310046	691.25
1567.821906	693.0
1568.333711	696.5
1568.845462	694.25
1569.357158	695.25
1569.868801	694.5
1570.380389	694.75
1570.891922	691.0
1571.403402	696.75
1571.914827	694.75
1572.426198	694.75
1572.937515	695.75
1573.448777	695.75
1573.959985	690.25
1574.471139	695.0
1574.982239	696.75
1575.493285	694.75
1576.004276	696.75
1576.515213	694.75
1577.026096	696.0
1577.536924	692.75
1578.047698	692.75
1578.558419	698.0
1579.069084	697.75
1579.579696	692.0
1580.090254	697.0
1580.600757	696.25
1581.111206	692.0
1581.621601	695.75
1582.131941	698.5
1582.642228	692.75
1583.15246	696.5
1583.662638	696.25
1584.172762	691.0
1584.682832	696.25
1585.192847	693.75
1585.702809	694.25
1586.212716	696.5
1586.722569	689.75
1587.232368	694.0
1587.742113	695.75
1588.251803	694.0
1588.76144	693.5
1589.271022	692.25
1589.78055	690.75
1590.290024	693.25
1590.799444	691.25
1591.30881	692.75
1591.818121	699.5
