1042.414189	727.5
1042.980685	724.0
1043.547124	723.75
1044.113505	719.0
1044.679828	716.75
1045.246093	719.5
1045.8123	719.75
1046.378449	710.0
1046.94454	713.25
1047.510573	711.75
1048.076548	711.0
1048.642465	707.5
1049.208325	708.0
1049.774126	707.25
1050.339869	706.25
1050.905555	709.5
1051.471183	706.5
1052.036752	709.5
1052.602264	703.0
1053.167718	703.25
1053.733114	705.75
1054.298452	702.75
1054.863733	707.25
1055.428955	703.25
1055.994119	698.5
1056.559226	699.75
1057.124275	706.75
1057.689266	700.5
1058.254199	697.5
1058.819074	702.5
1059.383891	698.75
1059.94865	698.25
1060.513352	698.25
1061.077996	700.0
1061.642582	699.75
1062.20711	696.0
1062.77158	697.5
1063.335992	698.25
1063.900347	700.75
1064.464643	697.0
1065.028882	697.25
1065.593063	698.5
1066.157187	696.0
1066.721252	697.25
1067.28526	696.75
1067.84921	698.25
1068.413102	696.25
1068.976936	696.25
1069.540713	696.0
1070.104431	701.75
1070.668092	694.75
1071.231696	701.5
1071.795241	695.0
1072.358729	698.75
1072.922159	699.5
1073.485531	699.5
1074.048845	696.25
1074.612102	696.25
1075.175301	694.5
1075.738442	695.75
1076.301525	693.5
1076.864551	697.0
1077.427519	692.75
1077.990429	698.0
1078.553281	696.75
1079.116076	697.5
1079.678813	698.5
1080.241492	697.25
1080.804114	697.5
1081.366678	696.75
1081.929184	697.0
1082.491633	701.75
1083.054024	697.25
1083.616357	699.25
1084.178632	702.5
1084.74085	698.5
1085.30301	702.5
1085.865113	699.75
1086.427158	698.5
1086.989145	699.0
1087.551074	702.75
1088.112946	699.0
1088.67476	698.5
1089.236517	703.0
1089.798216	699.75
1090.359857	703.0
1090.92144	702.0
1091.482966	700.5
1092.044435	707.0
1092.605845	700.75
1093.167199	705.25
1093.728494	703.0
1094.289732	702.25
1094.850912	700.0
1095.412035	714.75
1095.9731	702.75
1096.534107	698.5
1097.095057	712.5
1097.65595	702.25
1098.216784	700.25
1098.777561	696.75
1099.338281	697.5
1099.898943	696.5
1100.459547	697.25
1101.020094	695.5
1101.580584	692.5
1102.141015	694.5
1102.701389	695.5
1103.261706	696.0
1103.821965	695.0
1104.382167	693.25
1104.942311	694.0
1105.502397	687.25
1106.062426	691.0
1106.622398	691.25
1107.182312	689.25
1107.742168	690.75
1108.301967	696.5
1108.861708	686.0
1109.421392	692.5
1109.981019	690.75
1110.540587	688.75
1111.100099	686.5
1111.659553	688.0
1112.218949	691.25
1112.778288	689.75
1113.33757	690.0
1113.896794	691.75
1114.45596	690.75
1115.015069	687.0
1115.574121	692.75
1116.133115	690.5
1116.692052	691.0
1117.250931	690.25
1117.809753	687.25
1118.368517	687.25
1118.927224	690.0
1119.485873	690.25
1120.044465	688.25
1120.603	694.25
1121.161477	687.5
1121.719897	692.5
1122.278259	688.25
1122.836564	685.75
1123.394812	690.25
1123.953002	688.75
1124.511135	687.5
1125.06921	689.5
1125.627228	685.0
1126.185189	691.25
1126.743092	690.75
1127.300938	683.25
1127.858726	688.75
1128.416457	689.75
1128.974131	688.75
1129.531748	688.5
1130.089307	690.0
1130.646808	688.5
1131.204252	687.75
1131.761639	690.75
1132.318969	686.75
1132.876241	688.0
1133.433456	686.5
1133.990614	686.5
1134.547714	688.5
1135.104757	687.5
1135.661743	688.5
1136.218671	687.25
1136.775542	689.0
1137.332356	683.75
1137.889112	689.75
1138.445811	686.75
1139.002453	689.0
1139.559037	690.25
1140.115565	688.5
1140.672035	686.5
1141.228447	690.75
1141.784803	686.25
1142.341101	683.5
1142.897342	689.25
1143.453525	684.75
1144.009651	687.25
1144.565721	694.25
1145.121732	687.0
1145.677687	688.75
1146.233584	685.75
1146.789424	687.0
1147.345207	689.0
1147.900933	688.25
1148.456601	688.5
1149.012212	690.0
1149.567766	688.5
1150.123263	687.25
1150.678702	691.0
1151.234085	686.75
1151.78941	689.5
1152.344678	684.25
1152.899888	685.75
1153.455042	686.25
1154.010138	689.5
1154.565177	687.75
1155.120159	689.75
1155.675084	686.75
1156.229951	692.75
1156.784762	689.25
1157.339515	687.25
1157.894211	689.25
1158.44885	691.0
1159.003432	683.25
1159.557956	690.0
1160.112424	686.25
1160.666834	690.75
1161.221187	689.5
1161.775483	691.0
1162.329722	682.0
1162.883904	684.75
1163.438029	687.25
1163.992096	686.5
1164.546107	688.25
1165.10006	688.5
1165.653956	682.25
1166.207795	687.0
1166.761577	688.75
1167.315302	686.25
1167.86897	684.75
1168.422581	686.0
1168.976134	684.25
1169.529631	690.0
1170.08307	687.5
1170.636453	686.25
1171.189778	684.75
1171.743046	688.5
1172.296257	685.75
1172.849412	686.75
1173.402509	685.0
1173.955549	685.5
1174.508532	686.5
1175.061458	687.0
1175.614327	685.5
1176.167138	683.0
1176.719893	684.0
1177.272591	689.25
1177.825232	689.75
1178.377816	687.0
1178.930342	686.75
1179.482812	686.0
1180.035225	687.25
1180.587581	688.25
1181.139879	685.25
1181.692121	684.75
1182.244306	689.0
1182.796434	686.5
1183.348504	684.25
1183.900518	683.75
1184.452475	684.75
1185.004375	688.0
1185.556218	687.25
1186.108004	686.0
1186.659733	689.25
1187.211405	687.25
1187.76302	688.5
1188.314578	684.75
1188.866079	684.25
1189.417523	686.25
1189.96891	683.25
1190.520241	688.25
1191.071514	685.0
1191.622731	683.25
1192.17389	689.5
1192.724993	683.25
1193.276039	705.75
1193.827027	684.25
1194.377959	687.5
1194.928834	686.5
1195.479653	686.5
1196.030414	686.75
1196.581118	685.5
1197.131766	688.5
1197.682356	685.75
1198.23289	687.0
1198.783367	684.75
1199.333786	688.0
1199.88415	686.5
1200.434456	686.75
1200.984705	687.25
1201.534898	685.25
1202.085033	687.75
1202.635112	683.75
1203.185134	681.5
1203.735099	684.5
1204.285007	688.5
1204.834859	686.5
1205.384653	690.25
1205.934391	686.25
1206.484072	684.25
1207.033696	688.5
1207.583263	686.25
1208.132774	686.75
1208.682228	686.0
1209.231624	681.75
1209.780965	685.25
1210.330248	685.0
1210.879474	685.25
1211.428644	685.0
1211.977757	687.0
1212.526813	684.75
1213.075813	685.75
1213.624755	683.25
1214.173641	687.25
1214.72247	685.75
1215.271242	687.25
1215.819958	686.0
1216.368617	687.25
1216.917219	683.0
1217.465764	683.75
1218.014253	687.25
1218.562685	687.75
1219.11106	686.0
1219.659378	685.75
1220.755845	692.5
1221.303993	685.5
1221.852085	685.5
1222.400119	689.5
1222.948097	686.25
1223.496019	685.5
1224.043883	687.75
1224.591691	684.0
1225.139443	688.0
1225.687137	686.0
1226.234775	687.5
1226.782357	681.25
1227.329881	686.25
1227.877349	684.25
1228.42476	686.0
1228.972115	687.5
1229.519413	688.5
1230.066654	686.25
1230.613839	686.5
1231.160967	684.25
1231.708038	687.75
1232.255053	685.5
1232.802011	686.5
1233.348912	684.75
1233.895757	690.0
1234.442545	682.75
1234.989277	687.5
1235.535951	683.5
1236.08257	683.75
1236.629131	687.25
1237.175636	687.25
1237.722085	685.25
1238.268477	688.25
1238.814812	681.75
1239.361091	687.0
1239.907313	685.5
1240.453478	685.5
1240.999587	686.75
1241.54564	684.5
1242.091636	688.75
1242.637575	686.75
1243.183457	683.0
1243.729284	686.75
1244.275053	686.5
1244.820766	685.5
1245.366423	684.0
1245.912022	684.25
1246.457566	687.0
1247.003053	684.25
1247.548483	685.25
1248.093857	688.0
1248.639174	684.5
1249.184435	689.25
1249.729639	684.75
1250.274787	686.5
1250.819878	685.75
1251.364912	687.5
1251.909891	682.5
1252.454812	684.75
1252.999677	685.75
1253.544486	683.75
1254.089238	685.5
1254.633934	686.25
1255.178573	686.25
1255.723156	683.25
1256.267682	685.0
1256.812152	686.25
1257.356565	688.0
1257.900922	683.0
1258.445223	686.25
1258.989467	684.25
1259.533654	686.25
1260.077785	695.0
1260.62186	686.5
1261.165878	684.25
1261.70984	684.5
1262.253745	683.25
1262.797594	689.75
1263.341386	686.5
1263.885123	684.5
1264.428802	685.25
1264.972425	685.25
1265.515992	688.0
1266.059503	686.5
1266.602957	687.75
1267.146354	682.75
1267.689696	687.25
1268.23298	685.75
1268.776209	687.0
1269.319381	685.5
1269.862497	683.0
1270.405556	685.0
1270.948559	683.0
1271.491506	688.25
1272.034396	689.75
1272.57723	684.0
1273.120007	684.75
1273.662728	682.0
1274.205393	683.5
1274.748002	688.5
1275.290554	689.5
1275.83305	686.5
1276.375489	683.75
1276.917872	682.25
1277.460199	689.5
1278.00247	682.0
1278.544684	684.5
1279.086842	685.25
1279.628943	688.25
1280.170989	685.0
1280.712978	681.75
1281.25491	687.5
1281.796787	685.25
1282.338607	684.25
1282.880371	680.0
1283.422078	685.5
1283.963729	685.5
1284.505324	686.75
1285.046863	687.5
1285.588345	682.0
1286.129772	698.5
1286.671142	705.75
1287.212455	690.25
1287.753713	682.0
1288.294914	687.75
1288.836059	688.25
1289.377147	686.25
1289.91818	685.0
1290.459156	682.0
1291.000076	682.0
1291.54094	682.75
1292.081747	682.0
1292.622499	685.25
1293.163194	686.5
1293.703833	684.5
1294.244415	688.0
1294.784942	685.0
1295.325412	683.0
1295.865826	689.0
1296.406184	682.75
1296.946486	685.25
1297.486731	683.5
1298.026921	686.25
1298.567054	685.0
1299.107131	684.75
1299.647152	683.5
1300.187116	685.75
1300.727025	685.25
1301.266877	685.0
1301.806673	682.25
1302.346413	685.25
1302.886097	687.75
1303.425725	688.0
1303.965297	681.75
1304.504812	682.5
1305.044272	685.0
1305.583675	683.75
1306.123022	683.75
1306.662313	684.5
1307.201548	685.0
1307.740727	685.75
1308.279849	683.5
1308.818916	687.0
1309.357926	685.25
1309.896881	687.0
1310.435779	688.25
1310.974621	685.0
1311.513407	683.25
1312.052137	685.0
1312.590811	683.75
1313.129429	680.75
1313.667991	684.25
1314.206497	683.75
1314.744946	686.0
1315.28334	685.0
1315.821678	683.25
1316.359959	685.5
1316.898184	684.0
1317.436354	683.25
1317.974467	685.75
1318.512525	686.75
1319.050526	685.25
1319.588471	686.25
1320.12636	686.75
1320.664194	687.5
1321.201971	686.0
1321.739692	685.5
1322.277357	684.5
1322.814967	680.75
1323.35252	686.25
1323.890017	691.25
1324.427458	687.25
1324.964843	687.25
1325.502173	681.75
1326.039446	687.5
1326.576663	684.5
1327.113824	685.0
1327.65093	684.25
1328.187979	685.25
1328.724972	686.25
1329.26191	684.25
1329.798791	682.0
1330.335617	684.25
1330.872386	684.75
1331.4091	681.5
1331.945758	685.25
1332.48236	685.75
1333.018905	683.0
1333.555395	685.75
1334.091829	687.0
1334.628207	684.25
1335.164529	687.75
1335.700796	684.25
1336.237006	684.25
1336.77316	685.75
1337.309259	686.5
1337.845301	685.25
1338.381288	680.5
1338.917219	681.0
1339.453094	685.75
1339.988913	683.25
1340.524676	681.0
1341.060383	681.0
1341.596034	681.5
1342.13163	685.25
1342.66717	684.0
1343.202653	680.5
1343.738081	685.25
1344.273453	685.0
1344.80877	683.5
1345.34403	685.25
1345.879235	686.25
1346.414383	685.0
1346.949476	689.25
1347.484513	686.75
1348.019494	686.0
1348.55442	684.25
1349.089289	684.0
1349.624103	688.0
1350.158861	683.25
1350.693563	685.0
1351.228209	684.5
1351.7628	684.75
1352.297334	686.25
1352.831813	681.5
1353.366236	684.75
1353.900604	683.25
1354.434915	684.0
1354.969171	686.0
1355.503371	682.75
1356.037515	687.25
1356.571604	686.0
1357.105636	685.5
1357.639613	682.0
1358.173535	683.5
1358.7074	686.5
1359.24121	683.25
1359.774964	684.75
1360.308662	683.5
1360.842304	685.75
1361.375891	684.5
1361.909422	683.25
1362.442897	686.75
1362.976317	684.0
1363.50968	684.25
1364.042989	681.5
1364.576241	682.25
1365.109438	681.25
1365.642579	686.75
1366.175664	682.5
1366.708693	687.0
1367.241667	684.25
1367.774585	683.5
1368.307448	687.5
1368.840255	685.75
1369.373006	685.0
1369.905701	685.75
1370.438341	687.75
1370.970925	684.5
1371.503454	687.5
1372.035926	684.25
1372.568344	683.5
1373.100705	685.0
1373.633011	682.0
1374.165261	683.5
1374.697456	683.25
1375.229595	687.75
1375.761678	682.5
1376.293705	684.25
1376.825677	683.0
1377.357594	685.75
1377.889455	683.0
1378.42126	680.25
1378.953009	683.5
1379.484703	686.0
1380.016342	688.5
1380.547924	686.0
1381.079452	684.5
1381.610923	687.25
1382.142339	683.25
1382.673699	683.5
1383.205004	683.75
1383.736253	686.75
1384.267447	683.0
1384.798585	686.5
1385.329668	683.0
1385.860695	681.5
1386.391666	681.25
1386.922582	685.0
1387.453442	689.75
1387.984247	683.5
1388.514996	687.0
1389.04569	695.5
1389.576328	726.0
1390.10691	697.5
1390.637437	686.75
1391.167909	685.0
1391.698325	681.75
1392.228685	686.5
1392.75899	682.0
1393.28924	684.0
1393.819434	688.25
1394.349572	685.5
1394.879655	684.0
1395.409683	685.75
1395.939655	684.25
1396.469571	685.5
1396.999432	687.5
1397.529237	687.0
1398.058987	685.25
1398.588682	682.75
1399.118321	685.0
1399.647905	678.0
1400.177433	683.75
1400.706906	682.0
1401.236323	689.5
1401.765685	683.0
1402.294991	684.75
1402.824242	686.5
1403.353437	684.5
1403.882577	683.75
1404.411662	679.0
1404.940691	684.25
1405.469665	682.5
1405.998583	684.5
1406.527446	684.5
1407.056253	685.75
1407.585005	681.5
1408.113702	687.25
1408.642343	684.25
1409.170929	683.5
1409.69946	688.0
1410.227935	683.5
1410.756354	687.5
1411.284719	683.75
1411.813028	683.0
1412.341281	684.25
1412.869479	684.75
1413.397622	684.0
1413.92571	686.75
1414.453742	683.0
1414.981718	683.25
1415.50964	696.75
1416.037506	683.0
1416.565316	683.75
1417.093072	684.75
1417.620772	682.75
1418.148416	684.25
1418.676005	686.25
1419.203539	688.25
1419.731018	685.25
1420.258441	686.0
1420.785809	689.25
1421.313122	684.0
1421.840379	682.5
1422.367582	683.25
1422.894728	690.75
1423.42182	684.0
1423.948856	685.0
1424.475837	688.0
1425.002762	684.25
1425.529633	684.5
1426.056448	684.0
1426.583207	684.0
1427.109912	686.25
1427.636561	681.25
1428.163155	682.0
1428.689694	682.5
1429.216177	684.25
1429.742605	684.75
1430.268978	684.0
1430.795296	682.75
1431.321558	686.75
1431.847765	682.5
1432.373917	685.25
1432.900014	685.0
1433.426056	684.25
1433.952042	682.75
1434.477973	685.75
1435.003849	685.5
1435.529669	685.25
1436.055435	687.5
1436.581145	683.75
1437.1068	681.75
1437.632399	683.75
1438.157944	683.25
1438.683433	688.0
1439.208868	682.5
1439.734247	680.5
1440.25957	682.0
1440.784839	683.5
1441.310053	684.0
1441.835211	688.5
1442.360314	686.0
1442.885362	687.75
1443.410355	686.25
1443.935292	683.0
1444.460175	685.0
1444.985002	690.5
1445.509774	685.25
1446.034491	685.5
1446.559153	683.25
1447.08376	685.5
1447.608312	686.25
1448.132808	686.0
1448.65725	683.0
1449.181636	686.0
1449.705967	684.25
1450.230243	685.75
1450.754464	685.5
1451.27863	681.25
1451.802741	682.75
1452.326797	682.5
1452.850797	677.0
1453.374743	685.25
1453.898633	678.0
1454.422468	686.0
1454.946249	679.25
1455.469974	682.75
1455.993644	684.75
1456.517259	686.25
1457.040819	684.25
1457.564324	684.25
1458.087773	686.75
1458.611168	686.75
1459.134508	682.5
1459.657793	683.25
1460.181022	687.0
1460.704197	682.25
1461.227316	687.0
1461.750381	685.75
1462.27339	686.5
1462.796345	692.25
1463.842089	690.0
1464.364878	686.75
1464.887613	683.75
1465.410292	683.25
1465.932916	684.5
1466.455486	679.5
1466.978	686.75
1467.50046	685.25
1468.022864	685.25
1468.545214	684.5
1469.067508	687.5
1469.589748	685.75
1470.111932	686.75
1470.634062	682.5
1471.156136	680.0
1471.678156	683.0
1472.20012	683.75
1472.72203	688.25
1473.243885	685.0
1473.765685	684.0
1474.28743	684.5
1474.80912	684.5
1475.330755	684.5
1475.852335	684.5
1476.37386	681.0
1476.89533	682.5
1477.416745	685.0
1477.938106	683.25
1478.459411	681.5
1478.980662	685.0
1479.501857	687.5
1480.022998	684.0
1480.544084	682.5
1481.065115	681.75
1481.586091	680.5
1482.107012	686.0
1482.627878	688.25
1483.14869	682.5
1483.669446	686.25
1484.190148	681.25
1484.710794	684.25
1485.231386	683.0
1485.751923	683.0
1486.272406	684.0
1486.792833	684.0
1487.313205	685.25
1487.833523	682.75
1488.353786	687.0
1488.873994	685.0
1489.394147	684.5
1489.914245	685.75
1490.434288	684.75
1490.954277	685.0
1491.474211	683.5
1491.99409	682.75
1492.513914	682.5
1493.033683	682.75
1493.553398	683.0
1494.073057	687.5
1494.592662	683.75
1495.112212	682.5
1495.631708	686.5
1496.151148	686.0
1496.670534	683.25
1497.189865	682.75
1497.709141	683.5
1498.228362	682.0
1498.747529	684.75
1499.266641	684.5
1499.785698	696.25
1500.3047	684.75
1500.823648	686.0
1501.34254	684.75
1501.861379	680.75
1502.380162	685.5
1502.89889	679.0
1503.417564	681.25
1503.936183	685.75
1504.454748	684.5
1504.973257	682.0
1505.491712	688.75
1506.010112	685.0
1506.528458	686.75
1507.046748	681.5
1507.564984	683.25
1508.083166	684.5
1508.601292	682.25
1509.119364	684.0
1509.637381	682.25
1510.155344	680.25
1510.673252	690.5
1511.191105	683.25
1511.708903	682.5
1512.226647	685.0
1512.744336	684.25
1513.261971	682.0
1513.77955	683.75
1514.297076	684.25
1514.814546	681.25
1515.331962	683.0
1515.849323	681.25
1516.366629	681.75
1516.883881	683.0
1517.401078	685.75
1517.918221	683.25
1518.435309	684.5
1518.952342	688.25
1519.469321	683.25
1519.986245	684.25
1520.503114	683.75
1521.019929	681.5
1521.536689	682.0
1522.053395	681.5
1522.570046	681.75
1523.086642	683.5
1523.603184	682.0
1524.119671	682.75
1524.636103	685.0
1525.152481	685.5
1525.668805	687.0
1526.185073	707.25
1526.701288	691.25
1527.217447	686.75
1527.733552	684.0
1528.249603	684.25
1528.765599	684.0
1529.28154	687.25
1529.797427	682.5
1530.313259	685.75
1530.829037	683.75
1531.34476	683.5
1531.860429	681.75
1532.376043	682.75
1532.891602	686.0
1533.407107	684.75
1533.922558	684.5
1534.437954	687.75
1534.953295	688.5
1535.468582	688.25
1535.983815	681.25
1536.498993	681.5
1537.014116	680.25
1537.529185	684.0
1538.044199	683.5
1538.559159	687.75
1539.074064	680.5
1539.588915	677.75
1540.103712	685.5
1540.618454	685.75
1541.133141	684.75
1541.647774	685.0
1542.162353	682.25
1542.676877	688.5
1543.191346	683.5
1543.705761	682.5
1544.220122	685.5
1544.734428	685.75
1545.24868	682.75
1545.762877	684.75
1546.27702	685.25
1546.791109	684.5
1547.305143	687.0
1547.819122	684.0
1548.333047	679.75
1548.846918	682.0
1549.360734	684.0
1549.874496	685.25
1550.388204	683.25
1550.901857	682.75
1551.415455	679.75
1551.929	684.5
1552.442489	680.0
1552.955925	682.5
1553.469306	683.0
1553.982632	685.0
1554.495905	684.75
1555.009123	688.25
1555.522286	685.25
1556.035395	683.25
1556.54845	687.25
1557.06145	685.75
1557.574396	687.75
1558.087288	686.75
1558.600125	685.25
1559.112908	681.5
1559.625637	685.25
1560.138311	686.25
1560.650931	686.5
1561.163497	681.75
1561.676008	682.0
1562.188465	685.5
1562.700867	686.5
1563.213216	686.5
1563.725509	685.75
1564.237749	686.5
1564.749934	685.5
1565.262065	689.0
1565.774142	693.5
1566.286164	687.75
1566.798132	687.0
1567.310046	685.75
1567.821906	683.75
1568.333711	688.25
1568.845462	687.25
1569.357158	683.0
1569.868801	686.25
1570.380389	689.25
1570.891922	683.75
1571.403402	681.25
1571.914827	680.5
1572.426198	686.0
1572.937515	680.75
1573.448777	683.75
1573.959985	686.25
1574.471139	686.5
1574.982239	685.5
1575.493285	683.25
1576.004276	682.0
1576.515213	684.0
1577.026096	683.75
1577.536924	683.25
1578.047698	683.0
1578.558419	684.5
1579.069084	683.5
1579.579696	687.0
1580.090254	684.0
1580.600757	681.0
1581.111206	686.25
1581.621601	683.75
1582.131941	687.5
1582.642228	686.75
1583.15246	680.25
1583.662638	683.75
1584.172762	681.75
1584.682832	684.0
1585.192847	682.25
1585.702809	681.75
1586.212716	685.75
1586.722569	683.0
1587.232368	680.25
1587.742113	686.75
1588.251803	680.75
1588.76144	685.75
1589.271022	683.0
1589.78055	683.0
1590.290024	684.0
1590.799444	683.25
1591.30881	682.0
1591.818121	684.0
1592.327379	683.75
