1042.452273	672.7999878
1043.018714	668.2000122
1043.585098	675.0
1044.151424	673.5999756
1044.717692	673.5999756
1045.283903	667.5999756
1045.850056	670.5999756
1046.416151	669.5999756
1046.982188	669.5999756
1047.548167	669.5999756
1048.114089	669.7999878
1048.679953	669.0
1049.24576	667.7999878
1049.811509	666.0
1050.3772	671.5999756
1050.942833	670.4000244
1051.508408	666.0
1052.073926	668.4000244
1052.639387	669.0
1053.204789	669.5999756
1053.770134	665.5999756
1054.335421	668.7999878
1054.900651	668.0
1055.465823	666.2000122
1056.030937	668.2000122
1056.595993	665.4000244
1057.160992	667.7999878
1057.725934	668.0
1058.290817	664.5999756
1058.855643	666.5999756
1059.420411	666.0
1059.985122	665.5999756
1060.549775	665.0
1061.114371	666.0
1061.678908	664.4000244
1062.243389	665.7999878
1062.807811	664.4000244
1063.372176	665.4000244
1063.936483	664.5999756
1064.500733	663.5999756
1065.064925	666.5999756
1065.62906	664.7999878
1066.193137	665.0
1066.757156	664.5999756
1067.321118	666.4000244
1067.885022	665.4000244
1068.448869	663.7999878
1069.012658	667.4000244
1069.57639	665.0
1070.140063	673.7999878
1070.70368	664.4000244
1071.267239	667.2000122
1071.83074	662.5999756
1072.394184	666.2000122
1072.95757	664.2000122
1073.520899	666.0
1074.08417	664.5999756
1074.647383	662.7999878
1075.21054	663.0
1075.773638	666.0
1076.336679	664.4000244
1076.899663	665.7999878
1077.462589	667.2000122
1078.025457	665.4000244
1078.588268	663.4000244
1079.151022	665.0
1079.713718	663.7999878
1080.276356	665.4000244
1080.838937	665.5999756
1081.401461	662.7999878
1081.963927	664.2000122
1082.526336	667.5999756
1083.088687	664.0
1083.650981	665.2000122
1084.213217	662.7999878
1084.775396	666.4000244
1085.337517	664.0
1085.899581	665.2000122
1086.461587	664.5999756
1087.023536	664.5999756
1087.585428	664.2000122
1088.147262	663.2000122
1088.709039	667.2000122
1089.270758	664.5999756
1089.83242	664.4000244
1090.394024	665.2000122
1090.955571	665.7999878
1091.517061	665.0
1092.078493	664.4000244
1092.639868	663.0
1093.201185	666.0
1093.762445	666.7999878
1094.323648	664.2000122
1094.884793	666.2000122
1095.445881	665.4000244
1096.006911	664.7999878
1096.567884	664.7999878
1097.1288	669.7999878
1097.689659	664.2000122
1098.25046	664.4000244
1098.811203	664.0
1099.37189	661.7999878
1099.932518	666.2000122
1100.49309	664.5999756
1101.053604	665.5999756
1101.614061	665.2000122
1102.174461	665.0
1102.734803	665.4000244
1103.295088	661.7999878
1103.855316	665.0
1104.415486	664.2000122
1104.975599	666.7999878
1105.535655	665.0
1106.095653	662.4000244
1106.655594	663.2000122
1107.215478	662.7999878
1107.775305	665.0
1108.335074	664.2000122
1108.894786	665.7999878
1109.45444	665.2000122
1110.014038	665.0
1110.573578	665.4000244
1111.133061	665.4000244
1111.692486	664.2000122
1112.251854	666.5999756
1112.811165	662.5999756
1113.370419	668.5999756
1113.929616	664.2000122
1114.488755	662.5999756
1115.047837	668.0
1115.606862	665.0
1116.16583	664.7999878
1116.72474	664.4000244
1117.283593	665.4000244
1117.842389	663.5999756
1118.401128	663.4000244
1118.959809	663.5999756
1119.518433	665.4000244
1120.077	663.2000122
1120.63551	665.4000244
1121.193963	664.5999756
1121.752358	665.0
1122.310697	665.0
1122.868978	663.2000122
1123.427202	665.5999756
1123.985368	664.0
1124.543478	660.7999878
1125.10153	666.4000244
1125.659526	665.0
1126.217464	664.0
1126.775345	663.5999756
1127.333168	663.5999756
1127.890935	663.4000244
1128.448644	664.4000244
1129.006297	662.7999878
1129.563892	663.5999756
1130.12143	666.0
1130.678911	663.2000122
1131.236335	665.0
1131.793701	664.0
1132.351011	664.4000244
1132.908263	664.4000244
1133.465458	666.2000122
1134.022597	663.7999878
1134.579678	666.2000122
1135.136702	664.4000244
1135.693669	663.0
1136.250578	665.5999756
1136.807431	665.2000122
1137.364227	663.0
1137.920965	664.5999756
1138.477647	661.5999756
1139.034271	662.7999878
1139.590839	665.0
1140.147349	667.0
1140.703802	665.0
1141.260198	661.5999756
1141.816537	664.4000244
1142.37282	665.7999878
1142.929045	664.4000244
1143.485213	665.4000244
1144.041323	664.2000122
1144.597377	664.2000122
1145.153374	663.0
1145.709314	667.2000122
1146.265197	666.0
1146.821023	665.0
1147.376792	663.7999878
1147.932503	664.0
1148.488158	665.7999878
1149.043756	665.4000244
1149.599297	665.0
1150.154781	665.2000122
1150.710207	662.5999756
1151.265577	662.0
1151.82089	663.5999756
1152.376146	666.2000122
1152.931345	665.2000122
1153.486487	664.4000244
1154.041572	663.4000244
1154.5966	663.0
1155.151571	664.2000122
1155.706485	664.4000244
1156.261342	661.5999756
1156.816142	663.2000122
1157.370885	662.4000244
1157.925572	663.0
1158.480201	665.2000122
1159.034774	664.7999878
1159.589289	662.5999756
1160.143748	664.2000122
1160.698149	667.0
1161.252494	666.0
1161.806782	664.7999878
1162.361013	664.0
1162.915187	664.0
1163.469304	663.0
1164.023364	665.7999878
1164.577368	663.0
1165.131314	666.2000122
1165.685204	664.7999878
1166.239036	663.4000244
1166.792812	663.5999756
1167.346531	665.0
1167.900193	663.0
1168.453798	665.7999878
1169.007347	664.0
1169.560838	664.4000244
1170.114273	665.0
1170.66765	663.0
1171.220971	663.5999756
1171.774235	663.4000244
1172.327443	663.2000122
1172.880593	661.5999756
1173.433687	664.7999878
1173.986723	664.0
1174.539703	662.5999756
1175.092626	663.7999878
1175.645493	661.2000122
1176.198302	664.4000244
1176.751055	665.4000244
1177.303751	663.2000122
1177.85639	660.0
1178.408972	664.5999756
1178.961498	663.0
1179.513966	663.4000244
1180.066378	664.0
1180.618733	665.5999756
1181.171032	663.5999756
1181.723273	667.0
1182.275458	665.0
1182.827586	664.2000122
1183.379657	663.5999756
1183.931672	665.4000244
1184.48363	665.7999878
1185.035531	665.0
1185.587375	664.5999756
1186.139162	664.7999878
1186.690893	663.7999878
1187.242567	667.4000244
1187.794184	664.0
1188.345745	663.4000244
1188.897249	663.7999878
1189.448696	664.2000122
1190.000086	662.7999878
1190.55142	664.5999756
1191.102697	665.4000244
1191.653918	662.7999878
1192.205081	664.0
1192.756188	664.4000244
1193.307238	684.5999756
1193.858232	662.2000122
1194.409169	661.0
1194.960049	662.5999756
1195.510872	667.4000244
1196.061639	664.0
1196.612349	662.7999878
1197.163003	660.4000244
1197.713599	663.7999878
1198.264139	663.2000122
1198.814623	664.0
1199.36505	663.4000244
1199.91542	664.0
1200.465734	664.5999756
1201.01599	665.7999878
1201.566191	659.7999878
1202.116334	662.2000122
1202.666421	662.4000244
1203.216452	664.4000244
1203.766425	665.4000244
1204.316343	666.0
1204.866203	665.4000244
1205.416007	667.0
1205.965754	664.5999756
1206.515445	662.2000122
1207.065079	665.2000122
1207.614657	666.2000122
1208.164177	664.0
1208.713642	662.0
1209.26305	666.0
1209.812401	664.5999756
1210.361695	663.4000244
1210.910933	663.4000244
1211.460115	665.7999878
1212.00924	666.4000244
1212.558308	664.4000244
1213.10732	665.5999756
1213.656275	665.7999878
1214.205174	663.0
1214.754016	665.5999756
1215.302801	663.7999878
1215.85153	662.7999878
1216.400203	666.7999878
1216.948819	661.7999878
1217.497378	663.2000122
1218.045881	663.4000244
1218.594327	661.7999878
1219.142717	662.4000244
1219.691051	664.4000244
1220.239327	664.7999878
1220.787548	663.7999878
1221.335712	667.7999878
1221.883819	663.5999756
1222.43187	663.0
1222.979864	664.5999756
1223.527802	663.2000122
1224.075683	662.2000122
1224.623508	664.7999878
1225.171277	665.0
1225.718989	666.2000122
1226.266644	664.2000122
1226.814243	662.5999756
1227.361786	663.4000244
1227.909272	666.5999756
1228.456702	662.0
1229.004075	663.4000244
1229.551392	666.0
1230.098652	663.5999756
1230.645856	665.5999756
1231.193003	666.7999878
1231.740094	667.4000244
1232.287129	662.5999756
1232.834107	664.4000244
1233.381029	666.4000244
1233.927894	664.5999756
1234.474703	663.0
1235.021455	665.7999878
1235.568151	664.0
1236.114791	663.2000122
1236.661374	663.7999878
1237.207901	664.0
1237.754372	664.7999878
1238.300786	663.4000244
1238.847144	663.5999756
1239.393445	666.0
1239.93969	662.4000244
1240.485879	666.4000244
1241.032011	664.2000122
1241.578087	664.0
1242.124106	665.7999878
1242.67007	662.5999756
1243.215976	666.5999756
1243.761827	663.5999756
1244.307621	660.4000244
1244.853359	666.7999878
1245.39904	664.0
1245.944665	664.0
1246.490234	663.0
1247.035746	665.0
1247.581203	662.7999878
1248.126602	664.2000122
1248.671946	662.7999878
1249.217233	663.4000244
1249.762464	664.5999756
1250.307638	664.5999756
1250.852757	667.2000122
1251.397819	665.7999878
1251.942824	664.0
1252.487774	665.2000122
1253.032667	665.4000244
1253.577503	664.5999756
1254.122284	662.7999878
1254.667008	664.0
1255.211676	662.2000122
1255.756288	661.5999756
1256.300843	663.2000122
1256.845342	663.4000244
1257.389785	664.0
1257.934172	664.5999756
1258.478502	665.2000122
1259.022776	666.0
1259.566994	667.7999878
1260.111156	683.2000122
1260.655261	666.5999756
1261.199311	668.4000244
1261.743304	667.5999756
1262.28724	667.7999878
1262.831121	670.4000244
1263.374945	671.4000244
1263.918713	672.0
1264.462425	672.4000244
1265.006081	669.2000122
1265.54968	668.5999756
1266.093223	666.5999756
1266.636711	666.4000244
1267.180141	665.5999756
1267.723516	664.7999878
1268.266835	667.5999756
1268.810097	666.0
1269.353303	665.7999878
1269.896453	663.4000244
1270.439547	667.0
1270.982584	665.5999756
1271.525566	667.5999756
1272.068491	664.7999878
1272.61136	668.0
1273.154173	664.0
1273.69693	667.2000122
1274.239631	666.0
1274.782275	666.7999878
1275.324864	667.0
1275.867396	666.0
1276.409872	665.5999756
1276.952292	668.5999756
1277.494656	666.0
1278.036964	664.7999878
1278.579215	665.5999756
1279.121411	668.4000244
1279.66355	667.4000244
1280.205634	671.4000244
1280.747661	670.4000244
1281.289632	679.7999878
1281.831547	694.0
1282.373406	718.2000122
1282.915209	754.5999756
1283.456955	794.5999756
1283.998646	793.7999878
1284.540281	756.4000244
1285.081859	718.4000244
1285.623381	693.0
1286.164848	680.7999878
1286.706258	676.5999756
1287.247612	669.2000122
1287.788911	669.5999756
1288.330153	669.4000244
1288.871339	667.2000122
1289.412469	666.4000244
1289.953543	666.5999756
1290.494561	663.7999878
1291.035523	666.2000122
1291.576428	666.5999756
1292.117278	665.5999756
1292.658072	668.2000122
1293.19881	666.5999756
1293.739492	664.5999756
1294.280118	666.2000122
1294.820687	665.5999756
1295.361201	664.7999878
1295.901659	668.2000122
1296.442061	664.4000244
1296.982406	666.0
1297.522696	664.4000244
1298.06293	664.5999756
1298.603108	664.4000244
1299.143229	666.0
1299.683295	664.0
1300.223305	663.5999756
1300.763259	665.2000122
1301.303157	664.4000244
1301.842999	665.7999878
1302.382785	664.7999878
1302.922515	663.5999756
1303.462189	662.7999878
1304.001807	666.0
1304.541369	662.2000122
1305.080875	666.0
1305.620326	662.7999878
1306.15972	666.0
1306.699058	663.0
1307.238341	665.0
1307.777567	667.0
1308.316738	662.2000122
1308.855853	664.0
1309.394912	665.7999878
1309.933915	666.0
1310.472862	666.0
1311.011753	664.2000122
1311.550588	663.2000122
1312.089367	664.4000244
1312.62809	665.5999756
1313.166758	662.4000244
1313.70537	662.2000122
1314.243925	666.4000244
1314.782425	664.2000122
1315.320869	663.2000122
1315.859257	662.7999878
1316.397589	662.4000244
1316.935866	665.7999878
1317.474086	665.4000244
1318.012251	664.2000122
1318.55036	665.5999756
1319.088413	663.7999878
1319.62641	664.0
1320.164351	665.2000122
1320.702236	662.5999756
1321.240066	664.4000244
1321.777839	664.5999756
1322.315557	663.2000122
1322.853219	666.4000244
1323.390826	665.5999756
1323.928376	667.0
1324.465871	664.0
1325.003309	664.0
1325.540692	660.4000244
1326.07802	666.5999756
1326.615291	665.7999878
1327.152506	665.0
1327.689666	663.5999756
1328.22677	662.5999756
1328.763818	665.5999756
1329.300811	664.5999756
1329.837747	664.7999878
1330.374628	661.7999878
1330.911453	663.0
1331.448222	662.7999878
1331.984936	663.5999756
1332.521594	662.0
1333.058196	663.7999878
1333.594742	665.5999756
1334.131232	661.5999756
1334.667667	663.2000122
1335.204046	663.0
1335.740369	662.0
1336.276637	664.0
1336.812848	663.0
1337.349004	663.4000244
1337.885105	665.2000122
1338.421149	665.4000244
1338.957138	663.7999878
1339.493071	664.2000122
1340.028949	663.2000122
1340.56477	662.7999878
1341.100536	663.5999756
1341.636246	664.7999878
1342.171901	664.0
1342.7075	664.2000122
1343.243043	663.7999878
1343.77853	666.4000244
1344.313962	663.5999756
1344.849338	661.5999756
1345.384659	664.4000244
1345.919923	664.5999756
1346.455133	666.2000122
1346.990286	664.5999756
1347.525384	664.7999878
1348.060426	661.4000244
1348.595412	662.0
1349.130343	663.5999756
1349.665218	666.5999756
1350.200037	664.4000244
1350.734801	662.4000244
1351.269509	663.4000244
1351.804162	666.5999756
1352.338758	662.2000122
1352.8733	663.2000122
1353.407785	665.4000244
1353.942215	663.4000244
1354.476589	666.4000244
1355.010908	664.2000122
1355.545171	663.7999878
1356.079379	665.7999878
1356.61353	662.5999756
1357.147627	665.7999878
1357.681667	666.0
1358.215652	664.5999756
1358.749582	665.0
1359.283456	665.7999878
1359.817274	662.4000244
1360.351037	665.5999756
1360.884744	664.0
1361.418395	664.7999878
1361.951991	666.2000122
1362.485531	661.7999878
1363.019016	665.2000122
1363.552445	662.7999878
1364.085819	666.5999756
1364.619137	664.0
1365.1524	662.2000122
1365.685607	665.7999878
1366.218758	664.7999878
1366.751854	665.2000122
1367.284894	665.2000122
1367.817879	665.4000244
1368.350808	662.5999756
1368.883682	665.5999756
1369.4165	667.5999756
1369.949263	670.7999878
1370.48197	669.0
1371.014622	666.5999756
1371.547218	664.2000122
1372.079758	665.5999756
1372.612244	665.7999878
1373.144673	664.2000122
1373.677047	668.4000244
1374.209366	664.5999756
1374.741629	664.5999756
1375.273836	664.5999756
1375.805989	665.0
1376.338085	666.4000244
1376.870126	666.4000244
1377.402112	664.0
1377.934042	667.5999756
1378.465917	666.7999878
1378.997736	666.2000122
1379.5295	665.4000244
1380.061208	667.0
1380.592861	664.7999878
1381.124459	665.5999756
1381.656	668.2000122
1382.187487	668.5999756
1382.718918	668.5999756
1383.250294	670.4000244
1383.781614	672.2000122
1384.312879	673.0
1384.844088	678.7999878
1385.375242	682.2000122
1385.90634	693.7999878
1386.437383	719.4000244
1386.968371	781.0
1387.499303	891.7999878
1388.03018	960.5999756
1388.561001	862.5999756
1389.091767	750.5999756
1389.622478	702.4000244
1390.153133	683.0
1390.683733	677.4000244
1391.214277	676.2000122
1391.744766	672.7999878
1392.2752	669.7999878
1392.805578	669.4000244
1393.335901	669.0
1393.866168	669.0
1394.396381	667.2000122
1394.926537	668.0
1395.456639	666.4000244
1395.986685	667.0
1396.516675	667.2000122
1397.046611	667.5999756
1397.576491	665.2000122
1398.106315	669.0
1398.636084	666.2000122
1399.165798	664.7999878
1399.695457	667.2000122
1400.22506	665.2000122
1400.754608	667.2000122
1401.284101	667.4000244
1401.813538	665.4000244
1402.34292	663.4000244
1402.872247	663.7999878
1403.401518	667.4000244
1403.930734	664.4000244
1404.459895	664.4000244
1404.989	665.7999878
1405.51805	665.4000244
1406.047045	665.5999756
1406.575984	668.7999878
1407.104869	669.2000122
1407.633697	671.0
1408.162471	671.7999878
1408.691189	675.0
1409.219852	677.4000244
1409.74846	678.5999756
1410.277013	675.5999756
1410.80551	671.7999878
1411.333952	668.7999878
1411.862339	671.7999878
1412.39067	666.5999756
1412.918946	665.5999756
1413.447167	664.2000122
1413.975333	665.0
1414.503444	666.2000122
1415.031499	662.4000244
1415.559499	677.5999756
1416.087444	663.4000244
1416.615333	664.2000122
1417.143167	663.7999878
1417.670947	664.4000244
1418.19867	665.2000122
1418.726339	664.7999878
1419.253952	664.0
1419.781511	662.7999878
1420.309014	662.7999878
1420.836461	660.5999756
1421.363854	662.5999756
1421.891191	661.4000244
1422.418474	663.7999878
1422.945701	663.2000122
1423.472872	663.0
1423.999989	664.4000244
1424.52705	664.2000122
1425.054057	662.4000244
1425.581008	665.4000244
1426.107904	663.0
1426.634745	662.0
1427.16153	664.2000122
1427.688261	663.4000244
1428.214936	662.5999756
1428.741556	664.0
1429.268121	665.0
1429.794631	662.4000244
1430.321085	662.0
1430.847485	665.7999878
1431.373829	663.4000244
1431.900118	665.5999756
1432.426353	660.7999878
1432.952532	663.7999878
1433.478655	661.7999878
1434.004724	665.0
1434.530738	661.5999756
1435.056696	662.5999756
1435.5826	661.4000244
1436.108448	663.7999878
1436.634241	664.4000244
1437.159979	662.5999756
1437.685662	663.7999878
1438.21129	663.0
1438.736863	658.7999878
1439.262381	663.0
1439.787843	665.0
1440.313251	663.5999756
1440.838603	664.4000244
1441.3639	662.7999878
1441.889143	662.7999878
1442.41433	660.0
1442.939462	662.2000122
1443.464539	664.2000122
1443.989561	665.7999878
1444.514528	662.5999756
1445.03944	663.5999756
1445.564297	661.2000122
1446.089099	662.5999756
1446.613846	662.5999756
1447.138537	664.0
1447.663174	662.7999878
1448.187756	664.2000122
1448.712282	662.0
1449.236754	663.0
1449.761171	660.0
1450.285532	663.7999878
1450.809839	664.2000122
1451.33409	663.7999878
1451.858287	662.2000122
1452.382428	663.2000122
1452.906515	662.4000244
1453.430546	661.0
1453.954523	661.7999878
1454.478444	664.7999878
1455.002311	663.0
1455.526123	661.4000244
1456.049879	663.0
1456.573581	662.2000122
1457.097227	663.4000244
1457.620819	663.4000244
1458.144356	660.2000122
1458.667837	661.5999756
1459.191264	662.7999878
1459.714636	664.4000244
1460.237952	666.2000122
1460.761214	663.5999756
1461.284421	666.0
1461.807573	664.0
1462.33067	665.2000122
1462.853712	678.7999878
1463.899632	674.4000244
1464.422509	665.5999756
1464.945331	664.7999878
1465.468099	661.5999756
1465.990811	662.0
1466.513469	660.7999878
1467.036071	662.7999878
1467.558619	663.2000122
1468.081112	663.2000122
1468.60355	662.0
1469.125933	664.5999756
1469.648261	664.4000244
1470.170534	661.5999756
1470.692752	660.4000244
1471.214916	663.5999756
1471.737024	661.5999756
1472.259078	663.2000122
1472.781077	659.7999878
1473.303021	661.2000122
1473.82491	659.2000122
1474.346744	663.0
1474.868523	660.4000244
1475.390248	664.2000122
1475.911917	661.5999756
1476.433532	663.7999878
1476.955092	664.2000122
1477.476597	662.4000244
1477.998047	662.5999756
1478.519442	663.0
1479.040783	661.5999756
1479.562068	660.0
1480.083299	663.0
1480.604475	661.5999756
1481.125596	663.0
1481.646663	663.7999878
1482.167674	662.7999878
1482.688631	661.7999878
1483.209533	660.5999756
1483.73038	659.7999878
1484.251172	661.2000122
1484.771909	660.7999878
1485.292592	664.5999756
1485.81322	662.7999878
1486.333793	662.0
1486.854311	661.5999756
1487.374775	663.0
1487.895183	662.2000122
1488.415537	660.5999756
1488.935836	663.4000244
1489.456081	664.4000244
1489.97627	662.0
1490.496405	663.7999878
1491.016485	662.5999756
1491.536511	662.2000122
1492.056481	661.4000244
1492.576397	662.5999756
1493.096258	662.0
1493.616064	662.2000122
1494.135816	665.0
1494.655513	660.7999878
1495.175155	663.0
1495.694742	658.0
1496.214274	662.2000122
1496.733752	664.4000244
1497.253175	661.2000122
1497.772544	661.7999878
1498.291858	662.4000244
1498.811116	662.5999756
1499.330321	660.0
1499.84947	670.0
1500.368565	661.4000244
1500.887605	664.5999756
1501.406591	662.7999878
1501.925521	662.2000122
1502.444397	662.0
1502.963219	660.7999878
1503.481985	661.4000244
1504.000697	663.0
1504.519355	664.0
1505.037957	663.2000122
1505.556505	660.7999878
1506.074999	665.2000122
1506.593437	664.2000122
1507.111821	662.7999878
1507.63015	662.4000244
1508.148425	660.7999878
1508.666645	662.2000122
1509.18481	661.4000244
1509.702921	663.2000122
1510.220977	665.4000244
1510.738979	671.4000244
1511.256925	662.0
1511.774817	659.2000122
1512.292655	664.5999756
1512.810438	661.5999756
1513.328166	662.5999756
1513.84584	660.7999878
1514.363459	661.5999756
1514.881023	664.2000122
1515.398533	661.4000244
1515.915988	661.2000122
1516.433389	660.5999756
1516.950734	659.4000244
1517.468026	661.4000244
1517.985263	661.7999878
1518.502445	660.7999878
1519.019572	662.7999878
1519.536645	661.2000122
1520.053664	660.7999878
1520.570628	661.0
1521.087537	664.0
1521.604392	662.2000122
1522.121192	660.4000244
1522.637937	659.5999756
1523.154628	663.7999878
1523.671265	662.7999878
1524.187847	661.4000244
1524.704374	664.5999756
1525.220847	662.0
1525.737265	667.2000122
1526.253629	694.4000244
1526.769938	679.5999756
1527.286192	666.4000244
1527.802392	662.7999878
1528.318538	663.7999878
1528.834629	661.4000244
1529.350666	662.0
1529.866648	662.7999878
1530.382575	661.7999878
1530.898448	665.0
1531.414266	662.7999878
1531.93003	660.5999756
1532.44574	662.5999756
1532.961395	661.4000244
1533.476995	659.2000122
1533.992541	660.5999756
1534.508033	660.7999878
1535.02347	663.2000122
1535.538852	664.2000122
1536.05418	663.0
1536.569454	661.2000122
1537.084673	661.2000122
1537.599837	663.7999878
1538.114947	661.2000122
1538.630003	661.0
1539.145004	664.4000244
1539.659951	665.2000122
1540.174843	661.0
1540.689681	662.2000122
1541.204465	662.2000122
1541.719194	663.5999756
1542.233868	663.4000244
1542.748488	661.7999878
1543.263054	660.7999878
1543.777565	662.7999878
1544.292022	662.4000244
1544.806424	665.5999756
1545.320772	665.5999756
1545.835066	665.5999756
1546.349305	663.2000122
1546.863489	657.5999756
1547.37762	663.2000122
1547.891696	664.7999878
1548.405717	662.7999878
1548.919684	662.5999756
1549.433597	662.7999878
1549.947455	662.7999878
1550.461259	662.5999756
1550.975009	662.2000122
1551.488704	660.5999756
1552.002345	664.2000122
1552.515931	664.0
1553.029463	663.0
1553.542941	661.5999756
1554.056364	663.7999878
1554.569733	664.7999878
1555.083048	664.2000122
1555.596308	661.5999756
1556.109514	663.0
1556.622665	664.0
1557.135762	662.5999756
1557.648805	664.7999878
1558.161794	663.2000122
1558.674728	665.0
1559.187608	662.5999756
1559.700433	664.2000122
1560.213205	664.7999878
1560.725921	662.7999878
1561.238584	664.4000244
1561.751192	665.4000244
1562.263746	663.5999756
1562.776246	663.5999756
1563.288691	664.0
1563.801082	665.2000122
1564.313419	663.5999756
1564.825701	666.4000244
1565.337929	663.5999756
1565.850103	665.7999878
1566.362223	667.2000122
1566.874288	667.5999756
1567.386299	667.7999878
1567.898256	668.5999756
1568.410158	665.7999878
1568.922007	663.0
1569.4338	665.7999878
1569.94554	665.2000122
1570.457226	663.0
1570.968857	662.4000244
1571.480434	663.7999878
1571.991956	663.0
1572.503425	664.5999756
1573.014839	661.0
1573.526199	662.4000244
1574.037505	663.2000122
1574.548756	662.5999756
1575.059953	661.7999878
1575.571096	664.7999878
1576.082185	661.7999878
1576.59322	663.7999878
1577.1042	662.5999756
1577.615126	660.2000122
1578.125998	661.5999756
1578.636816	666.0
1579.14758	662.5999756
1579.658289	663.7999878
1580.168944	662.2000122
1580.679545	660.5999756
1581.190092	663.5999756
1581.700585	662.0
1582.211023	663.2000122
1582.721407	661.2000122
1583.231737	666.0
1583.742013	665.2000122
1584.252235	661.7999878
1584.762403	661.4000244
1585.272516	663.7999878
1585.782575	663.2000122
1586.292581	662.4000244
1586.802532	663.7999878
1587.312428	661.5999756
1587.822271	662.7999878
1588.33206	662.0
1588.841794	665.0
1589.351474	662.7999878
1589.8611	664.5999756
1590.370672	662.4000244
1590.88019	662.0
1591.389654	664.2000122
1591.899064	661.2000122
1592.408419	658.7999878
