1042.452273	693.4000244
1043.018714	694.5999756
1043.585098	689.5999756
1044.151424	691.7999878
1044.717692	690.4000244
1045.283903	689.7999878
1045.850056	683.5999756
1046.416151	689.0
1046.982188	684.4000244
1047.548167	685.5999756
1048.114089	683.4000244
1048.679953	687.2000122
1049.24576	684.2000122
1049.811509	686.7999878
1050.3772	685.2000122
1050.942833	684.0
1051.508408	685.4000244
1052.073926	683.5999756
1052.639387	686.4000244
1053.204789	684.5999756
1053.770134	685.4000244
1054.335421	684.5999756
1054.900651	686.0
1055.465823	686.7999878
1056.030937	682.2000122
1056.595993	681.7999878
1057.160992	682.7999878
1057.725934	682.7999878
1058.290817	684.7999878
1058.855643	683.7999878
1059.420411	686.4000244
1059.985122	687.2000122
1060.549775	687.0
1061.114371	684.5999756
1061.678908	680.7999878
1062.243389	682.5999756
1062.807811	683.0
1063.372176	682.7999878
1063.936483	684.2000122
1064.500733	683.4000244
1065.064925	679.2000122
1065.62906	685.5999756
1066.193137	683.0
1066.757156	684.2000122
1067.321118	684.7999878
1067.885022	681.7999878
1068.448869	685.0
1069.012658	683.2000122
1069.57639	685.2000122
1070.140063	694.4000244
1070.70368	684.4000244
1071.267239	683.4000244
1071.83074	681.5999756
1072.394184	682.0
1072.95757	682.2000122
1073.520899	685.7999878
1074.08417	687.0
1074.647383	686.2000122
1075.21054	685.0
1075.773638	685.0
1076.336679	684.4000244
1076.899663	681.5999756
1077.462589	687.7999878
1078.025457	681.7999878
1078.588268	686.4000244
1079.151022	686.4000244
1079.713718	683.5999756
1080.276356	689.2000122
1080.838937	683.7999878
1081.401461	684.7999878
1081.963927	687.7999878
1082.526336	689.4000244
1083.088687	687.7999878
1083.650981	691.5999756
1084.213217	688.0
1084.775396	687.5999756
1085.337517	691.4000244
1085.899581	690.5999756
1086.461587	690.5999756
1087.023536	692.4000244
1087.585428	691.4000244
1088.147262	692.2000122
1088.709039	694.4000244
1089.270758	695.2000122
1089.83242	694.7999878
1090.394024	700.0
1090.955571	699.2000122
1091.517061	698.7999878
1092.078493	700.4000244
1092.639868	700.2000122
1093.201185	704.4000244
1093.762445	696.7999878
1094.323648	702.2000122
1094.884793	701.5999756
1095.445881	700.5999756
1096.006911	699.5999756
1096.567884	696.2000122
1097.1288	707.0
1097.689659	694.7999878
1098.25046	697.0
1098.811203	690.2000122
1099.37189	694.2000122
1099.932518	691.7999878
1100.49309	685.4000244
1101.053604	691.7999878
1101.614061	688.2000122
1102.174461	688.4000244
1102.734803	687.4000244
1103.295088	691.0
1103.855316	683.5999756
1104.415486	684.2000122
1104.975599	688.4000244
1105.535655	687.0
1106.095653	684.2000122
1106.655594	686.4000244
1107.215478	683.4000244
1107.775305	684.4000244
1108.335074	683.0
1108.894786	687.2000122
1109.45444	686.5999756
1110.014038	683.2000122
1110.573578	686.0
1111.133061	681.5999756
1111.692486	683.7999878
1112.251854	684.4000244
1112.811165	682.7999878
1113.370419	686.0
1113.929616	681.7999878
1114.488755	681.5999756
1115.047837	684.0
1115.606862	684.7999878
1116.16583	685.4000244
1116.72474	686.4000244
1117.283593	679.7999878
1117.842389	681.2000122
1118.401128	680.4000244
1118.959809	681.5999756
1119.518433	681.2000122
1120.077	678.7999878
1120.63551	684.0
1121.193963	680.2000122
1121.752358	686.7999878
1122.310697	681.5999756
1122.868978	684.5999756
1123.427202	683.2000122
1123.985368	685.2000122
1124.543478	678.0
1125.10153	684.5999756
1125.659526	681.7999878
1126.217464	681.7999878
1126.775345	681.7999878
1127.333168	684.5999756
1127.890935	685.0
1128.448644	682.5999756
1129.006297	682.0
1129.563892	681.7999878
1130.12143	679.4000244
1130.678911	684.4000244
1131.236335	685.7999878
1131.793701	682.2000122
1132.351011	683.0
1132.908263	681.7999878
1133.465458	681.4000244
1134.022597	683.0
1134.579678	678.4000244
1135.136702	682.0
1135.693669	681.7999878
1136.250578	683.5999756
1136.807431	681.5999756
1137.364227	679.7999878
1137.920965	682.2000122
1138.477647	686.2000122
1139.034271	683.2000122
1139.590839	681.0
1140.147349	682.0
1140.703802	680.4000244
1141.260198	682.4000244
1141.816537	682.4000244
1142.37282	685.5999756
1142.929045	681.5999756
1143.485213	682.2000122
1144.041323	680.0
1144.597377	686.5999756
1145.153374	681.7999878
1145.709314	681.7999878
1146.265197	683.7999878
1146.821023	682.5999756
1147.376792	680.5999756
1147.932503	683.0
1148.488158	681.5999756
1149.043756	681.7999878
1149.599297	682.0
1150.154781	682.4000244
1150.710207	679.4000244
1151.265577	685.7999878
1151.82089	680.7999878
1152.376146	684.4000244
1152.931345	680.5999756
1153.486487	682.5999756
1154.041572	681.0
1154.5966	682.2000122
1155.151571	682.0
1155.706485	681.0
1156.261342	681.7999878
1156.816142	683.5999756
1157.370885	682.0
1157.925572	684.0
1158.480201	682.5999756
1159.034774	684.7999878
1159.589289	680.5999756
1160.143748	684.2000122
1160.698149	682.4000244
1161.252494	682.4000244
1161.806782	682.0
1162.361013	682.0
1162.915187	683.0
1163.469304	683.5999756
1164.023364	682.2000122
1164.577368	684.4000244
1165.131314	683.0
1165.685204	683.0
1166.239036	683.7999878
1166.792812	679.4000244
1167.346531	683.5999756
1167.900193	681.2000122
1168.453798	681.4000244
1169.007347	684.5999756
1169.560838	683.2000122
1170.114273	684.2000122
1170.66765	683.4000244
1171.220971	681.0
1171.774235	682.2000122
1172.327443	688.7999878
1172.880593	683.5999756
1173.433687	682.5999756
1173.986723	680.5999756
1174.539703	683.5999756
1175.092626	683.7999878
1175.645493	685.5999756
1176.198302	682.2000122
1176.751055	682.7999878
1177.303751	682.4000244
1177.85639	684.7999878
1178.408972	683.4000244
1178.961498	683.0
1179.513966	682.7999878
1180.066378	682.0
1180.618733	684.5999756
1181.171032	682.2000122
1181.723273	683.5999756
1182.275458	682.2000122
1182.827586	681.2000122
1183.379657	683.5999756
1183.931672	681.2000122
1184.48363	684.7999878
1185.035531	682.7999878
1185.587375	685.2000122
1186.139162	684.5999756
1186.690893	683.4000244
1187.242567	682.7999878
1187.794184	685.4000244
1188.345745	684.2000122
1188.897249	681.4000244
1189.448696	681.4000244
1190.000086	687.7999878
1190.55142	678.5999756
1191.102697	681.7999878
1191.653918	685.0
1192.205081	686.2000122
1192.756188	686.5999756
1193.307238	703.5999756
1193.858232	684.7999878
1194.409169	683.7999878
1194.960049	685.0
1195.510872	685.0
1196.061639	684.7999878
1196.612349	685.0
1197.163003	683.2000122
1197.713599	684.5999756
1198.264139	682.7999878
1198.814623	683.2000122
1199.36505	682.2000122
1199.91542	681.0
1200.465734	682.2000122
1201.01599	686.0
1201.566191	682.2000122
1202.116334	684.5999756
1202.666421	680.0
1203.216452	685.2000122
1203.766425	687.0
1204.316343	685.7999878
1204.866203	684.4000244
1205.416007	684.4000244
1205.965754	682.2000122
1206.515445	683.2000122
1207.065079	684.2000122
1207.614657	681.5999756
1208.164177	684.7999878
1208.713642	681.0
1209.26305	685.5999756
1209.812401	685.0
1210.361695	683.4000244
1210.910933	684.0
1211.460115	682.7999878
1212.00924	684.0
1212.558308	683.5999756
1213.10732	685.7999878
1213.656275	685.0
1214.205174	685.5999756
1214.754016	684.5999756
1215.302801	684.7999878
1215.85153	682.0
1216.400203	683.4000244
1216.948819	683.5999756
1217.497378	682.2000122
1218.045881	685.2000122
1218.594327	686.2000122
1219.142717	682.5999756
1219.691051	681.4000244
1220.239327	684.0
1220.787548	683.4000244
1221.335712	681.0
1221.883819	682.0
1222.43187	686.0
1222.979864	683.5999756
1223.527802	686.0
1224.075683	685.7999878
1224.623508	685.2000122
1225.171277	683.2000122
1225.718989	681.5999756
1226.266644	681.5999756
1226.814243	687.5999756
1227.361786	684.5999756
1227.909272	683.0
1228.456702	685.5999756
1229.004075	686.2000122
1229.551392	686.4000244
1230.098652	684.5999756
1230.645856	684.5999756
1231.193003	686.7999878
1231.740094	686.4000244
1232.287129	687.2000122
1232.834107	688.5999756
1233.381029	685.5999756
1233.927894	687.5999756
1234.474703	687.4000244
1235.021455	687.7999878
1235.568151	686.2000122
1236.114791	685.4000244
1236.661374	687.4000244
1237.207901	686.5999756
1237.754372	686.0
1238.300786	685.0
1238.847144	687.4000244
1239.393445	687.5999756
1239.93969	687.5999756
1240.485879	690.4000244
1241.032011	685.0
1241.578087	688.2000122
1242.124106	687.2000122
1242.67007	686.4000244
1243.215976	682.4000244
1243.761827	688.0
1244.307621	688.7999878
1244.853359	689.2000122
1245.39904	689.2000122
1245.944665	687.5999756
1246.490234	688.7999878
1247.035746	686.0
1247.581203	685.2000122
1248.126602	689.2000122
1248.671946	692.4000244
1249.217233	686.0
1249.762464	685.4000244
1250.307638	685.5999756
1250.852757	686.5999756
1251.397819	687.0
1251.942824	686.7999878
1252.487774	686.4000244
1253.032667	687.4000244
1253.577503	688.0
1254.122284	688.7999878
1254.667008	687.7999878
1255.211676	687.7999878
1255.756288	692.4000244
1256.300843	689.4000244
1256.845342	690.0
1257.389785	687.2000122
1257.934172	690.5999756
1258.478502	694.4000244
1259.022776	692.2000122
1259.566994	690.7999878
1260.111156	710.2000122
1260.655261	696.4000244
1261.199311	693.0
1261.743304	698.7999878
1262.28724	703.5999756
1262.831121	708.2000122
1263.374945	705.5999756
1263.918713	706.5999756
1264.462425	702.7999878
1265.006081	704.5999756
1265.54968	699.4000244
1266.093223	697.0
1266.636711	696.2000122
1267.180141	692.0
1267.723516	694.5999756
1268.266835	692.2000122
1268.810097	694.7999878
1269.353303	692.0
1269.896453	691.5999756
1270.439547	690.2000122
1270.982584	689.4000244
1271.525566	698.5999756
1272.068491	695.4000244
1272.61136	693.5999756
1273.154173	693.0
1273.69693	690.2000122
1274.239631	695.0
1274.782275	690.4000244
1275.324864	692.7999878
1275.867396	691.4000244
1276.409872	691.2000122
1276.952292	694.4000244
1277.494656	695.5999756
1278.036964	697.0
1278.579215	700.7999878
1279.121411	692.5999756
1279.66355	704.0
1280.205634	703.0
1280.747661	720.2000122
1281.289632	734.0
1281.831547	765.5999756
1282.373406	834.7999878
1282.915209	951.0
1283.456955	1063.599976
1283.998646	1063.599976
1284.540281	960.4000244
1285.081859	835.7999878
1285.623381	767.5999756
1286.164848	729.4000244
1286.706258	718.0
1287.247612	706.5999756
1287.788911	704.7999878
1288.330153	700.2000122
1288.871339	696.2000122
1289.412469	697.7999878
1289.953543	692.4000244
1290.494561	692.4000244
1291.035523	695.7999878
1291.576428	693.0
1292.117278	694.4000244
1292.658072	692.2000122
1293.19881	689.5999756
1293.739492	692.0
1294.280118	693.2000122
1294.820687	691.4000244
1295.361201	688.0
1295.901659	690.7999878
1296.442061	691.5999756
1296.982406	689.5999756
1297.522696	690.7999878
1298.06293	690.5999756
1298.603108	692.0
1300.223305	691.4000244
1300.763259	690.4000244
1301.303157	686.7999878
1301.842999	689.4000244
1302.382785	691.2000122
1302.922515	692.5999756
1303.462189	690.0
1304.001807	687.7999878
1304.541369	687.4000244
1305.080875	688.0
1305.620326	690.4000244
1306.15972	688.2000122
1306.699058	690.0
1307.238341	690.4000244
1307.777567	691.2000122
1308.316738	688.4000244
1308.855853	690.7999878
1309.394912	688.7999878
1309.933915	684.7999878
1310.472862	690.0
1311.011753	688.7999878
1311.550588	686.4000244
1312.089367	689.4000244
1312.62809	690.0
1313.166758	688.4000244
1313.70537	690.5999756
1314.243925	688.7999878
1314.782425	689.0
1315.320869	689.5999756
1315.859257	689.7999878
1316.397589	686.5999756
1316.935866	690.0
1317.474086	688.7999878
1318.012251	688.7999878
1318.55036	688.5999756
1319.088413	689.0
1319.62641	690.2000122
1320.164351	686.0
1320.702236	689.2000122
1321.240066	689.0
1321.777839	688.5999756
1322.315557	689.7999878
1322.853219	688.2000122
1323.390826	688.2000122
1323.928376	693.4000244
1324.465871	687.4000244
1325.003309	687.0
1325.540692	689.2000122
1326.07802	685.4000244
1326.615291	688.5999756
1327.152506	687.0
1327.689666	685.2000122
1328.22677	688.4000244
1328.763818	688.2000122
1329.300811	686.5999756
1329.837747	689.2000122
1330.374628	684.0
1330.911453	688.7999878
1331.448222	687.5999756
1331.984936	688.2000122
1332.521594	690.2000122
1333.058196	690.2000122
1333.594742	688.5999756
1334.131232	687.5999756
1334.667667	692.5999756
1335.204046	691.7999878
1335.740369	686.5999756
1336.276637	692.4000244
1336.812848	688.4000244
1337.349004	690.4000244
1337.885105	690.7999878
1338.421149	692.0
1338.957138	691.0
1339.493071	688.4000244
1340.028949	687.5999756
1340.56477	689.4000244
1341.100536	689.0
1341.636246	687.7999878
1342.171901	687.7999878
1342.7075	689.7999878
1343.243043	690.2000122
1343.77853	687.5999756
1344.313962	689.5999756
1344.849338	686.2000122
1345.384659	689.7999878
1345.919923	691.7999878
1346.455133	686.7999878
1346.990286	688.7999878
1347.525384	692.5999756
1348.060426	690.0
1348.595412	688.5999756
1349.130343	691.0
1349.665218	687.4000244
1350.200037	689.5999756
1350.734801	689.0
1351.269509	690.2000122
1351.804162	690.5999756
1352.338758	687.4000244
1352.8733	689.7999878
1353.407785	691.7999878
1353.942215	691.5999756
1354.476589	689.4000244
1355.010908	686.2000122
1355.545171	689.4000244
1356.079379	692.7999878
1356.61353	688.7999878
1357.147627	691.5999756
1357.681667	690.7999878
1358.215652	690.7999878
1358.749582	689.2000122
1359.283456	687.7999878
1359.817274	691.4000244
1360.351037	691.5999756
1360.884744	689.2000122
1361.418395	688.7999878
1361.951991	689.4000244
1362.485531	688.5999756
1363.019016	689.7999878
1363.552445	691.0
1364.085819	694.7999878
1364.619137	690.7999878
1365.1524	692.5999756
1365.685607	693.4000244
1366.218758	695.7999878
1366.751854	692.2000122
1367.284894	689.4000244
1367.817879	691.0
1368.350808	695.7999878
1368.883682	693.2000122
1369.4165	695.7999878
1369.949263	712.2000122
1370.48197	704.7999878
1371.014622	692.0
1371.547218	693.7999878
1372.079758	692.0
1372.612244	694.5999756
1373.144673	695.2000122
1373.677047	693.2000122
1374.209366	693.4000244
1374.741629	694.0
1375.273836	689.7999878
1375.805989	693.2000122
1376.338085	694.4000244
1376.870126	691.4000244
1377.402112	695.5999756
1377.934042	693.0
1378.465917	699.7999878
1378.997736	696.5999756
1379.5295	700.0
1380.061208	700.2000122
1380.592861	701.7999878
1381.124459	699.2000122
1381.656	699.7999878
1382.187487	707.5999756
1382.718918	706.4000244
1383.250294	711.5999756
1383.781614	709.2000122
1384.312879	720.4000244
1384.844088	725.7999878
1385.375242	741.7999878
1385.90634	779.0
1386.437383	849.4000244
1386.968371	1032.199951
1387.499303	1356.800049
1388.03018	1541.199951
1388.561001	1239.800049
1389.091767	936.4000244
1389.622478	802.4000244
1390.153133	753.0
1390.683733	729.5999756
1391.214277	719.5999756
1391.744766	711.5999756
1392.2752	709.4000244
1392.805578	702.4000244
1393.335901	701.7999878
1393.866168	702.4000244
1394.396381	698.7999878
1394.926537	700.4000244
1395.456639	694.2000122
1395.986685	697.5999756
1396.516675	696.7999878
1397.046611	696.0
1397.576491	695.5999756
1398.106315	694.5999756
1398.636084	697.4000244
1399.165798	696.2000122
1399.695457	693.2000122
1400.22506	695.4000244
1400.754608	696.2000122
1401.284101	691.5999756
1401.813538	695.7999878
1402.34292	695.7999878
1402.872247	696.7999878
1403.401518	694.4000244
1403.930734	692.5999756
1404.459895	696.4000244
1404.989	697.2000122
1405.51805	698.5999756
1406.047045	696.4000244
1406.575984	704.0
1407.104869	705.0
1407.633697	713.2000122
1408.162471	712.4000244
1408.691189	725.2000122
1409.219852	728.2000122
1409.74846	733.5999756
1410.277013	724.0
1410.80551	714.4000244
1411.333952	706.7999878
1411.862339	701.5999756
1412.39067	701.5999756
1412.918946	696.4000244
1413.447167	687.0
1413.975333	694.5999756
1414.503444	692.4000244
1415.031499	690.2000122
1415.559499	705.5999756
1416.087444	695.2000122
1416.615333	689.5999756
1417.143167	689.5999756
1417.670947	688.4000244
1418.19867	691.0
1418.726339	691.0
1419.253952	692.5999756
1419.781511	691.2000122
1420.309014	688.5999756
1420.836461	688.0
1421.363854	693.0
1421.891191	693.2000122
1422.418474	693.7999878
1422.945701	689.7999878
1423.472872	688.2000122
1423.999989	689.4000244
1424.52705	695.0
1425.054057	694.0
1425.581008	689.4000244
1426.107904	690.4000244
1426.634745	688.4000244
1427.16153	689.0
1427.688261	689.5999756
1428.214936	693.2000122
1428.741556	690.4000244
1429.268121	688.2000122
1429.794631	691.5999756
1430.321085	692.2000122
1430.847485	690.0
1431.373829	690.7999878
1431.900118	689.0
1432.426353	687.0
1432.952532	687.5999756
1433.478655	691.2000122
1434.004724	689.5999756
1434.530738	688.0
1435.056696	685.7999878
1435.5826	689.0
1436.108448	693.2000122
1436.634241	690.7999878
1437.159979	691.0
1437.685662	688.4000244
1438.21129	688.2000122
1438.736863	688.4000244
1439.262381	687.4000244
1439.787843	690.4000244
1440.313251	686.7999878
1440.838603	687.5999756
1441.3639	687.4000244
1441.889143	691.2000122
1442.41433	688.4000244
1442.939462	690.2000122
1443.464539	688.2000122
1443.989561	689.2000122
1444.514528	684.4000244
1445.03944	689.2000122
1445.564297	689.2000122
1446.089099	689.7999878
1446.613846	686.4000244
1447.138537	689.0
1447.663174	689.2000122
1448.187756	691.2000122
1448.712282	690.0
1449.236754	688.4000244
1449.761171	688.7999878
1450.285532	689.4000244
1450.809839	687.5999756
1451.33409	688.2000122
1451.858287	686.0
1452.382428	689.5999756
1452.906515	687.4000244
1453.430546	687.0
1453.954523	691.4000244
1454.478444	689.2000122
1455.002311	690.0
1455.526123	688.7999878
1456.049879	688.2000122
1456.573581	686.4000244
1457.097227	689.0
1457.620819	687.2000122
1458.144356	687.7999878
1458.667837	688.7999878
1459.191264	687.4000244
1459.714636	691.0
1460.237952	690.0
1460.761214	687.2000122
1461.284421	690.4000244
1461.807573	689.2000122
1462.33067	692.2000122
1462.853712	699.5999756
1463.376699	716.0
1463.899632	697.2000122
1464.422509	686.0
1464.945331	690.0
1465.468099	688.7999878
1465.990811	686.0
1466.513469	685.0
1467.036071	683.0
1467.558619	693.4000244
1468.081112	687.2000122
1468.60355	688.5999756
1469.125933	688.2000122
1469.648261	692.0
1470.170534	687.2000122
1470.692752	685.5999756
1471.214916	689.7999878
1471.737024	690.5999756
1472.259078	687.7999878
1472.781077	689.7999878
1473.303021	687.2000122
1473.82491	685.7999878
1474.346744	691.5999756
1474.868523	688.4000244
1475.390248	687.2000122
1475.911917	687.2000122
1476.433532	689.0
1476.955092	686.2000122
1477.476597	689.2000122
1477.998047	686.4000244
1478.519442	688.2000122
1479.040783	688.4000244
1479.562068	687.2000122
1480.083299	690.4000244
1480.604475	687.5999756
1481.125596	687.0
1481.646663	689.5999756
1482.167674	689.7999878
1482.688631	687.7999878
1483.209533	686.4000244
1483.73038	688.7999878
1484.251172	689.2000122
1484.771909	687.4000244
1485.292592	689.4000244
1485.81322	688.4000244
1486.333793	686.5999756
1486.854311	686.7999878
1487.374775	684.7999878
1487.895183	688.5999756
1488.415537	691.7999878
1488.935836	684.7999878
1489.456081	687.5999756
1489.97627	689.0
1490.496405	686.7999878
1491.016485	687.4000244
1491.536511	685.4000244
1492.056481	684.2000122
1492.576397	689.4000244
1493.096258	686.7999878
1493.616064	688.2000122
1494.135816	685.0
1494.655513	686.4000244
1495.175155	688.0
1495.694742	686.5999756
1496.214274	685.7999878
1496.733752	689.7999878
1497.253175	690.2000122
1497.772544	686.5999756
1498.291858	690.0
1498.811116	687.2000122
1499.330321	686.7999878
1499.84947	695.0
1500.368565	689.5999756
1500.887605	683.4000244
1501.406591	689.7999878
1501.925521	688.2000122
1502.444397	690.4000244
1502.963219	686.4000244
1503.481985	686.5999756
1504.000697	688.4000244
1504.519355	689.4000244
1505.037957	690.2000122
1505.556505	689.2000122
1506.074999	689.2000122
1506.593437	690.0
1507.111821	689.2000122
1507.63015	686.5999756
1508.148425	687.5999756
1508.666645	685.7999878
1509.18481	687.7999878
1509.702921	688.0
1510.220977	690.2000122
1510.738979	699.7999878
1511.256925	684.7999878
1511.774817	687.2000122
1512.292655	687.0
1512.810438	684.5999756
1513.328166	688.5999756
1513.84584	691.5999756
1514.363459	688.4000244
1514.881023	686.2000122
1515.398533	685.5999756
1515.915988	689.4000244
1516.433389	687.2000122
1516.950734	688.2000122
1517.468026	687.4000244
1517.985263	688.4000244
1518.502445	691.2000122
1519.019572	687.0
1519.536645	687.2000122
1520.053664	687.2000122
1520.570628	690.0
1521.087537	689.0
1521.604392	687.5999756
1522.121192	682.4000244
1522.637937	690.2000122
1523.154628	688.2000122
1523.671265	686.0
1524.187847	689.2000122
1524.704374	685.7999878
1525.220847	688.2000122
1525.737265	691.7999878
1526.253629	709.5999756
1526.769938	700.0
1527.286192	689.7999878
1527.802392	689.2000122
1528.318538	688.0
1528.834629	686.7999878
1529.350666	687.4000244
1529.866648	692.0
1530.382575	688.0
1530.898448	690.4000244
1531.414266	686.7999878
1531.93003	691.5999756
1532.44574	686.7999878
1532.961395	687.2000122
1533.476995	684.2000122
1533.992541	689.2000122
1534.508033	685.4000244
1535.02347	689.4000244
1535.538852	688.7999878
1536.05418	688.4000244
1536.569454	683.4000244
1537.084673	687.5999756
1537.599837	688.2000122
1538.114947	688.7999878
1538.630003	689.4000244
1539.145004	691.4000244
1539.659951	686.5999756
1540.174843	687.4000244
1540.689681	684.5999756
1541.204465	690.5999756
1541.719194	689.2000122
1542.233868	688.5999756
1542.748488	691.4000244
1543.263054	691.0
1543.777565	690.5999756
1544.292022	690.2000122
1544.806424	689.2000122
1545.320772	690.2000122
1545.835066	686.7999878
1546.349305	688.2000122
1546.863489	685.0
1547.37762	692.4000244
1547.891696	692.4000244
1548.405717	688.7999878
1548.919684	685.5999756
1549.433597	686.5999756
1549.947455	691.2000122
1550.461259	689.2000122
1550.975009	683.0
1551.488704	687.4000244
1552.002345	689.0
1552.515931	693.0
1553.029463	688.7999878
1553.542941	686.5999756
1554.056364	689.0
1554.569733	688.0
1555.083048	686.7999878
1555.596308	690.7999878
1556.109514	690.4000244
1556.622665	687.4000244
1557.135762	688.4000244
1557.648805	691.2000122
1558.161794	688.4000244
1558.674728	687.5999756
1559.187608	687.5999756
1559.700433	688.5999756
1560.213205	690.0
1560.725921	693.2000122
1561.238584	689.5999756
1561.751192	688.4000244
1562.263746	691.2000122
1562.776246	692.2000122
1563.288691	688.7999878
1563.801082	691.5999756
1564.313419	687.2000122
1564.825701	690.4000244
1565.337929	691.7999878
1565.850103	694.0
1566.362223	688.0
1566.874288	692.7999878
1567.386299	694.7999878
1567.898256	694.4000244
1568.410158	694.4000244
1568.922007	693.7999878
1569.4338	691.0
1569.94554	692.5999756
1570.457226	690.7999878
1570.968857	692.5999756
1571.480434	690.5999756
1571.991956	690.7999878
1572.503425	687.2000122
1573.014839	691.4000244
1573.526199	685.5999756
1574.037505	690.0
1574.548756	687.0
1575.059953	690.2000122
1575.571096	688.4000244
1576.082185	688.4000244
1576.59322	687.7999878
1577.1042	690.0
1577.615126	688.5999756
1578.125998	687.0
1578.636816	687.0
1579.14758	691.0
1579.658289	692.0
1580.168944	686.0
1580.679545	689.0
1581.190092	690.5999756
1581.700585	689.0
1582.211023	691.7999878
1582.721407	689.5999756
1583.231737	690.2000122
1583.742013	690.0
1584.252235	688.5999756
1584.762403	686.4000244
1585.272516	688.7999878
1585.782575	689.0
1586.292581	689.4000244
1586.802532	690.0
1587.312428	692.0
1587.822271	687.7999878
1588.33206	686.0
1588.841794	689.4000244
1589.351474	688.7999878
1589.8611	684.4000244
1590.370672	691.0
1590.88019	685.5999756
1591.389654	691.7999878
1591.899064	690.7999878
1592.408419	690.4000244
