1042.452273	715.2000122
1043.018714	712.2000122
1043.585098	711.4000244
1044.151424	714.4000244
1044.717692	719.2000122
1045.283903	713.7999878
1045.850056	709.7999878
1046.416151	707.2000122
1046.982188	712.2000122
1047.548167	709.0
1048.114089	708.0
1048.679953	711.4000244
1049.24576	712.5999756
1049.811509	708.0
1050.3772	706.2000122
1050.942833	709.4000244
1051.508408	709.0
1052.073926	706.7999878
1052.639387	712.4000244
1053.204789	705.2000122
1053.770134	712.2000122
1054.335421	708.7999878
1054.900651	707.0
1055.465823	705.7999878
1056.030937	709.5999756
1056.595993	710.0
1057.160992	706.7999878
1057.725934	709.4000244
1058.290817	704.4000244
1058.855643	705.2000122
1059.420411	705.4000244
1059.985122	706.5999756
1060.549775	706.4000244
1061.114371	706.0
1061.678908	708.7999878
1062.243389	711.7999878
1062.807811	709.5999756
1063.372176	710.2000122
1063.936483	704.0
1064.500733	709.5999756
1065.064925	704.2000122
1065.62906	708.4000244
1066.193137	707.4000244
1066.757156	708.0
1067.321118	708.2000122
1067.885022	706.5999756
1068.448869	704.7999878
1069.012658	707.5999756
1069.57639	705.2000122
1070.140063	714.0
1070.70368	706.7999878
1071.267239	707.2000122
1071.83074	701.7999878
1072.394184	710.0
1072.95757	709.4000244
1073.520899	707.4000244
1074.08417	703.7999878
1074.647383	707.4000244
1075.21054	709.2000122
1075.773638	703.0
1076.336679	709.7999878
1076.899663	702.4000244
1077.462589	711.0
1078.025457	708.2000122
1078.588268	710.7999878
1079.151022	709.4000244
1079.713718	708.0
1080.276356	704.2000122
1080.838937	705.5999756
1081.401461	709.4000244
1081.963927	706.7999878
1082.526336	709.5999756
1083.088687	704.5999756
1083.650981	711.4000244
1084.213217	711.0
1084.775396	710.4000244
1085.337517	711.7999878
1085.899581	710.7999878
1086.461587	709.4000244
1087.023536	712.0
1087.585428	715.0
1088.147262	712.0
1088.709039	715.4000244
1089.270758	710.5999756
1089.83242	715.7999878
1090.394024	718.5999756
1090.955571	714.4000244
1091.517061	716.2000122
1092.078493	719.7999878
1092.639868	719.0
1093.201185	723.4000244
1093.762445	722.2000122
1094.323648	721.0
1094.884793	720.7999878
1095.445881	719.4000244
1096.006911	723.2000122
1096.567884	716.4000244
1097.1288	721.7999878
1097.689659	715.2000122
1098.25046	716.5999756
1098.811203	716.2000122
1099.37189	717.7999878
1099.932518	715.0
1100.49309	713.0
1101.053604	708.0
1101.614061	708.5999756
1102.174461	714.4000244
1102.734803	711.4000244
1103.295088	710.2000122
1103.855316	708.4000244
1104.415486	710.0
1104.975599	711.0
1105.535655	711.7999878
1106.095653	714.7999878
1106.655594	713.5999756
1107.215478	711.2000122
1107.775305	708.4000244
1108.335074	712.5999756
1108.894786	707.5999756
1109.45444	709.2000122
1110.014038	709.4000244
1110.573578	710.4000244
1111.133061	709.7999878
1111.692486	708.0
1112.251854	710.4000244
1112.811165	709.4000244
1113.370419	708.7999878
1113.929616	708.5999756
1114.488755	710.5999756
1115.047837	708.2000122
1115.606862	706.7999878
1116.16583	708.7999878
1116.72474	706.7999878
1117.283593	710.7999878
1117.842389	707.0
1118.401128	706.4000244
1118.959809	704.7999878
1119.518433	703.5999756
1120.077	706.7999878
1120.63551	708.2000122
1121.193963	707.7999878
1121.752358	705.5999756
1122.310697	706.4000244
1122.868978	702.7999878
1123.427202	705.0
1123.985368	705.0
1124.543478	704.2000122
1125.10153	708.0
1125.659526	709.7999878
1126.217464	705.7999878
1126.775345	708.5999756
1127.333168	703.4000244
1127.890935	709.0
1128.448644	710.4000244
1129.006297	706.4000244
1129.563892	708.2000122
1130.12143	704.7999878
1130.678911	705.7999878
1131.236335	709.2000122
1131.793701	702.4000244
1132.351011	708.5999756
1132.908263	706.5999756
1133.465458	709.0
1134.022597	706.4000244
1134.579678	705.7999878
1135.136702	704.5999756
1135.693669	705.5999756
1136.250578	704.2000122
1136.807431	708.4000244
1137.364227	707.7999878
1137.920965	706.7999878
1138.477647	705.4000244
1139.034271	705.4000244
1139.590839	706.2000122
1140.147349	706.5999756
1140.703802	707.7999878
1141.260198	704.5999756
1141.816537	705.2000122
1142.37282	709.5999756
1142.929045	710.0
1143.485213	706.7999878
1144.041323	705.2000122
1144.597377	708.2000122
1145.153374	706.0
1145.709314	708.4000244
1146.265197	710.0
1146.821023	708.7999878
1147.376792	708.4000244
1147.932503	704.2000122
1148.488158	706.0
1149.043756	705.4000244
1149.599297	705.5999756
1150.154781	704.7999878
1150.710207	708.5999756
1151.265577	710.4000244
1151.82089	706.0
1152.376146	707.4000244
1152.931345	706.4000244
1153.486487	713.4000244
1154.041572	703.0
1154.5966	705.0
1155.151571	707.4000244
1155.706485	705.5999756
1156.261342	705.0
1156.816142	709.5999756
1157.370885	703.7999878
1157.925572	705.2000122
1158.480201	709.2000122
1159.034774	707.0
1159.589289	704.5999756
1160.143748	706.2000122
1160.698149	710.0
1161.252494	706.5999756
1161.806782	704.4000244
1162.361013	707.5999756
1162.915187	709.2000122
1163.469304	705.7999878
1164.023364	705.7999878
1164.577368	708.2000122
1165.131314	708.2000122
1165.685204	703.0
1166.239036	707.4000244
1166.792812	709.0
1167.346531	708.7999878
1167.900193	709.7999878
1168.453798	710.2000122
1169.007347	703.5999756
1169.560838	707.2000122
1170.114273	710.4000244
1170.66765	706.4000244
1171.220971	707.2000122
1171.774235	711.5999756
1172.327443	707.2000122
1172.880593	703.0
1173.433687	707.5999756
1173.986723	704.0
1174.539703	710.5999756
1175.092626	709.4000244
1175.645493	710.0
1176.198302	709.7999878
1176.751055	704.5999756
1177.303751	708.4000244
1177.85639	711.7999878
1178.408972	708.4000244
1178.961498	712.4000244
1179.513966	709.4000244
1180.066378	706.0
1180.618733	707.4000244
1181.171032	708.5999756
1181.723273	707.4000244
1182.275458	707.0
1182.827586	712.0
1183.379657	706.0
1183.931672	709.0
1184.48363	710.0
1185.035531	703.2000122
1185.587375	709.4000244
1186.139162	712.0
1186.690893	707.7999878
1187.242567	706.5999756
1187.794184	704.7999878
1188.345745	705.7999878
1188.897249	709.2000122
1189.448696	707.7999878
1190.000086	709.7999878
1190.55142	710.0
1191.102697	707.5999756
1191.653918	712.2000122
1192.205081	706.5999756
1192.756188	707.4000244
1193.307238	726.2000122
1193.858232	710.5999756
1194.409169	705.7999878
1194.960049	707.0
1195.510872	708.2000122
1196.061639	712.5999756
1196.612349	709.0
1197.163003	708.0
1197.713599	711.5999756
1198.264139	707.4000244
1198.814623	711.2000122
1199.36505	711.5999756
1199.91542	709.2000122
1200.465734	708.7999878
1201.01599	710.7999878
1201.566191	707.0
1202.116334	707.5999756
1202.666421	707.7999878
1203.216452	710.7999878
1203.766425	707.0
1204.316343	709.0
1204.866203	708.0
1205.416007	713.0
1205.965754	710.5999756
1206.515445	705.5999756
1207.065079	712.0
1207.614657	711.0
1208.164177	709.2000122
1208.713642	712.2000122
1209.26305	710.5999756
1209.812401	705.0
1210.361695	705.2000122
1210.910933	706.4000244
1211.460115	710.0
1212.00924	713.0
1212.558308	709.2000122
1213.10732	705.7999878
1213.656275	713.2000122
1214.205174	705.4000244
1214.754016	711.5999756
1215.302801	712.0
1215.85153	708.4000244
1216.400203	710.2000122
1216.948819	708.4000244
1217.497378	710.7999878
1218.045881	708.0
1218.594327	705.4000244
1219.142717	713.2000122
1219.691051	712.5999756
1220.239327	710.4000244
1220.787548	706.4000244
1221.335712	712.0
1221.883819	709.4000244
1222.43187	705.4000244
1222.979864	705.2000122
1223.527802	713.0
1224.075683	713.2000122
1224.623508	708.5999756
1225.171277	710.5999756
1225.718989	712.0
1226.266644	709.2000122
1226.814243	712.0
1227.361786	710.7999878
1227.909272	705.4000244
1228.456702	713.4000244
1229.004075	710.7999878
1229.551392	710.4000244
1230.098652	706.0
1230.645856	712.4000244
1231.193003	712.2000122
1231.740094	713.4000244
1232.287129	711.4000244
1232.834107	708.7999878
1233.381029	715.0
1233.927894	709.2000122
1234.474703	716.4000244
1235.021455	713.0
1235.568151	711.4000244
1236.114791	711.2000122
1236.661374	714.0
1237.207901	711.4000244
1237.754372	713.5999756
1238.300786	711.0
1238.847144	707.5999756
1239.393445	719.7999878
1239.93969	714.7999878
1240.485879	712.7999878
1241.032011	711.0
1241.578087	713.2000122
1242.124106	713.2000122
1242.67007	711.2000122
1243.215976	710.2000122
1243.761827	715.2000122
1244.307621	712.2000122
1244.853359	715.2000122
1245.39904	713.5999756
1245.944665	712.5999756
1246.490234	710.7999878
1247.035746	712.5999756
1247.581203	714.2000122
1248.126602	716.5999756
1248.671946	712.7999878
1249.217233	717.7999878
1249.762464	712.4000244
1250.307638	718.5999756
1250.852757	711.7999878
1251.397819	718.7999878
1251.942824	711.0
1252.487774	714.4000244
1253.032667	719.4000244
1253.577503	714.7999878
1254.122284	718.0
1254.667008	716.5999756
1255.211676	710.5999756
1255.756288	710.0
1256.300843	716.2000122
1256.845342	714.5999756
1257.389785	720.4000244
1257.934172	722.4000244
1258.478502	720.7999878
1259.022776	722.4000244
1259.566994	725.0
1260.111156	743.5999756
1260.655261	726.0
1261.199311	726.7999878
1261.743304	733.0
1262.28724	737.2000122
1262.831121	741.4000244
1263.374945	747.0
1263.918713	748.7999878
1264.462425	748.0
1265.006081	735.4000244
1265.54968	730.0
1266.093223	725.2000122
1266.636711	726.5999756
1267.180141	726.4000244
1267.723516	720.4000244
1268.266835	719.5999756
1268.810097	723.7999878
1269.353303	723.2000122
1269.896453	720.5999756
1270.439547	719.2000122
1270.982584	720.5999756
1271.525566	721.0
1272.068491	721.4000244
1272.61136	722.5999756
1273.154173	724.5999756
1273.69693	721.7999878
1274.239631	726.7999878
1274.782275	722.4000244
1275.324864	723.5999756
1275.867396	723.7999878
1276.409872	722.5999756
1276.952292	724.7999878
1277.494656	722.0
1278.036964	728.4000244
1278.579215	732.2000122
1279.121411	730.4000244
1279.66355	733.5999756
1280.205634	743.2000122
1280.747661	751.5999756
1281.289632	784.0
1281.831547	826.4000244
1282.373406	933.0
1282.915209	1111.599976
1283.456955	1278.599976
1283.998646	1281.599976
1284.540281	1126.800049
1285.081859	942.5999756
1285.623381	833.5999756
1286.164848	782.7999878
1286.706258	757.7999878
1287.247612	748.4000244
1287.788911	739.7999878
1288.330153	732.4000244
1288.871339	731.7999878
1289.412469	729.5999756
1289.953543	724.5999756
1290.494561	722.7999878
1291.035523	720.4000244
1291.576428	725.0
1292.117278	729.2000122
1292.658072	721.5999756
1293.19881	723.2000122
1293.739492	719.7999878
1294.280118	723.5999756
1294.820687	718.7999878
1295.361201	722.5999756
1295.901659	717.7999878
1296.442061	721.4000244
1296.982406	721.4000244
1297.522696	722.7999878
1298.06293	721.5999756
1298.603108	721.5999756
1299.143229	721.0
1299.683295	720.0
1300.223305	716.4000244
1300.763259	720.4000244
1301.303157	713.7999878
1301.842999	718.5999756
1302.382785	721.0
1302.922515	718.4000244
1303.462189	714.5999756
1304.001807	719.0
1304.541369	721.7999878
1305.080875	714.7999878
1305.620326	715.5999756
1306.15972	717.0
1306.699058	722.7999878
1307.238341	716.7999878
1307.777567	714.7999878
1308.316738	715.7999878
1308.855853	713.2000122
1309.394912	715.7999878
1309.933915	715.2000122
1310.472862	717.5999756
1311.011753	715.4000244
1311.550588	711.0
1312.089367	718.0
1312.62809	715.7999878
1313.166758	716.5999756
1313.70537	714.2000122
1314.243925	710.5999756
1314.782425	717.7999878
1315.320869	717.7999878
1315.859257	715.4000244
1316.397589	717.7999878
1316.935866	717.2000122
1317.474086	719.2000122
1318.012251	717.5999756
1318.55036	716.2000122
1319.088413	712.4000244
1319.62641	715.4000244
1320.164351	714.5999756
1320.702236	714.2000122
1321.240066	714.4000244
1321.777839	714.5999756
1322.315557	723.5999756
1322.853219	716.2000122
1323.390826	714.7999878
1323.928376	719.4000244
1324.465871	716.7999878
1325.003309	715.5999756
1325.540692	713.0
1326.07802	714.2000122
1326.615291	717.0
1327.152506	714.5999756
1327.689666	721.4000244
1328.22677	716.7999878
1328.763818	716.5999756
1329.300811	717.5999756
1329.837747	715.2000122
1330.374628	717.5999756
1330.911453	716.0
1331.448222	715.5999756
1331.984936	716.7999878
1332.521594	716.0
1333.058196	716.0
1333.594742	715.2000122
1334.131232	714.2000122
1334.667667	717.0
1335.204046	717.2000122
1335.740369	717.7999878
1336.276637	712.7999878
1336.812848	716.4000244
1337.349004	715.0
1337.885105	715.0
1338.421149	719.2000122
1338.957138	716.7999878
1339.493071	716.0
1340.028949	718.7999878
1340.56477	719.0
1341.100536	716.2000122
1341.636246	716.2000122
1342.171901	714.0
1342.7075	723.2000122
1343.243043	716.0
1343.77853	714.7999878
1344.313962	720.2000122
1344.849338	716.2000122
1345.384659	714.5999756
1345.919923	716.2000122
1346.455133	710.4000244
1346.990286	716.0
1347.525384	720.0
1348.060426	716.5999756
1348.595412	717.0
1349.130343	719.0
1349.665218	716.0
1350.200037	711.2000122
1350.734801	715.4000244
1351.269509	718.2000122
1351.804162	716.4000244
1352.338758	715.0
1352.8733	711.2000122
1353.407785	716.7999878
1353.942215	720.4000244
1354.476589	716.2000122
1355.010908	720.4000244
1355.545171	719.0
1356.079379	722.4000244
1356.61353	716.4000244
1357.147627	724.0
1357.681667	718.5999756
1358.215652	719.0
1358.749582	716.2000122
1359.283456	717.5999756
1359.817274	721.7999878
1360.351037	718.0
1360.884744	713.4000244
1361.418395	720.2000122
1361.951991	720.0
1362.485531	722.2000122
1363.019016	721.5999756
1363.552445	722.0
1364.085819	719.2000122
1364.619137	718.7999878
1365.1524	726.5999756
1365.685607	719.4000244
1366.218758	725.4000244
1366.751854	719.2000122
1367.284894	720.2000122
1367.817879	723.4000244
1368.350808	727.4000244
1368.883682	727.4000244
1369.4165	730.4000244
1369.949263	749.0
1370.48197	747.5999756
1371.014622	725.7999878
1371.547218	724.2000122
1372.079758	723.2000122
1372.612244	723.0
1373.144673	725.7999878
1373.677047	723.2000122
1374.209366	725.5999756
1374.741629	731.5999756
1375.273836	730.0
1375.805989	721.4000244
1376.338085	730.4000244
1376.870126	728.0
1377.402112	727.0
1377.934042	731.2000122
1378.465917	727.0
1378.997736	728.7999878
1379.5295	729.2000122
1380.061208	729.2000122
1380.592861	731.7999878
1381.124459	733.7999878
1381.656	739.5999756
1382.187487	744.0
1382.718918	738.5999756
1383.250294	744.5999756
1383.781614	748.4000244
1384.312879	761.7999878
1384.844088	771.0
1385.375242	801.2000122
1385.90634	846.4000244
1386.437383	951.4000244
1386.968371	1213.199951
1387.499303	1700.0
1388.03018	1977.0
1388.561001	1534.199951
1389.091767	1087.199951
1389.622478	887.7999878
1390.153133	812.7999878
1390.683733	774.4000244
1391.214277	753.7999878
1391.744766	747.0
1392.2752	743.5999756
1392.805578	738.7999878
1393.335901	732.4000244
1393.866168	737.4000244
1394.396381	731.2000122
1394.926537	729.4000244
1395.456639	727.0
1395.986685	732.7999878
1396.516675	725.4000244
1397.046611	727.5999756
1397.576491	728.0
1398.106315	723.5999756
1398.636084	728.0
1399.165798	727.0
1399.695457	731.4000244
1400.22506	727.4000244
1400.754608	728.0
1401.284101	728.0
1401.813538	729.2000122
1402.34292	729.7999878
1402.872247	729.5999756
1403.401518	735.0
1403.930734	729.2000122
1404.459895	730.4000244
1404.989	730.2000122
1405.51805	727.2000122
1406.047045	728.2000122
1406.575984	736.7999878
1407.104869	740.4000244
1407.633697	745.4000244
1408.162471	762.7999878
1408.691189	766.4000244
1409.219852	778.0
1409.74846	779.4000244
1410.277013	772.7999878
1410.80551	752.5999756
1411.333952	740.4000244
1411.862339	731.5999756
1412.39067	728.4000244
1412.918946	727.4000244
1413.447167	725.2000122
1413.975333	725.4000244
1414.503444	718.7999878
1415.031499	717.4000244
1415.559499	731.5999756
1416.087444	720.5999756
1416.615333	717.4000244
1417.143167	719.5999756
1417.670947	717.5999756
1418.19867	719.0
1418.726339	720.7999878
1419.253952	724.7999878
1419.781511	718.4000244
1420.309014	719.0
1420.836461	719.2000122
1421.363854	721.2000122
1421.891191	717.2000122
1422.418474	722.7999878
1422.945701	718.5999756
1423.472872	716.0
1423.999989	718.2000122
1424.52705	717.5999756
1425.054057	721.4000244
1425.581008	720.2000122
1426.107904	719.5999756
1426.634745	718.0
1427.16153	720.5999756
1427.688261	714.7999878
1428.214936	713.7999878
1428.741556	722.2000122
1429.268121	718.4000244
1429.794631	721.5999756
1430.321085	720.5999756
1430.847485	718.0
1431.373829	713.0
1431.900118	717.5999756
1432.426353	718.4000244
1432.952532	719.0
1433.478655	715.4000244
1434.004724	716.0
1434.530738	713.5999756
1435.056696	719.2000122
1435.5826	719.7999878
1436.108448	720.2000122
1436.634241	718.7999878
1437.159979	719.2000122
1437.685662	721.4000244
1438.21129	721.0
1438.736863	719.4000244
1439.262381	716.2000122
1439.787843	716.2000122
1440.313251	721.0
1440.838603	718.7999878
1441.3639	718.0
1441.889143	716.7999878
1442.41433	721.5999756
1442.939462	716.4000244
1443.464539	716.2000122
1443.989561	712.7999878
1444.514528	718.5999756
1445.03944	721.2000122
1445.564297	720.0
1446.089099	718.5999756
1446.613846	714.7999878
1447.138537	716.4000244
1447.663174	718.4000244
1448.187756	710.0
1448.712282	717.0
1449.236754	716.5999756
1449.761171	716.5999756
1450.285532	717.4000244
1450.809839	718.2000122
1451.33409	715.2000122
1451.858287	718.5999756
1452.382428	712.4000244
1452.906515	713.7999878
1453.430546	715.7999878
1453.954523	715.4000244
1454.478444	715.2000122
1455.002311	718.7999878
1455.526123	717.4000244
1456.049879	714.0
1456.573581	717.7999878
1457.097227	710.5999756
1457.620819	712.5999756
1458.144356	713.5999756
1458.667837	715.4000244
1459.191264	714.7999878
1459.714636	716.2000122
1460.237952	714.5999756
1460.761214	716.5999756
1461.284421	717.5999756
1461.807573	718.5999756
1462.33067	719.7999878
1462.853712	733.4000244
1463.899632	723.4000244
1464.422509	720.0
1464.945331	712.2000122
1465.468099	715.5999756
1465.990811	715.5999756
1466.513469	715.2000122
1467.036071	718.0
1467.558619	715.7999878
1468.081112	719.5999756
1468.60355	718.0
1469.125933	712.2000122
1469.648261	714.5999756
1470.170534	723.4000244
1470.692752	712.4000244
1471.214916	715.7999878
1471.737024	716.4000244
1472.259078	715.0
1472.781077	720.2000122
1473.303021	712.2000122
1473.82491	718.4000244
1474.346744	718.5999756
1474.868523	710.7999878
1475.390248	716.5999756
1475.911917	713.5999756
1476.433532	715.2000122
1476.955092	713.0
1477.476597	716.0
1477.998047	715.2000122
1478.519442	715.0
1479.040783	715.7999878
1479.562068	709.2000122
1480.083299	717.4000244
1480.604475	711.0
1481.125596	712.0
1481.646663	715.0
1482.167674	710.2000122
1482.688631	713.0
1483.209533	714.5999756
1483.73038	715.4000244
1484.251172	711.5999756
1484.771909	719.0
1485.292592	714.4000244
1485.81322	714.7999878
1486.333793	718.2000122
1486.854311	712.4000244
1487.374775	719.2000122
1487.895183	716.4000244
1488.415537	714.7999878
1488.935836	719.4000244
1489.456081	716.4000244
1489.97627	717.7999878
1490.496405	717.0
1491.016485	713.7999878
1491.536511	714.7999878
1492.056481	719.2000122
1492.576397	717.0
1493.096258	714.0
1493.616064	711.0
1494.135816	715.4000244
1494.655513	719.5999756
1495.175155	711.0
1495.694742	719.0
1496.214274	716.0
1496.733752	711.7999878
1497.253175	711.7999878
1497.772544	717.7999878
1498.291858	717.7999878
1498.811116	715.0
1499.330321	715.4000244
1499.84947	725.0
1500.368565	718.4000244
1500.887605	717.7999878
1501.406591	712.5999756
1501.925521	714.4000244
1502.444397	713.0
1502.963219	714.7999878
1503.481985	714.0
1504.000697	717.0
1504.519355	713.7999878
1505.037957	713.0
1505.556505	716.0
1506.074999	713.7999878
1506.593437	716.4000244
1507.111821	715.4000244
1507.63015	716.2000122
1508.148425	716.7999878
1508.666645	714.7999878
1509.18481	718.2000122
1509.702921	717.4000244
1510.220977	714.7999878
1510.738979	722.4000244
1511.256925	714.7999878
1511.774817	715.0
1512.292655	717.2000122
1512.810438	713.5999756
1513.328166	715.0
1513.84584	717.0
1514.363459	715.0
1514.881023	717.0
1515.398533	713.4000244
1515.915988	712.2000122
1516.433389	714.7999878
1516.950734	712.2000122
1517.468026	717.0
1517.985263	715.7999878
1518.502445	716.0
1519.019572	717.7999878
1519.536645	713.0
1520.053664	716.5999756
1520.570628	711.7999878
1521.087537	714.4000244
1521.604392	720.7999878
1522.121192	715.0
1522.637937	716.4000244
1523.154628	718.2000122
1523.671265	717.0
1524.187847	715.5999756
1524.704374	717.0
1525.220847	716.0
1525.737265	724.4000244
1526.253629	747.0
1526.769938	727.0
1527.286192	721.0
1527.802392	717.5999756
1528.318538	714.2000122
1528.834629	717.2000122
1529.350666	713.7999878
1529.866648	716.7999878
1530.382575	717.0
1530.898448	716.7999878
1531.414266	721.7999878
1531.93003	719.4000244
1532.44574	717.5999756
1532.961395	714.5999756
1533.476995	715.2000122
1533.992541	715.4000244
1534.508033	711.0
1535.02347	718.7999878
1535.538852	717.2000122
1536.05418	715.7999878
1536.569454	715.0
1537.084673	714.4000244
1537.599837	717.7999878
1538.114947	717.4000244
1538.630003	718.2000122
1539.145004	714.7999878
1539.659951	715.4000244
1540.174843	717.2000122
1540.689681	720.0
1541.204465	715.7999878
1541.719194	716.0
1542.233868	714.0
1542.748488	717.2000122
1543.263054	720.0
1543.777565	715.4000244
1544.292022	717.2000122
1544.806424	720.5999756
1545.320772	714.2000122
1545.835066	719.0
1546.349305	717.7999878
1546.863489	715.5999756
1547.37762	720.0
1547.891696	717.7999878
1548.405717	716.4000244
1548.919684	717.5999756
1549.433597	718.0
1549.947455	716.7999878
1550.461259	719.4000244
1550.975009	721.2000122
1551.488704	717.7999878
1552.002345	720.0
1552.515931	717.2000122
1553.029463	712.5999756
1553.542941	716.5999756
1554.056364	718.7999878
1554.569733	715.7999878
1555.083048	720.5999756
1555.596308	716.2000122
1556.109514	715.7999878
1556.622665	721.0
1557.135762	718.5999756
1557.648805	720.2000122
1558.161794	716.7999878
1558.674728	719.4000244
1559.187608	719.2000122
1559.700433	719.5999756
1560.213205	722.0
1560.725921	717.7999878
1561.238584	718.0
1561.751192	715.7999878
1562.263746	721.4000244
1562.776246	716.4000244
1563.288691	719.5999756
1563.801082	713.7999878
1564.313419	716.7999878
1564.825701	721.7999878
1565.337929	723.7999878
1565.850103	726.0
1566.362223	720.4000244
1566.874288	729.5999756
1567.386299	722.5999756
1567.898256	724.0
1568.410158	722.4000244
1568.922007	718.0
1569.4338	724.0
1569.94554	720.0
1570.457226	717.4000244
1570.968857	719.4000244
1571.480434	719.5999756
1571.991956	722.5999756
1572.503425	720.2000122
1573.014839	718.4000244
1573.526199	715.7999878
1574.037505	716.5999756
1574.548756	724.0
1575.059953	716.4000244
1575.571096	715.4000244
1576.082185	721.2000122
1576.59322	719.2000122
1577.1042	717.4000244
1577.615126	721.4000244
1578.125998	721.2000122
1578.636816	719.7999878
1579.14758	722.4000244
1579.658289	717.2000122
1580.168944	723.5999756
1580.679545	719.7999878
1581.190092	719.5999756
1581.700585	719.4000244
1582.211023	714.2000122
1582.721407	720.4000244
1583.231737	717.0
1583.742013	718.7999878
1584.252235	717.4000244
1584.762403	719.2000122
1585.272516	718.4000244
1585.782575	721.2000122
1586.292581	724.2000122
1586.802532	721.7999878
1587.312428	716.4000244
1587.822271	720.5999756
1588.33206	719.0
1588.841794	713.4000244
1589.351474	722.0
1589.8611	716.0
1590.370672	722.4000244
1590.88019	720.2000122
1591.389654	721.0
1591.899064	721.5999756
1592.408419	718.4000244
