1042.452273	683.5999756
1043.018714	682.0
1043.585098	678.7999878
1044.151424	682.0
1044.717692	679.0
1045.283903	680.4000244
1045.850056	678.7999878
1046.416151	678.2000122
1046.982188	681.2000122
1047.548167	674.0
1048.114089	677.0
1048.679953	676.2000122
1049.24576	676.4000244
1049.811509	676.5999756
1050.3772	678.2000122
1050.942833	675.0
1051.508408	676.5999756
1052.073926	677.7999878
1052.639387	672.7999878
1053.204789	675.2000122
1053.770134	677.5999756
1054.335421	675.0
1054.900651	676.7999878
1055.465823	675.0
1056.030937	672.2000122
1056.595993	672.5999756
1057.160992	674.7999878
1057.725934	673.7999878
1058.290817	674.2000122
1058.855643	673.5999756
1059.420411	674.0
1059.985122	675.2000122
1060.549775	676.0
1061.114371	673.4000244
1061.678908	671.0
1062.243389	676.5999756
1062.807811	671.7999878
1063.372176	675.2000122
1063.936483	674.0
1064.500733	674.0
1065.064925	672.7999878
1065.62906	672.2000122
1066.193137	674.7999878
1066.757156	676.2000122
1067.321118	671.2000122
1067.885022	675.0
1068.448869	669.5999756
1069.012658	672.2000122
1069.57639	671.5999756
1070.140063	679.2000122
1070.70368	667.2000122
1071.267239	671.7999878
1071.83074	671.5999756
1072.394184	673.7999878
1072.95757	671.7999878
1073.520899	668.7999878
1074.08417	672.0
1074.647383	669.4000244
1075.21054	671.0
1075.773638	673.0
1076.336679	673.7999878
1076.899663	674.0
1077.462589	668.0
1078.025457	674.2000122
1078.588268	669.2000122
1079.151022	670.2000122
1079.713718	670.7999878
1080.276356	671.7999878
1080.838937	668.0
1081.401461	673.5999756
1081.963927	670.5999756
1082.526336	672.7999878
1083.088687	671.0
1083.650981	672.7999878
1084.213217	671.0
1084.775396	674.0
1085.337517	670.2000122
1085.899581	673.2000122
1086.461587	671.4000244
1087.023536	672.4000244
1087.585428	673.4000244
1088.147262	669.5999756
1088.709039	672.0
1089.270758	670.4000244
1089.83242	674.4000244
1090.394024	673.0
1090.955571	673.0
1091.517061	671.4000244
1092.078493	671.2000122
1092.639868	669.4000244
1093.201185	668.7999878
1093.762445	670.2000122
1094.323648	671.0
1094.884793	669.5999756
1095.445881	670.4000244
1096.006911	667.5999756
1096.567884	673.4000244
1097.1288	675.5999756
1097.689659	673.0
1098.25046	670.5999756
1098.811203	671.7999878
1099.37189	670.0
1099.932518	671.7999878
1100.49309	676.4000244
1101.053604	676.0
1101.614061	671.2000122
1102.174461	670.5999756
1102.734803	672.7999878
1103.295088	672.2000122
1103.855316	673.4000244
1104.415486	669.4000244
1104.975599	672.7999878
1105.535655	671.4000244
1106.095653	669.2000122
1106.655594	674.2000122
1107.215478	675.0
1107.775305	674.7999878
1108.335074	673.2000122
1108.894786	672.5999756
1109.45444	676.2000122
1110.014038	671.7999878
1110.573578	671.7999878
1111.133061	673.7999878
1111.692486	671.5999756
1112.251854	672.5999756
1112.811165	676.2000122
1113.370419	671.2000122
1113.929616	674.5999756
1114.488755	672.5999756
1115.047837	675.7999878
1115.606862	677.2000122
1116.16583	672.0
1116.72474	676.0
1117.283593	672.7999878
1117.842389	670.7999878
1118.401128	675.2000122
1118.959809	673.2000122
1119.518433	671.0
1120.077	674.2000122
1120.63551	673.5999756
1121.193963	669.7999878
1121.752358	669.7999878
1122.310697	671.2000122
1122.868978	670.4000244
1123.427202	670.0
1123.985368	672.4000244
1124.543478	670.7999878
1125.10153	670.0
1125.659526	669.7999878
1126.217464	671.4000244
1126.775345	672.7999878
1127.333168	669.2000122
1127.890935	669.7999878
1128.448644	671.7999878
1129.006297	672.2000122
1129.563892	671.4000244
1130.12143	672.4000244
1130.678911	670.2000122
1131.236335	671.5999756
1131.793701	670.0
1132.351011	669.5999756
1132.908263	670.2000122
1133.465458	672.7999878
1134.022597	670.5999756
1134.579678	671.0
1135.136702	673.2000122
1135.693669	671.4000244
1136.250578	668.4000244
1136.807431	673.2000122
1137.364227	672.2000122
1137.920965	670.5999756
1138.477647	670.2000122
1139.034271	669.4000244
1139.590839	670.5999756
1140.147349	672.5999756
1140.703802	672.2000122
1141.260198	669.2000122
1141.816537	672.2000122
1142.37282	668.4000244
1142.929045	670.2000122
1143.485213	670.2000122
1144.041323	672.4000244
1144.597377	670.4000244
1145.153374	668.5999756
1145.709314	670.5999756
1146.265197	673.5999756
1146.821023	671.7999878
1147.376792	672.2000122
1147.932503	670.5999756
1148.488158	670.5999756
1149.043756	668.5999756
1149.599297	670.4000244
1150.154781	671.0
1150.710207	671.7999878
1151.265577	672.4000244
1151.82089	671.0
1152.376146	672.4000244
1152.931345	673.2000122
1153.486487	668.5999756
1154.041572	671.5999756
1154.5966	669.0
1155.151571	669.4000244
1155.706485	670.2000122
1156.261342	671.0
1156.816142	668.7999878
1157.370885	673.2000122
1157.925572	668.5999756
1158.480201	669.2000122
1159.034774	671.2000122
1159.589289	669.0
1160.143748	671.4000244
1160.698149	670.4000244
1161.252494	670.2000122
1161.806782	670.4000244
1162.361013	671.0
1162.915187	670.4000244
1163.469304	670.2000122
1164.023364	669.5999756
1164.577368	671.5999756
1165.131314	671.5999756
1165.685204	671.2000122
1166.239036	720.4000244
1166.792812	672.0
1167.346531	671.0
1167.900193	672.4000244
1168.453798	670.2000122
1169.007347	671.2000122
1169.560838	670.4000244
1170.114273	670.4000244
1170.66765	671.4000244
1171.220971	669.4000244
1171.774235	673.2000122
1172.327443	670.2000122
1172.880593	671.2000122
1173.433687	667.7999878
1173.986723	671.4000244
1174.539703	672.7999878
1175.092626	669.2000122
1175.645493	672.7999878
1176.198302	670.7999878
1176.751055	670.4000244
1177.303751	671.4000244
1177.85639	669.4000244
1178.408972	670.2000122
1178.961498	669.7999878
1179.513966	670.4000244
1180.066378	670.0
1180.618733	670.0
1181.171032	672.0
1181.723273	682.5999756
1182.275458	1521.0
1182.827586	677.2000122
1183.379657	670.5999756
1183.931672	671.7999878
1184.48363	669.4000244
1185.035531	672.5999756
1185.587375	671.4000244
1186.139162	670.4000244
1186.690893	674.0
1187.242567	669.7999878
1187.794184	671.0
1188.345745	669.4000244
1188.897249	672.5999756
1189.448696	669.0
1190.000086	672.4000244
1190.55142	668.2000122
1191.102697	670.2000122
1191.653918	669.0
1192.205081	671.7999878
1192.756188	673.0
1193.307238	692.5999756
1193.858232	670.2000122
1194.409169	669.4000244
1194.960049	671.5999756
1195.510872	670.4000244
1196.061639	672.5999756
1196.612349	670.2000122
1197.163003	670.5999756
1197.713599	671.4000244
1198.264139	674.7999878
1198.814623	670.0
1199.36505	671.7999878
1199.91542	670.7999878
1200.465734	673.2000122
1201.01599	670.2000122
1201.566191	670.0
1202.116334	671.2000122
1202.666421	671.7999878
1203.216452	669.5999756
1203.766425	671.5999756
1204.316343	671.0
1204.866203	670.2000122
1205.416007	669.2000122
1205.965754	669.4000244
1206.515445	671.2000122
1207.065079	671.0
1207.614657	671.2000122
1208.164177	671.0
1208.713642	670.0
1209.26305	671.5999756
1209.812401	671.0
1210.361695	671.4000244
1210.910933	671.0
1211.460115	670.2000122
1212.00924	674.0
1212.558308	672.5999756
1213.10732	674.5999756
1213.656275	674.5999756
1214.205174	669.7999878
1214.754016	673.4000244
1215.302801	671.4000244
1215.85153	670.7999878
1216.400203	674.7999878
1216.948819	671.5999756
1217.497378	673.2000122
1218.045881	670.2000122
1218.594327	671.4000244
1219.142717	669.7999878
1219.691051	671.0
1220.239327	673.5999756
1220.787548	673.7999878
1221.335712	671.4000244
1221.883819	673.2000122
1222.43187	674.5999756
1222.979864	672.7999878
1223.527802	671.2000122
1224.075683	674.0
1224.623508	672.0
1225.171277	671.2000122
1225.718989	675.2000122
1226.266644	673.7999878
1226.814243	673.5999756
1227.361786	675.5999756
1227.909272	670.5999756
1228.456702	671.4000244
1229.004075	672.2000122
1229.551392	673.4000244
1230.098652	669.5999756
1230.645856	673.4000244
1231.193003	673.0
1231.740094	674.7999878
1232.287129	677.4000244
1232.834107	674.7999878
1233.381029	674.7999878
1233.927894	675.5999756
1234.474703	674.2000122
1235.021455	675.4000244
1235.568151	675.5999756
1236.114791	675.5999756
1236.661374	675.0
1237.207901	676.4000244
1237.754372	674.4000244
1238.300786	675.0
1238.847144	669.5999756
1239.393445	673.4000244
1239.93969	674.7999878
1240.485879	676.0
1241.032011	671.7999878
1241.578087	675.0
1242.124106	677.0
1242.67007	675.5999756
1243.215976	672.7999878
1243.761827	675.5999756
1244.307621	676.4000244
1244.853359	676.7999878
1245.39904	674.0
1245.944665	674.2000122
1246.490234	675.2000122
1247.035746	673.5999756
1247.581203	676.2000122
1248.126602	674.4000244
1248.671946	674.7999878
1249.217233	675.0
1249.762464	677.0
1250.307638	676.7999878
1250.852757	676.5999756
1251.397819	673.4000244
1251.942824	673.4000244
1252.487774	673.4000244
1253.032667	672.5999756
1253.577503	677.0
1254.122284	676.7999878
1254.667008	676.7999878
1255.211676	675.5999756
1255.756288	675.7999878
1256.300843	676.0
1256.845342	673.4000244
1257.389785	674.5999756
1257.934172	673.2000122
1258.478502	677.0
1259.022776	678.2000122
1259.566994	682.4000244
1260.111156	695.2000122
1260.655261	676.7999878
1261.199311	675.7999878
1261.743304	676.2000122
1262.28724	681.2000122
1262.831121	685.5999756
1263.374945	690.2000122
1263.918713	694.4000244
1264.462425	707.4000244
1265.006081	722.7999878
1265.54968	725.5999756
1266.093223	702.4000244
1266.636711	688.0
1267.180141	684.4000244
1267.723516	679.5999756
1268.266835	678.2000122
1268.810097	679.4000244
1269.353303	677.4000244
1269.896453	676.7999878
1270.439547	675.7999878
1270.982584	677.4000244
1271.525566	675.5999756
1272.068491	675.0
1272.61136	678.7999878
1273.154173	677.7999878
1273.69693	674.4000244
1274.239631	679.5999756
1274.782275	676.2000122
1275.324864	677.7999878
1275.867396	676.5999756
1276.409872	678.2000122
1276.952292	678.0
1277.494656	679.7999878
1278.036964	679.5999756
1278.579215	680.0
1279.121411	679.2000122
1279.66355	677.7999878
1280.205634	682.5999756
1280.747661	683.5999756
1281.289632	685.0
1281.831547	690.7999878
1282.373406	696.0
1282.915209	713.4000244
1283.456955	743.5999756
1283.998646	823.7999878
1284.540281	1020.599976
1285.081859	1384.599976
1285.623381	1438.400024
1286.164848	1012.799988
1286.706258	793.2000122
1287.247612	729.0
1287.788911	704.0
1288.330153	691.7999878
1288.871339	690.4000244
1289.412469	681.5999756
1289.953543	682.5999756
1290.494561	682.5999756
1291.035523	678.2000122
1291.576428	679.7999878
1292.117278	676.5999756
1292.658072	679.4000244
1293.19881	676.5999756
1293.739492	679.0
1294.280118	678.5999756
1294.820687	677.2000122
1295.361201	678.5999756
1295.901659	675.7999878
1296.442061	679.4000244
1296.982406	678.2000122
1297.522696	678.2000122
1298.06293	674.5999756
1298.603108	676.2000122
1299.143229	676.2000122
1299.683295	676.4000244
1300.223305	675.0
1300.763259	674.5999756
1301.303157	675.4000244
1301.842999	677.0
1302.382785	673.5999756
1302.922515	674.7999878
1303.462189	676.4000244
1304.001807	673.4000244
1304.541369	672.4000244
1305.080875	671.7999878
1305.620326	677.4000244
1306.15972	674.4000244
1306.699058	678.0
1307.238341	674.0
1307.777567	675.2000122
1308.316738	674.2000122
1308.855853	675.5999756
1309.394912	673.7999878
1309.933915	676.5999756
1310.472862	673.4000244
1311.011753	671.4000244
1311.550588	677.7999878
1312.089367	670.4000244
1312.62809	674.5999756
1313.166758	672.4000244
1313.70537	674.4000244
1314.243925	673.2000122
1314.782425	675.0
1315.320869	672.7999878
1315.859257	673.7999878
1316.397589	670.0
1316.935866	673.7999878
1317.474086	673.0
1318.012251	672.7999878
1318.55036	674.2000122
1319.088413	677.7999878
1319.62641	669.5999756
1320.164351	674.2000122
1320.702236	675.2000122
1321.240066	674.4000244
1321.777839	675.0
1322.315557	672.4000244
1322.853219	671.5999756
1323.390826	671.5999756
1323.928376	678.4000244
1324.465871	672.0
1325.003309	673.0
1325.540692	674.0
1326.07802	676.2000122
1326.615291	673.2000122
1327.152506	673.4000244
1327.689666	672.4000244
1328.22677	671.4000244
1328.763818	671.4000244
1329.300811	677.5999756
1329.837747	672.7999878
1330.374628	670.7999878
1330.911453	674.4000244
1331.448222	672.4000244
1331.984936	673.5999756
1332.521594	670.2000122
1333.058196	674.0
1333.594742	674.0
1334.131232	676.2000122
1334.667667	676.4000244
1335.204046	671.4000244
1335.740369	674.5999756
1336.276637	671.4000244
1336.812848	673.0
1337.349004	672.5999756
1337.885105	675.5999756
1338.421149	676.5999756
1338.957138	670.5999756
1339.493071	675.4000244
1340.028949	678.0
1340.56477	673.7999878
1341.100536	674.0
1341.636246	672.0
1342.171901	673.5999756
1342.7075	673.0
1343.243043	673.7999878
1343.77853	672.2000122
1344.313962	674.4000244
1344.849338	671.0
1345.384659	672.2000122
1345.919923	672.4000244
1346.455133	673.2000122
1346.990286	672.2000122
1347.525384	672.5999756
1348.060426	674.4000244
1348.595412	673.0
1349.130343	674.0
1349.665218	674.5999756
1350.200037	671.5999756
1350.734801	674.5999756
1351.269509	674.7999878
1351.804162	674.4000244
1352.338758	669.2000122
1352.8733	676.4000244
1353.407785	674.0
1353.942215	674.0
1354.476589	670.5999756
1355.010908	673.4000244
1355.545171	673.0
1356.079379	673.2000122
1356.61353	672.2000122
1357.147627	675.0
1357.681667	674.0
1358.215652	674.2000122
1358.749582	674.4000244
1359.283456	673.4000244
1359.817274	674.0
1360.351037	675.4000244
1360.884744	672.0
1361.418395	673.4000244
1361.951991	672.5999756
1362.485531	670.7999878
1363.019016	677.5999756
1363.552445	674.2000122
1364.085819	673.7999878
1364.619137	675.2000122
1365.1524	674.7999878
1365.685607	675.5999756
1366.218758	679.4000244
1366.751854	679.5999756
1367.284894	678.4000244
1367.817879	672.5999756
1368.350808	674.5999756
1368.883682	676.0
1369.4165	674.4000244
1369.949263	679.5999756
1370.48197	698.4000244
1371.014622	693.4000244
1371.547218	680.2000122
1372.079758	677.7999878
1372.612244	674.5999756
1373.144673	674.4000244
1373.677047	671.5999756
1374.209366	678.4000244
1374.741629	674.5999756
1375.273836	675.2000122
1375.805989	676.0
1376.338085	678.5999756
1376.870126	677.0
1377.402112	676.2000122
1377.934042	681.0
1378.465917	676.5999756
1378.997736	678.0
1379.5295	676.4000244
1380.061208	680.7999878
1380.592861	677.2000122
1381.124459	681.2000122
1381.656	678.4000244
1382.187487	682.0
1382.718918	680.5999756
1383.250294	684.2000122
1383.781614	684.5999756
1384.312879	684.2000122
1384.844088	692.0
1385.375242	700.4000244
1385.90634	705.0
1386.437383	722.0
1386.968371	753.4000244
1387.499303	834.2000122
1388.03018	1137.599976
1388.561001	1962.400024
1389.091767	2046.400024
1389.622478	1155.400024
1390.153133	818.7999878
1390.683733	737.4000244
1391.214277	710.2000122
1391.744766	699.5999756
1392.2752	692.2000122
1392.805578	689.4000244
1393.335901	685.0
1393.866168	685.0
1394.396381	684.4000244
1394.926537	680.7999878
1395.456639	678.2000122
1395.986685	680.0
1396.516675	678.4000244
1397.046611	679.5999756
1397.576491	678.4000244
1398.106315	678.5999756
1398.636084	674.5999756
1399.165798	679.4000244
1399.695457	676.0
1400.22506	676.5999756
1400.754608	677.5999756
1401.284101	678.2000122
1401.813538	674.5999756
1402.34292	677.5999756
1402.872247	674.0
1403.401518	676.7999878
1403.930734	676.4000244
1404.459895	679.2000122
1404.989	677.2000122
1405.51805	680.4000244
1406.047045	678.0
1406.575984	679.5999756
1407.104869	680.4000244
1407.633697	681.5999756
1408.162471	688.7999878
1408.691189	696.2000122
1409.219852	712.7999878
1409.74846	744.7999878
1410.277013	768.7999878
1410.80551	743.4000244
1411.333952	705.7999878
1411.862339	690.5999756
1412.39067	680.5999756
1412.918946	677.5999756
1413.447167	677.7999878
1413.975333	676.2000122
1414.503444	673.7999878
1415.031499	672.0
1415.559499	686.5999756
1416.087444	675.4000244
1416.615333	672.0
1417.143167	673.4000244
1417.670947	674.7999878
1418.19867	675.5999756
1418.726339	673.2000122
1419.253952	673.5999756
1419.781511	673.4000244
1420.309014	672.5999756
1420.836461	673.2000122
1421.363854	673.2000122
1421.891191	674.7999878
1422.418474	677.4000244
1422.945701	673.5999756
1423.472872	672.0
1423.999989	675.2000122
1424.52705	675.4000244
1425.054057	673.7999878
1425.581008	674.0
1426.107904	672.5999756
1426.634745	679.2000122
1427.16153	675.2000122
1427.688261	673.7999878
1428.214936	673.4000244
1428.741556	672.7999878
1429.268121	675.4000244
1429.794631	673.0
1430.321085	670.2000122
1430.847485	676.2000122
1431.373829	672.2000122
1431.900118	670.4000244
1432.426353	670.0
1432.952532	672.5999756
1433.478655	674.0
1434.004724	674.5999756
1434.530738	675.4000244
1435.056696	670.0
1435.5826	673.2000122
1436.108448	667.0
1436.634241	671.7999878
1437.159979	672.0
1437.685662	672.0
1438.21129	670.2000122
1438.736863	671.7999878
1439.262381	674.7999878
1439.787843	674.5999756
1440.313251	669.2000122
1440.838603	670.4000244
1441.3639	672.0
1441.889143	670.2000122
1442.41433	671.4000244
1442.939462	671.2000122
1443.464539	670.7999878
1443.989561	667.7999878
1444.514528	674.0
1445.03944	669.5999756
1445.564297	670.5999756
1446.089099	671.4000244
1446.613846	669.7999878
1447.138537	675.0
1447.663174	672.7999878
1448.187756	672.4000244
1448.712282	673.2000122
1449.236754	670.5999756
1449.761171	671.2000122
1450.285532	669.0
1450.809839	670.4000244
1451.33409	672.7999878
1451.858287	666.7999878
1452.382428	672.4000244
1452.906515	673.4000244
1453.430546	671.0
1453.954523	670.5999756
1454.478444	672.5999756
1455.002311	672.2000122
1455.526123	669.2000122
1456.049879	671.2000122
1456.573581	669.4000244
1457.097227	672.0
1457.620819	669.7999878
1458.144356	672.7999878
1458.667837	671.5999756
1459.191264	672.7999878
1459.714636	671.7999878
1460.237952	671.4000244
1460.761214	669.5999756
1461.284421	672.5999756
1461.807573	672.4000244
1462.33067	672.2000122
1463.899632	692.0
1464.422509	671.5999756
1464.945331	670.2000122
1465.468099	673.4000244
1465.990811	667.5999756
1466.513469	668.4000244
1467.036071	671.2000122
1467.558619	669.2000122
1468.081112	670.7999878
1468.60355	671.0
1469.125933	669.4000244
1469.648261	667.5999756
1470.170534	670.7999878
1470.692752	672.0
1471.214916	670.7999878
1471.737024	667.4000244
1472.259078	669.5999756
1472.781077	666.2000122
1473.303021	667.7999878
1473.82491	668.7999878
1474.346744	671.2000122
1474.868523	670.0
1475.390248	668.4000244
1475.911917	667.7999878
1476.433532	669.2000122
1476.955092	667.7999878
1477.476597	668.7999878
1477.998047	670.4000244
1478.519442	670.0
1479.040783	668.7999878
1479.562068	669.5999756
1480.083299	666.0
1480.604475	669.2000122
1481.125596	672.5999756
1481.646663	665.7999878
1482.167674	669.4000244
1482.688631	668.2000122
1483.209533	669.4000244
1483.73038	667.7999878
1484.251172	667.5999756
1484.771909	670.7999878
1485.292592	669.0
1485.81322	669.4000244
1486.333793	668.4000244
1486.854311	668.7999878
1487.374775	670.0
1487.895183	670.0
1488.415537	664.4000244
1488.935836	664.7999878
1489.456081	668.4000244
1489.97627	668.2000122
1490.496405	668.2000122
1491.016485	668.4000244
1491.536511	669.4000244
1492.056481	664.7999878
1492.576397	668.0
1493.096258	667.2000122
1493.616064	668.7999878
1494.135816	670.2000122
1494.655513	667.5999756
1495.175155	668.0
1495.694742	667.5999756
1496.214274	670.7999878
1496.733752	668.2000122
1497.253175	671.7999878
1497.772544	669.0
1498.291858	668.0
1498.811116	670.7999878
1499.330321	669.7999878
1499.84947	676.2000122
1500.368565	668.7999878
1500.887605	670.0
1501.406591	669.2000122
1501.925521	668.2000122
1502.444397	669.0
1502.963219	668.2000122
1503.481985	670.0
1504.000697	665.0
1504.519355	672.7999878
1505.037957	666.0
1505.556505	669.4000244
1506.074999	667.5999756
1506.593437	667.2000122
1507.111821	667.7999878
1507.63015	670.0
1508.148425	669.0
1508.666645	669.4000244
1509.18481	668.5999756
1509.702921	669.2000122
1510.220977	667.2000122
1510.738979	678.0
1511.256925	666.7999878
1511.774817	668.0
1512.292655	668.4000244
1512.810438	667.5999756
1513.328166	670.4000244
1513.84584	668.7999878
1514.363459	669.7999878
1514.881023	669.0
1515.398533	664.4000244
1515.915988	666.5999756
1516.433389	666.7999878
1516.950734	668.5999756
1517.468026	668.5999756
1517.985263	666.7999878
1518.502445	668.5999756
1519.019572	667.2000122
1519.536645	669.0
1520.053664	666.4000244
1520.570628	669.5999756
1521.087537	666.0
1521.604392	670.2000122
1522.121192	669.5999756
1522.637937	667.2000122
1523.154628	670.5999756
1523.671265	666.2000122
1524.187847	667.2000122
1524.704374	670.4000244
1525.220847	672.2000122
1525.737265	689.7999878
1527.286192	675.4000244
1527.802392	670.0
1528.318538	666.5999756
1528.834629	670.5999756
1529.350666	669.2000122
1529.866648	668.4000244
1530.382575	669.5999756
1530.898448	670.0
1531.414266	670.4000244
1531.93003	669.5999756
1532.44574	667.0
1532.961395	666.5999756
1533.476995	668.7999878
1533.992541	669.2000122
1534.508033	670.2000122
1535.02347	668.0
1535.538852	667.2000122
1536.05418	668.5999756
1536.569454	671.2000122
1537.084673	667.7999878
1537.599837	668.0
1538.114947	669.0
1538.630003	673.7999878
1539.145004	669.0
1539.659951	674.0
1540.174843	673.2000122
1540.689681	668.5999756
1541.204465	668.5999756
1541.719194	666.5999756
1542.233868	673.5999756
1542.748488	672.5999756
1543.263054	671.5999756
1543.777565	672.0
1544.292022	673.5999756
1544.806424	670.2000122
1545.320772	668.0
1545.835066	668.2000122
1546.349305	672.7999878
1546.863489	670.4000244
1547.37762	672.4000244
1547.891696	671.5999756
1548.405717	672.2000122
1548.919684	670.4000244
1549.433597	673.7999878
1549.947455	670.0
1550.461259	671.2000122
1550.975009	671.7999878
1551.488704	669.0
1552.002345	669.2000122
1552.515931	673.5999756
1553.029463	670.2000122
1553.542941	671.5999756
1554.056364	673.4000244
1554.569733	670.4000244
1555.083048	670.0
1555.596308	671.5999756
1556.109514	669.7999878
1556.622665	671.2000122
1557.135762	675.5999756
1557.648805	672.0
1558.161794	672.0
1558.674728	674.0
1559.187608	671.2000122
1559.700433	672.2000122
1560.213205	674.2000122
1560.725921	671.5999756
1561.238584	671.4000244
1561.751192	673.5999756
1562.263746	676.0
1562.776246	674.2000122
1563.288691	674.2000122
1563.801082	673.0
1564.313419	675.2000122
1564.825701	676.4000244
1565.337929	676.7999878
1565.850103	678.4000244
1566.362223	678.7999878
1566.874288	677.4000244
1567.386299	682.5999756
1567.898256	683.2000122
1568.410158	681.2000122
1568.922007	681.5999756
1569.4338	677.0
1569.94554	675.7999878
1570.457226	677.4000244
1570.968857	675.4000244
1571.480434	671.4000244
1571.991956	673.5999756
1572.503425	670.5999756
1573.014839	674.0
1573.526199	670.2000122
1574.037505	671.4000244
1574.548756	670.0
1575.059953	672.5999756
1575.571096	668.7999878
1576.082185	671.2000122
1576.59322	671.0
1577.1042	671.0
1577.615126	669.4000244
1578.125998	670.0
1578.636816	672.2000122
1579.14758	670.2000122
1579.658289	667.7999878
1580.168944	669.5999756
1580.679545	669.2000122
1581.190092	669.5999756
1581.700585	670.2000122
1582.211023	669.2000122
1582.721407	668.7999878
1583.231737	670.7999878
1583.742013	672.4000244
1584.252235	666.0
1584.762403	669.5999756
1585.272516	669.7999878
1585.782575	670.2000122
1586.292581	671.7999878
1586.802532	668.4000244
1587.312428	671.4000244
1587.822271	670.7999878
1588.33206	672.7999878
1588.841794	672.7999878
1589.351474	668.4000244
1589.8611	671.0
1590.370672	669.0
1590.88019	669.2000122
1591.389654	671.5999756
1591.899064	673.2000122
1592.408419	670.4000244
