1042.452273	684.0
1043.018714	686.2000122
1043.585098	683.7999878
1044.151424	678.5999756
1044.717692	679.4000244
1045.283903	682.4000244
1045.850056	678.4000244
1046.416151	681.2000122
1046.982188	681.5999756
1047.548167	676.2000122
1048.114089	677.0
1048.679953	678.4000244
1049.24576	678.0
1049.811509	676.0
1050.3772	674.5999756
1050.942833	676.2000122
1051.508408	675.4000244
1052.073926	673.2000122
1052.639387	674.2000122
1053.204789	673.7999878
1053.770134	673.0
1054.335421	669.4000244
1054.900651	673.5999756
1055.465823	670.2000122
1056.030937	669.5999756
1056.595993	677.4000244
1057.160992	673.2000122
1057.725934	671.4000244
1058.290817	673.2000122
1058.855643	670.7999878
1059.420411	672.2000122
1059.985122	671.4000244
1060.549775	671.5999756
1061.114371	672.0
1061.678908	670.0
1062.243389	673.2000122
1062.807811	670.7999878
1063.372176	670.7999878
1063.936483	671.0
1064.500733	674.7999878
1065.064925	671.2000122
1065.62906	669.5999756
1066.193137	669.5999756
1066.757156	672.0
1067.321118	673.2000122
1067.885022	670.2000122
1068.448869	670.4000244
1069.012658	670.7999878
1069.57639	671.0
1070.140063	678.2000122
1070.70368	668.7999878
1071.267239	670.5999756
1071.83074	670.4000244
1072.394184	669.5999756
1072.95757	671.0
1073.520899	671.0
1074.08417	670.5999756
1074.647383	667.4000244
1075.21054	670.5999756
1075.773638	670.2000122
1076.336679	669.0
1076.899663	668.7999878
1077.462589	669.4000244
1078.025457	670.0
1078.588268	672.4000244
1079.151022	670.2000122
1079.713718	671.0
1080.276356	669.0
1080.838937	670.2000122
1081.401461	669.2000122
1081.963927	668.2000122
1082.526336	671.2000122
1083.088687	671.2000122
1083.650981	673.5999756
1084.213217	670.4000244
1084.775396	673.4000244
1085.337517	671.2000122
1085.899581	675.5999756
1086.461587	674.2000122
1087.023536	669.2000122
1087.585428	676.0
1088.147262	673.4000244
1088.709039	673.2000122
1089.270758	672.4000244
1089.83242	670.0
1090.394024	672.7999878
1090.955571	672.7999878
1091.517061	674.0
1092.078493	672.0
1092.639868	673.4000244
1093.201185	673.2000122
1093.762445	673.7999878
1094.323648	673.2000122
1094.884793	674.2000122
1095.445881	672.4000244
1096.006911	672.4000244
1096.567884	674.0
1097.1288	679.0
1097.689659	672.0
1098.25046	671.5999756
1098.811203	673.4000244
1099.37189	672.0
1099.932518	670.5999756
1100.49309	671.5999756
1101.053604	670.7999878
1101.614061	670.2000122
1102.174461	672.0
1102.734803	673.2000122
1103.295088	669.7999878
1103.855316	672.7999878
1104.415486	670.0
1104.975599	668.5999756
1105.535655	672.5999756
1106.095653	669.7999878
1106.655594	669.7999878
1107.215478	666.7999878
1107.775305	670.0
1108.335074	669.7999878
1108.894786	670.4000244
1109.45444	669.2000122
1110.014038	670.0
1110.573578	668.5999756
1111.133061	671.4000244
1111.692486	668.7999878
1112.251854	670.7999878
1112.811165	669.4000244
1113.370419	670.2000122
1113.929616	671.4000244
1114.488755	668.5999756
1115.047837	670.4000244
1115.606862	670.7999878
1116.16583	669.7999878
1116.72474	674.0
1117.283593	673.0
1117.842389	671.2000122
1118.401128	666.5999756
1118.959809	669.0
1119.518433	670.2000122
1120.077	669.2000122
1120.63551	665.7999878
1121.193963	669.5999756
1121.752358	669.7999878
1122.310697	665.5999756
1122.868978	669.0
1123.427202	669.5999756
1123.985368	669.7999878
1124.543478	672.4000244
1125.10153	670.0
1125.659526	670.0
1126.217464	669.0
1126.775345	668.0
1127.333168	671.7999878
1127.890935	671.0
1128.448644	671.5999756
1129.006297	669.2000122
1129.563892	667.7999878
1130.12143	668.5999756
1130.678911	670.0
1131.236335	667.2000122
1131.793701	668.2000122
1132.351011	668.5999756
1132.908263	667.5999756
1133.465458	667.4000244
1134.022597	666.5999756
1134.579678	670.5999756
1135.136702	668.4000244
1135.693669	667.7999878
1136.250578	669.0
1136.807431	668.4000244
1137.364227	667.2000122
1137.920965	666.5999756
1138.477647	667.0
1139.034271	668.4000244
1139.590839	666.5999756
1140.147349	666.4000244
1140.703802	667.0
1141.260198	666.2000122
1141.816537	667.4000244
1142.37282	670.7999878
1142.929045	667.5999756
1143.485213	669.0
1144.041323	668.0
1144.597377	667.5999756
1145.153374	669.7999878
1145.709314	666.7999878
1146.265197	669.0
1146.821023	667.0
1147.376792	671.0
1147.932503	670.2000122
1148.488158	668.7999878
1149.043756	667.5999756
1149.599297	668.5999756
1150.154781	667.4000244
1150.710207	665.4000244
1151.265577	668.2000122
1151.82089	668.4000244
1152.376146	666.4000244
1152.931345	669.5999756
1153.486487	665.7999878
1154.041572	666.0
1154.5966	670.0
1155.151571	670.7999878
1155.706485	669.0
1156.261342	667.2000122
1156.816142	667.2000122
1157.370885	670.5999756
1157.925572	665.4000244
1158.480201	669.4000244
1159.034774	668.5999756
1159.589289	668.4000244
1160.143748	665.4000244
1160.698149	667.7999878
1161.252494	669.0
1161.806782	672.5999756
1162.361013	668.0
1162.915187	666.4000244
1163.469304	669.2000122
1164.023364	667.7999878
1164.577368	666.5999756
1165.131314	666.0
1165.685204	669.2000122
1166.239036	666.4000244
1166.792812	667.7999878
1167.346531	667.2000122
1167.900193	669.2000122
1168.453798	668.7999878
1169.007347	667.0
1169.560838	669.0
1170.114273	665.4000244
1170.66765	666.0
1171.220971	670.2000122
1171.774235	670.7999878
1172.327443	668.7999878
1172.880593	668.4000244
1173.433687	666.4000244
1173.986723	668.4000244
1174.539703	668.7999878
1175.092626	669.5999756
1175.645493	669.2000122
1176.198302	671.5999756
1176.751055	670.2000122
1177.303751	666.2000122
1177.85639	668.7999878
1178.408972	667.4000244
1178.961498	669.2000122
1179.513966	666.4000244
1180.066378	667.7999878
1180.618733	668.2000122
1181.171032	666.5999756
1181.723273	670.4000244
1182.275458	667.4000244
1182.827586	668.7999878
1183.379657	667.5999756
1183.931672	670.4000244
1184.48363	665.0
1185.035531	671.4000244
1185.587375	670.5999756
1186.139162	666.4000244
1186.690893	667.0
1187.242567	666.2000122
1187.794184	667.7999878
1188.345745	666.5999756
1188.897249	666.4000244
1189.448696	669.4000244
1190.000086	670.2000122
1190.55142	669.2000122
1191.102697	669.7999878
1191.653918	666.0
1192.205081	668.5999756
1192.756188	669.4000244
1193.307238	689.5999756
1193.858232	666.5999756
1194.409169	670.4000244
1194.960049	670.2000122
1195.510872	667.7999878
1196.061639	669.5999756
1196.612349	668.7999878
1197.163003	665.0
1197.713599	664.5999756
1198.264139	670.2000122
1198.814623	669.7999878
1199.36505	666.0
1199.91542	667.2000122
1200.465734	666.4000244
1201.01599	669.4000244
1201.566191	665.7999878
1202.116334	669.5999756
1202.666421	669.0
1203.216452	669.5999756
1203.766425	665.7999878
1204.316343	669.0
1204.866203	668.5999756
1205.416007	668.7999878
1205.965754	666.5999756
1206.515445	668.2000122
1207.065079	666.5999756
1207.614657	669.7999878
1208.164177	666.5999756
1208.713642	667.7999878
1209.26305	671.5999756
1209.812401	670.2000122
1210.361695	668.4000244
1210.910933	667.7999878
1211.460115	669.5999756
1212.00924	669.7999878
1212.558308	668.0
1213.10732	670.0
1213.656275	668.5999756
1214.205174	667.7999878
1214.754016	666.0
1215.302801	670.4000244
1215.85153	671.4000244
1216.400203	669.0
1216.948819	669.0
1217.497378	668.7999878
1218.045881	667.5999756
1218.594327	666.0
1219.142717	670.0
1219.691051	669.4000244
1220.239327	668.5999756
1220.787548	669.2000122
1221.335712	669.4000244
1221.883819	669.0
1222.43187	667.2000122
1222.979864	666.7999878
1223.527802	666.5999756
1224.075683	667.4000244
1224.623508	670.4000244
1225.171277	667.7999878
1225.718989	669.7999878
1226.266644	667.7999878
1226.814243	665.7999878
1227.361786	668.7999878
1227.909272	672.2000122
1228.456702	669.0
1229.004075	669.5999756
1229.551392	669.0
1230.098652	667.4000244
1230.645856	667.5999756
1231.193003	670.5999756
1231.740094	669.7999878
1232.287129	665.0
1232.834107	668.2000122
1233.381029	671.5999756
1233.927894	669.2000122
1234.474703	670.5999756
1235.021455	668.4000244
1235.568151	669.0
1236.114791	668.5999756
1236.661374	670.5999756
1237.207901	668.0
1237.754372	669.5999756
1238.300786	672.4000244
1238.847144	671.0
1239.393445	670.0
1239.93969	667.5999756
1240.485879	666.5999756
1241.032011	667.7999878
1241.578087	666.7999878
1242.124106	668.4000244
1242.67007	669.2000122
1243.215976	673.2000122
1243.761827	669.2000122
1244.307621	671.2000122
1244.853359	669.7999878
1245.39904	669.2000122
1245.944665	670.2000122
1246.490234	670.4000244
1247.035746	667.0
1247.581203	668.4000244
1248.126602	670.4000244
1248.671946	670.2000122
1249.217233	667.2000122
1249.762464	668.2000122
1250.307638	670.2000122
1250.852757	669.5999756
1251.397819	670.0
1251.942824	666.0
1252.487774	668.7999878
1253.032667	672.5999756
1253.577503	667.5999756
1254.122284	668.0
1254.667008	672.2000122
1255.211676	668.7999878
1255.756288	668.5999756
1256.300843	668.2000122
1256.845342	672.2000122
1257.389785	668.5999756
1257.934172	670.0
1258.478502	671.7999878
1259.022776	673.7999878
1259.566994	671.7999878
1260.111156	688.0
1260.655261	670.0
1261.199311	668.2000122
1261.743304	672.5999756
1262.28724	673.7999878
1262.831121	675.2000122
1263.374945	679.2000122
1263.918713	682.5999756
1264.462425	689.2000122
1265.006081	696.0
1265.54968	694.2000122
1266.093223	682.7999878
1266.636711	679.5999756
1267.180141	674.4000244
1267.723516	673.4000244
1268.266835	674.7999878
1268.810097	673.7999878
1269.353303	673.0
1269.896453	670.2000122
1270.439547	670.5999756
1270.982584	668.2000122
1271.525566	672.5999756
1272.068491	670.2000122
1272.61136	671.2000122
1273.154173	673.0
1273.69693	671.7999878
1274.239631	672.2000122
1274.782275	672.2000122
1275.324864	671.2000122
1275.867396	668.0
1276.409872	670.4000244
1276.952292	672.2000122
1277.494656	673.2000122
1278.036964	668.7999878
1278.579215	671.7999878
1279.121411	672.5999756
1279.66355	672.0
1280.205634	672.7999878
1280.747661	674.5999756
1281.289632	673.7999878
1281.831547	681.0
1282.373406	679.4000244
1282.915209	695.4000244
1283.456955	718.0
1283.998646	769.4000244
1284.540281	903.0
1285.081859	1093.199951
1285.623381	1043.599976
1286.164848	834.0
1286.706258	731.4000244
1287.247612	693.7999878
1287.788911	681.7999878
1288.330153	675.4000244
1288.871339	680.4000244
1289.412469	677.0
1289.953543	672.4000244
1290.494561	674.4000244
1291.035523	671.5999756
1291.576428	669.2000122
1292.117278	670.4000244
1292.658072	670.0
1293.19881	671.2000122
1293.739492	672.5999756
1294.280118	671.0
1294.820687	670.0
1295.361201	671.0
1295.901659	670.2000122
1296.442061	672.2000122
1296.982406	671.0
1297.522696	669.4000244
1298.06293	668.7999878
1298.603108	667.5999756
1299.143229	670.2000122
1299.683295	671.5999756
1300.223305	669.2000122
1300.763259	668.2000122
1301.303157	671.4000244
1301.842999	671.7999878
1302.382785	668.0
1302.922515	672.4000244
1303.462189	670.2000122
1304.001807	668.7999878
1304.541369	669.2000122
1305.080875	668.7999878
1305.620326	666.0
1306.15972	670.0
1306.699058	669.4000244
1307.238341	668.4000244
1307.777567	670.7999878
1308.316738	668.7999878
1308.855853	667.7999878
1309.394912	668.4000244
1309.933915	668.5999756
1310.472862	671.2000122
1311.011753	668.2000122
1311.550588	669.2000122
1312.089367	668.4000244
1312.62809	672.7999878
1313.166758	670.4000244
1313.70537	667.4000244
1314.243925	666.7999878
1314.782425	667.5999756
1315.320869	669.5999756
1315.859257	665.0
1316.397589	667.4000244
1316.935866	668.2000122
1317.474086	670.0
1318.012251	665.4000244
1318.55036	668.2000122
1319.088413	668.0
1319.62641	670.7999878
1320.164351	670.7999878
1320.702236	668.7999878
1321.240066	670.0
1321.777839	668.0
1322.315557	667.5999756
1322.853219	666.5999756
1323.390826	671.0
1323.928376	672.2000122
1324.465871	669.5999756
1325.003309	666.4000244
1325.540692	668.4000244
1326.07802	667.5999756
1326.615291	665.7999878
1327.152506	667.7999878
1327.689666	667.0
1328.22677	667.2000122
1328.763818	668.7999878
1329.300811	668.0
1329.837747	667.0
1330.374628	666.5999756
1330.911453	667.5999756
1331.448222	666.0
1331.984936	668.0
1332.521594	669.4000244
1333.058196	672.4000244
1333.594742	669.0
1334.131232	668.5999756
1334.667667	668.0
1335.204046	669.0
1335.740369	669.5999756
1336.276637	667.0
1336.812848	668.7999878
1337.349004	667.4000244
1337.885105	667.7999878
1338.421149	668.5999756
1338.957138	668.4000244
1339.493071	670.4000244
1340.028949	665.2000122
1340.56477	667.7999878
1341.100536	667.7999878
1341.636246	669.5999756
1342.171901	669.5999756
1342.7075	666.2000122
1343.243043	669.7999878
1343.77853	668.5999756
1344.313962	671.0
1344.849338	670.4000244
1345.384659	666.7999878
1345.919923	669.2000122
1346.455133	669.7999878
1346.990286	668.7999878
1347.525384	669.7999878
1348.060426	668.5999756
1348.595412	671.4000244
1349.130343	670.4000244
1349.665218	668.4000244
1350.200037	670.5999756
1350.734801	670.0
1351.269509	668.7999878
1351.804162	670.4000244
1352.338758	667.0
1352.8733	669.4000244
1353.407785	670.2000122
1353.942215	670.4000244
1354.476589	670.0
1355.010908	668.7999878
1355.545171	667.4000244
1356.079379	668.2000122
1356.61353	666.2000122
1357.147627	665.0
1357.681667	665.5999756
1358.215652	666.7999878
1358.749582	670.7999878
1359.283456	668.7999878
1359.817274	668.7999878
1360.351037	668.0
1360.884744	667.2000122
1361.418395	669.0
1361.951991	670.4000244
1362.485531	670.4000244
1363.019016	670.4000244
1363.552445	670.0
1364.085819	671.2000122
1364.619137	671.2000122
1365.1524	668.2000122
1365.685607	669.4000244
1366.218758	671.7999878
1366.751854	670.2000122
1367.284894	671.4000244
1367.817879	669.5999756
1368.350808	670.4000244
1368.883682	669.5999756
1369.4165	669.0
1369.949263	679.2000122
1370.48197	685.5999756
1371.014622	677.4000244
1371.547218	670.5999756
1372.079758	669.7999878
1372.612244	668.2000122
1373.144673	669.7999878
1373.677047	672.7999878
1374.209366	672.4000244
1374.741629	668.0
1375.273836	668.2000122
1375.805989	671.7999878
1376.338085	671.5999756
1376.870126	671.5999756
1377.402112	668.2000122
1377.934042	672.7999878
1378.465917	672.4000244
1378.997736	672.4000244
1379.5295	672.7999878
1380.061208	672.5999756
1380.592861	668.0
1381.124459	670.7999878
1381.656	670.5999756
1382.187487	673.2000122
1382.718918	675.0
1383.250294	672.5999756
1383.781614	675.4000244
1384.312879	675.0
1384.844088	680.4000244
1385.375242	684.5999756
1385.90634	689.5999756
1386.437383	696.7999878
1386.968371	722.4000244
1387.499303	777.2000122
1388.03018	979.5999756
1388.561001	1435.400024
1389.091767	1352.0
1389.622478	910.2000122
1390.153133	746.0
1390.683733	705.2000122
1391.214277	690.5999756
1391.744766	684.0
1392.2752	680.0
1392.805578	677.2000122
1393.335901	671.5999756
1393.866168	677.7999878
1394.396381	673.4000244
1394.926537	674.2000122
1395.456639	673.4000244
1395.986685	673.0
1396.516675	672.4000244
1397.046611	668.7999878
1397.576491	669.2000122
1398.106315	672.4000244
1398.636084	671.2000122
1399.165798	671.7999878
1399.695457	670.2000122
1400.22506	670.0
1400.754608	674.2000122
1401.284101	669.7999878
1401.813538	672.7999878
1402.34292	670.5999756
1402.872247	673.4000244
1403.401518	668.5999756
1403.930734	670.5999756
1404.459895	669.2000122
1404.989	671.5999756
1405.51805	673.2000122
1406.047045	671.4000244
1406.575984	671.7999878
1407.104869	674.7999878
1407.633697	674.2000122
1408.162471	674.0
1408.691189	682.4000244
1409.219852	694.5999756
1409.74846	713.0
1410.277013	723.0
1410.80551	703.5999756
1411.333952	684.4000244
1411.862339	678.5999756
1412.39067	674.4000244
1412.918946	671.2000122
1413.447167	670.5999756
1413.975333	669.0
1414.503444	670.0
1415.031499	667.4000244
1415.559499	682.4000244
1416.087444	669.0
1416.615333	668.2000122
1417.143167	667.2000122
1417.670947	689.2000122
1418.726339	669.5999756
1419.253952	670.2000122
1419.781511	668.5999756
1420.309014	670.2000122
1420.836461	665.7999878
1421.363854	669.0
1421.891191	669.2000122
1422.418474	670.4000244
1422.945701	669.4000244
1423.472872	669.5999756
1423.999989	669.0
1424.52705	668.4000244
1425.054057	667.2000122
1425.581008	667.2000122
1426.107904	669.0
1426.634745	668.7999878
1427.16153	669.7999878
1427.688261	666.5999756
1428.214936	671.0
1428.741556	668.4000244
1429.268121	668.0
1429.794631	667.4000244
1430.321085	668.5999756
1430.847485	668.2000122
1431.373829	666.5999756
1431.900118	668.2000122
1432.426353	666.2000122
1432.952532	666.0
1433.478655	668.0
1434.004724	669.2000122
1434.530738	664.7999878
1435.056696	669.7999878
1435.5826	667.4000244
1436.108448	666.5999756
1436.634241	666.4000244
1437.159979	667.4000244
1437.685662	666.0
1438.21129	669.4000244
1438.736863	665.7999878
1439.262381	667.5999756
1439.787843	668.2000122
1440.313251	666.2000122
1440.838603	667.4000244
1441.3639	668.5999756
1441.889143	665.4000244
1442.41433	668.0
1442.939462	668.5999756
1443.464539	669.0
1443.989561	667.7999878
1444.514528	670.2000122
1445.03944	667.0
1445.564297	668.4000244
1446.089099	667.4000244
1446.613846	667.5999756
1447.138537	663.7999878
1447.663174	667.4000244
1448.187756	667.0
1448.712282	668.5999756
1449.236754	669.7999878
1449.761171	663.5999756
1450.285532	665.7999878
1450.809839	668.4000244
1451.33409	666.2000122
1451.858287	668.5999756
1452.382428	665.5999756
1452.906515	666.4000244
1453.430546	665.0
1453.954523	665.7999878
1454.478444	666.4000244
1455.002311	669.0
1455.526123	666.2000122
1456.049879	668.2000122
1456.573581	665.4000244
1457.097227	670.0
1457.620819	667.7999878
1458.144356	666.5999756
1458.667837	666.0
1459.191264	665.7999878
1459.714636	668.4000244
1460.237952	665.5999756
1460.761214	666.4000244
1461.284421	668.2000122
1461.807573	668.4000244
1462.33067	667.4000244
1462.853712	677.7999878
1463.376699	694.2000122
1463.899632	673.2000122
1464.422509	665.5999756
1464.945331	666.0
1465.468099	667.7999878
1465.990811	668.2000122
1466.513469	666.7999878
1467.036071	669.0
1467.558619	669.5999756
1468.081112	666.5999756
1468.60355	664.7999878
1469.125933	666.4000244
1469.648261	667.4000244
1470.170534	666.7999878
1470.692752	666.5999756
1471.214916	667.0
1471.737024	665.4000244
1472.259078	665.5999756
1472.781077	665.5999756
1473.303021	664.0
1473.82491	666.2000122
1474.346744	668.2000122
1474.868523	664.7999878
1475.390248	661.2000122
1475.911917	665.4000244
1476.433532	665.2000122
1476.955092	664.4000244
1477.476597	666.0
1477.998047	665.2000122
1478.519442	666.5999756
1479.040783	667.5999756
1479.562068	665.5999756
1480.083299	667.4000244
1480.604475	665.0
1481.125596	666.2000122
1481.646663	665.2000122
1482.167674	666.0
1482.688631	665.2000122
1483.209533	666.0
1483.73038	667.5999756
1484.251172	666.2000122
1484.771909	668.4000244
1485.292592	665.7999878
1485.81322	667.0
1486.333793	666.7999878
1486.854311	664.5999756
1487.374775	667.2000122
1487.895183	665.4000244
1488.415537	665.0
1488.935836	668.7999878
1489.456081	667.4000244
1489.97627	666.4000244
1490.496405	665.4000244
1491.016485	665.2000122
1491.536511	666.7999878
1492.056481	665.4000244
1492.576397	664.5999756
1493.096258	666.0
1493.616064	665.2000122
1494.135816	667.4000244
1494.655513	665.5999756
1495.175155	663.0
1495.694742	666.2000122
1496.214274	665.0
1496.733752	667.5999756
1497.253175	665.2000122
1497.772544	665.7999878
1498.291858	664.0
1498.811116	665.7999878
1499.330321	664.4000244
1499.84947	671.4000244
1500.368565	666.0
1500.887605	664.7999878
1501.406591	664.0
1501.925521	665.5999756
1502.444397	666.7999878
1502.963219	667.0
1503.481985	666.4000244
1504.000697	664.5999756
1504.519355	665.4000244
1505.037957	665.2000122
1505.556505	664.4000244
1506.074999	666.5999756
1506.593437	665.2000122
1507.111821	666.7999878
1507.63015	665.2000122
1508.148425	666.2000122
1508.666645	663.7999878
1509.18481	664.2000122
1509.702921	664.4000244
1510.220977	665.4000244
1510.738979	673.4000244
1511.256925	664.5999756
1511.774817	664.4000244
1512.292655	664.7999878
1512.810438	667.0
1513.328166	669.5999756
1513.84584	665.7999878
1514.363459	666.5999756
1514.881023	664.5999756
1515.398533	666.7999878
1515.915988	664.2000122
1516.433389	662.7999878
1516.950734	665.7999878
1517.468026	666.5999756
1517.985263	665.2000122
1518.502445	666.4000244
1519.019572	664.0
1519.536645	666.2000122
1520.053664	666.2000122
1520.570628	664.5999756
1521.087537	663.2000122
1521.604392	667.5999756
1522.121192	664.5999756
1522.637937	666.0
1523.154628	667.7999878
1523.671265	665.5999756
1524.187847	667.0
1524.704374	668.4000244
1525.220847	665.4000244
1525.737265	669.7999878
1526.253629	684.2000122
1526.769938	674.7999878
1527.286192	665.5999756
1527.802392	666.4000244
1528.318538	664.7999878
1528.834629	666.5999756
1529.350666	662.7999878
1529.866648	664.7999878
1530.382575	662.7999878
1530.898448	665.2000122
1531.414266	666.5999756
1531.93003	664.5999756
1532.44574	667.0
1532.961395	666.0
1533.476995	665.2000122
1533.992541	665.2000122
1534.508033	664.0
1535.02347	662.5999756
1535.538852	665.5999756
1536.05418	662.0
1536.569454	664.2000122
1537.084673	665.0
1537.599837	664.7999878
1538.114947	666.7999878
1538.630003	665.2000122
1539.145004	664.5999756
1539.659951	667.5999756
1540.174843	666.0
1540.689681	667.0
1541.204465	663.5999756
1541.719194	667.0
1542.233868	665.4000244
1542.748488	663.5999756
1543.263054	668.5999756
1543.777565	664.2000122
1544.292022	667.7999878
1544.806424	666.0
1545.320772	664.2000122
1545.835066	662.4000244
1546.349305	665.2000122
1546.863489	665.2000122
1547.37762	666.0
1547.891696	668.5999756
1548.405717	666.4000244
1548.919684	666.4000244
1549.433597	665.5999756
1549.947455	662.7999878
1550.461259	664.4000244
1550.975009	667.7999878
1551.488704	662.2000122
1552.002345	667.5999756
1552.515931	667.2000122
1553.029463	666.2000122
1553.542941	665.5999756
1554.056364	667.2000122
1554.569733	667.0
1555.083048	665.0
1555.596308	666.4000244
1556.109514	666.4000244
1556.622665	668.7999878
1557.135762	665.5999756
1557.648805	666.5999756
1558.161794	664.4000244
1558.674728	668.0
1559.187608	666.7999878
1559.700433	666.7999878
1560.213205	664.7999878
1560.725921	667.5999756
1561.238584	665.4000244
1561.751192	666.5999756
1562.263746	666.2000122
1562.776246	663.0
1563.288691	665.4000244
1563.801082	666.0
1564.313419	666.5999756
1564.825701	665.0
1565.337929	667.5999756
1565.850103	669.7999878
1566.362223	667.5999756
1566.874288	668.0
1567.386299	666.4000244
1567.898256	667.7999878
1568.410158	669.5999756
1568.922007	664.0
1569.4338	668.4000244
1569.94554	667.5999756
1570.457226	667.5999756
1570.968857	665.4000244
1571.480434	664.7999878
1571.991956	667.5999756
1572.503425	668.2000122
1573.014839	665.2000122
1573.526199	665.4000244
1574.037505	665.2000122
1574.548756	664.2000122
1575.059953	668.2000122
1575.571096	666.4000244
1576.082185	666.5999756
1576.59322	662.5999756
1577.1042	664.7999878
1577.615126	665.4000244
1578.125998	666.4000244
1578.636816	666.4000244
1579.14758	665.4000244
1579.658289	667.4000244
1580.168944	664.2000122
1580.679545	665.2000122
1581.190092	667.0
1581.700585	664.0
1582.211023	667.5999756
1582.721407	665.5999756
1583.231737	665.2000122
1583.742013	665.5999756
1584.252235	663.5999756
1584.762403	664.0
1585.272516	667.2000122
1585.782575	666.7999878
1586.292581	664.2000122
1586.802532	665.2000122
1587.312428	664.0
1587.822271	665.2000122
1588.33206	663.7999878
1588.841794	665.4000244
1589.351474	664.7999878
1589.8611	665.0
1590.370672	664.0
1590.88019	664.7999878
1591.389654	665.7999878
1591.899064	668.0
1592.408419	664.5999756
