1042.452273	685.2000122
1043.018714	682.4000244
1043.585098	681.2000122
1044.151424	684.0
1044.717692	683.2000122
1045.283903	679.4000244
1045.850056	682.4000244
1046.416151	679.4000244
1046.982188	678.7999878
1047.548167	679.2000122
1048.114089	678.2000122
1048.679953	679.0
1049.24576	674.7999878
1049.811509	676.0
1050.3772	677.0
1050.942833	678.0
1051.508408	675.5999756
1052.073926	674.2000122
1052.639387	675.5999756
1053.204789	676.7999878
1053.770134	675.2000122
1054.335421	676.4000244
1054.900651	674.2000122
1055.465823	676.5999756
1056.030937	674.5999756
1056.595993	673.4000244
1057.160992	673.5999756
1057.725934	672.2000122
1058.290817	672.5999756
1058.855643	673.4000244
1059.420411	675.4000244
1059.985122	672.0
1060.549775	670.4000244
1061.114371	673.4000244
1061.678908	671.2000122
1062.243389	674.0
1062.807811	674.2000122
1063.372176	674.2000122
1063.936483	672.4000244
1064.500733	672.0
1065.064925	670.7999878
1065.62906	673.4000244
1066.193137	674.5999756
1066.757156	672.5999756
1067.321118	671.0
1067.885022	672.7999878
1068.448869	669.7999878
1069.012658	675.0
1069.57639	669.7999878
1070.140063	679.5999756
1070.70368	671.0
1071.267239	672.5999756
1071.83074	669.7999878
1072.394184	670.5999756
1072.95757	671.5999756
1073.520899	672.2000122
1074.08417	674.5999756
1074.647383	670.7999878
1075.21054	673.2000122
1075.773638	668.4000244
1076.336679	671.0
1076.899663	670.5999756
1077.462589	671.7999878
1078.025457	669.2000122
1078.588268	673.7999878
1079.151022	672.0
1079.713718	670.7999878
1080.276356	671.2000122
1080.838937	670.5999756
1081.401461	673.4000244
1081.963927	671.2000122
1082.526336	674.2000122
1083.088687	670.0
1083.650981	675.0
1084.213217	672.4000244
1084.775396	671.2000122
1085.337517	670.0
1085.899581	670.0
1086.461587	669.5999756
1087.023536	671.5999756
1087.585428	674.2000122
1088.147262	671.0
1088.709039	673.7999878
1089.270758	675.4000244
1089.83242	671.2000122
1090.394024	672.4000244
1090.955571	674.0
1091.517061	673.5999756
1092.078493	670.4000244
1092.639868	671.4000244
1093.201185	672.0
1093.762445	672.4000244
1094.323648	671.4000244
1094.884793	674.5999756
1095.445881	671.4000244
1096.006911	673.2000122
1096.567884	672.2000122
1097.1288	679.4000244
1097.689659	674.7999878
1098.25046	672.7999878
1098.811203	672.4000244
1099.37189	671.0
1099.932518	672.0
1100.49309	670.5999756
1101.053604	671.7999878
1101.614061	670.5999756
1102.174461	672.2000122
1102.734803	671.5999756
1103.295088	673.0
1103.855316	673.0
1104.415486	671.0
1104.975599	670.4000244
1105.535655	672.4000244
1106.095653	673.4000244
1106.655594	674.0
1107.215478	669.4000244
1107.775305	671.2000122
1108.335074	670.7999878
1108.894786	673.0
1109.45444	670.2000122
1110.014038	673.7999878
1110.573578	671.7999878
1111.133061	674.2000122
1111.692486	671.0
1112.251854	674.2000122
1112.811165	676.0
1113.370419	673.2000122
1113.929616	674.0
1114.488755	672.4000244
1115.047837	672.7999878
1115.606862	671.4000244
1116.16583	676.7999878
1116.72474	670.5999756
1117.283593	676.2000122
1117.842389	673.4000244
1118.401128	672.5999756
1118.959809	670.4000244
1119.518433	672.2000122
1120.077	674.7999878
1120.63551	668.2000122
1121.193963	671.7999878
1121.752358	670.7999878
1122.310697	671.7999878
1122.868978	672.2000122
1123.427202	669.0
1123.985368	670.0
1124.543478	671.5999756
1125.10153	668.2000122
1125.659526	670.5999756
1126.217464	671.2000122
1126.775345	672.0
1127.333168	669.5999756
1127.890935	673.2000122
1128.448644	668.7999878
1129.006297	670.7999878
1129.563892	668.5999756
1130.12143	670.7999878
1130.678911	670.4000244
1131.236335	671.7999878
1131.793701	668.0
1132.351011	670.7999878
1132.908263	670.4000244
1133.465458	670.0
1134.022597	671.0
1134.579678	670.2000122
1135.136702	671.7999878
1135.693669	668.5999756
1136.250578	670.4000244
1136.807431	667.7999878
1137.364227	670.7999878
1137.920965	666.7999878
1138.477647	672.0
1139.034271	672.2000122
1139.590839	671.0
1140.147349	669.7999878
1140.703802	671.0
1141.260198	670.4000244
1141.816537	671.4000244
1142.37282	671.4000244
1142.929045	669.0
1143.485213	674.0
1144.041323	671.7999878
1144.597377	670.2000122
1145.153374	671.4000244
1145.709314	671.4000244
1146.265197	673.2000122
1146.821023	672.7999878
1147.376792	671.5999756
1147.932503	671.7999878
1148.488158	671.4000244
1149.043756	671.7999878
1149.599297	672.7999878
1150.154781	669.0
1150.710207	671.7999878
1151.265577	672.7999878
1151.82089	668.2000122
1152.376146	670.4000244
1152.931345	670.5999756
1153.486487	669.5999756
1154.041572	671.7999878
1154.5966	672.5999756
1155.151571	667.2000122
1155.706485	671.7999878
1156.261342	670.4000244
1156.816142	670.5999756
1157.370885	670.5999756
1157.925572	670.4000244
1158.480201	668.7999878
1159.034774	669.4000244
1159.589289	670.0
1160.143748	670.0
1160.698149	671.7999878
1161.252494	672.2000122
1161.806782	671.5999756
1162.361013	671.0
1162.915187	673.5999756
1163.469304	671.7999878
1164.023364	669.7999878
1164.577368	668.7999878
1165.131314	670.2000122
1165.685204	671.0
1166.239036	670.4000244
1166.792812	669.7999878
1167.346531	669.4000244
1167.900193	670.5999756
1168.453798	671.0
1169.007347	667.4000244
1169.560838	672.0
1170.114273	670.7999878
1170.66765	672.0
1171.220971	672.2000122
1171.774235	670.0
1172.327443	672.7999878
1172.880593	670.5999756
1173.433687	672.2000122
1173.986723	672.2000122
1174.539703	670.7999878
1175.092626	671.4000244
1175.645493	671.2000122
1176.198302	670.4000244
1176.751055	669.5999756
1177.303751	671.2000122
1177.85639	673.2000122
1178.408972	668.2000122
1178.961498	672.2000122
1179.513966	671.2000122
1180.066378	671.2000122
1180.618733	670.2000122
1181.171032	672.0
1181.723273	671.5999756
1182.275458	672.0
1182.827586	673.0
1183.379657	670.5999756
1183.931672	671.4000244
1184.48363	673.7999878
1185.035531	672.2000122
1185.587375	668.0
1186.139162	672.0
1186.690893	671.0
1187.242567	671.4000244
1187.794184	672.2000122
1188.345745	669.5999756
1188.897249	669.4000244
1189.448696	671.4000244
1190.000086	668.7999878
1190.55142	667.0
1191.102697	673.5999756
1191.653918	670.7999878
1192.205081	670.2000122
1192.756188	668.2000122
1193.307238	689.7999878
1193.858232	670.4000244
1194.409169	668.7999878
1194.960049	670.4000244
1195.510872	671.2000122
1196.061639	671.4000244
1196.612349	671.0
1197.163003	668.5999756
1197.713599	669.7999878
1198.264139	669.5999756
1198.814623	673.2000122
1199.36505	671.0
1199.91542	671.7999878
1200.465734	667.5999756
1201.01599	668.7999878
1201.566191	669.2000122
1202.116334	673.0
1202.666421	671.2000122
1203.216452	666.4000244
1203.766425	672.0
1204.316343	670.0
1204.866203	670.5999756
1205.416007	670.4000244
1205.965754	669.4000244
1206.515445	669.4000244
1207.065079	671.4000244
1207.614657	669.4000244
1208.164177	667.2000122
1208.713642	670.7999878
1209.26305	675.2000122
1209.812401	671.5999756
1210.361695	674.0
1210.910933	671.2000122
1211.460115	672.7999878
1212.00924	671.5999756
1212.558308	671.4000244
1213.10732	674.2000122
1213.656275	669.5999756
1214.205174	671.2000122
1214.754016	669.5999756
1215.302801	671.2000122
1215.85153	668.7999878
1216.400203	672.7999878
1216.948819	672.5999756
1217.497378	674.0
1218.045881	671.4000244
1218.594327	669.5999756
1219.142717	670.7999878
1219.691051	668.5999756
1220.239327	676.0
1220.787548	669.4000244
1221.335712	671.7999878
1221.883819	672.7999878
1222.43187	673.0
1222.979864	675.2000122
1223.527802	670.4000244
1224.075683	672.0
1224.623508	674.2000122
1225.171277	670.7999878
1225.718989	669.5999756
1226.266644	672.0
1226.814243	671.2000122
1227.361786	673.5999756
1227.909272	671.0
1228.456702	674.4000244
1229.004075	670.7999878
1229.551392	671.0
1230.098652	674.5999756
1230.645856	669.2000122
1231.193003	669.5999756
1231.740094	675.2000122
1232.287129	673.7999878
1232.834107	670.5999756
1233.381029	673.5999756
1233.927894	673.5999756
1234.474703	675.4000244
1235.021455	670.0
1235.568151	670.2000122
1236.114791	669.7999878
1236.661374	671.0
1237.207901	673.7999878
1237.754372	672.4000244
1238.300786	671.0
1238.847144	670.4000244
1239.393445	670.5999756
1239.93969	671.2000122
1240.485879	670.7999878
1241.032011	674.7999878
1241.578087	669.0
1242.124106	672.7999878
1242.67007	671.0
1243.215976	670.4000244
1243.761827	672.2000122
1244.307621	673.7999878
1244.853359	671.5999756
1245.39904	669.2000122
1245.944665	671.7999878
1246.490234	671.4000244
1247.035746	668.0
1247.581203	670.2000122
1248.126602	671.0
1248.671946	670.5999756
1249.217233	670.0
1249.762464	670.2000122
1250.307638	676.0
1250.852757	671.0
1251.397819	670.7999878
1251.942824	671.4000244
1252.487774	671.4000244
1253.032667	672.5999756
1253.577503	668.7999878
1254.122284	670.7999878
1254.667008	670.7999878
1255.211676	671.5999756
1255.756288	670.4000244
1256.300843	669.5999756
1256.845342	671.5999756
1257.389785	672.5999756
1257.934172	671.0
1258.478502	673.4000244
1259.022776	671.0
1259.566994	674.2000122
1260.111156	691.5999756
1260.655261	670.7999878
1261.199311	671.5999756
1261.743304	675.7999878
1262.28724	670.4000244
1262.831121	674.4000244
1263.374945	673.2000122
1263.918713	679.0
1264.462425	680.0
1265.006081	685.4000244
1265.54968	683.7999878
1266.093223	674.5999756
1266.636711	674.0
1267.180141	671.4000244
1267.723516	674.4000244
1268.266835	671.2000122
1268.810097	671.2000122
1269.353303	671.0
1269.896453	671.5999756
1270.439547	672.4000244
1270.982584	672.4000244
1271.525566	671.2000122
1272.068491	672.5999756
1272.61136	673.7999878
1273.154173	671.5999756
1273.69693	669.2000122
1274.239631	670.7999878
1274.782275	668.5999756
1275.324864	672.4000244
1275.867396	670.2000122
1276.409872	669.2000122
1276.952292	670.5999756
1277.494656	670.5999756
1278.036964	669.4000244
1278.579215	672.0
1279.121411	671.0
1279.66355	673.7999878
1280.205634	669.4000244
1280.747661	675.2000122
1281.289632	674.0
1281.831547	672.5999756
1282.373406	675.5999756
1282.915209	683.0
1283.456955	691.7999878
1283.998646	712.7999878
1284.540281	764.4000244
1285.081859	872.4000244
1285.623381	867.0
1286.164848	759.5999756
1286.706258	701.5999756
1287.247612	683.0
1287.788911	677.4000244
1288.330153	674.7999878
1288.871339	676.2000122
1289.412469	672.2000122
1289.953543	670.0
1290.494561	670.0
1291.035523	671.5999756
1291.576428	673.4000244
1292.117278	670.7999878
1292.658072	673.0
1293.19881	672.0
1293.739492	671.4000244
1294.280118	674.2000122
1294.820687	668.7999878
1295.361201	672.0
1295.901659	671.2000122
1296.442061	670.5999756
1296.982406	671.4000244
1297.522696	669.2000122
1298.06293	670.0
1298.603108	670.5999756
1299.143229	672.5999756
1299.683295	672.5999756
1300.223305	673.0
1300.763259	669.4000244
1301.303157	673.4000244
1301.842999	673.5999756
1302.382785	668.7999878
1302.922515	670.4000244
1303.462189	672.4000244
1304.001807	673.0
1304.541369	669.4000244
1305.080875	668.5999756
1305.620326	671.5999756
1306.15972	671.2000122
1306.699058	671.4000244
1307.238341	669.4000244
1307.777567	671.7999878
1308.316738	672.4000244
1308.855853	672.2000122
1309.394912	670.7999878
1309.933915	669.2000122
1310.472862	666.4000244
1311.011753	668.4000244
1311.550588	674.0
1312.089367	671.4000244
1312.62809	670.5999756
1313.166758	671.4000244
1313.70537	670.4000244
1314.243925	670.4000244
1314.782425	669.5999756
1315.320869	671.5999756
1315.859257	669.4000244
1316.397589	672.0
1316.935866	670.7999878
1317.474086	672.5999756
1318.012251	669.5999756
1318.55036	671.5999756
1319.088413	672.4000244
1319.62641	668.2000122
1320.164351	668.7999878
1320.702236	668.7999878
1321.240066	668.5999756
1321.777839	668.0
1322.315557	672.0
1322.853219	670.7999878
1323.390826	668.5999756
1323.928376	673.2000122
1324.465871	672.2000122
1325.003309	672.4000244
1325.540692	669.0
1326.07802	666.5999756
1326.615291	668.5999756
1327.152506	670.4000244
1327.689666	672.7999878
1328.22677	670.5999756
1328.763818	667.2000122
1329.300811	670.5999756
1329.837747	671.2000122
1330.374628	671.5999756
1330.911453	669.0
1331.448222	668.5999756
1331.984936	670.7999878
1332.521594	670.7999878
1333.058196	669.4000244
1333.594742	668.4000244
1334.131232	669.7999878
1334.667667	673.2000122
1335.204046	670.4000244
1335.740369	669.5999756
1336.276637	668.5999756
1336.812848	668.5999756
1337.349004	671.0
1337.885105	669.7999878
1338.421149	669.7999878
1338.957138	668.0
1339.493071	670.2000122
1340.028949	670.7999878
1340.56477	670.4000244
1341.100536	668.5999756
1341.636246	669.7999878
1342.171901	671.5999756
1342.7075	670.0
1343.243043	669.2000122
1343.77853	670.0
1344.313962	668.2000122
1344.849338	670.2000122
1345.384659	670.2000122
1345.919923	669.7999878
1346.455133	674.0
1346.990286	670.0
1347.525384	672.5999756
1348.060426	670.5999756
1348.595412	670.0
1349.130343	670.7999878
1349.665218	669.0
1350.200037	669.2000122
1350.734801	671.5999756
1351.269509	668.7999878
1351.804162	672.7999878
1352.338758	670.0
1352.8733	670.5999756
1353.407785	671.2000122
1353.942215	669.0
1354.476589	670.5999756
1355.010908	668.7999878
1355.545171	673.5999756
1356.079379	670.0
1356.61353	668.5999756
1357.147627	670.7999878
1357.681667	670.4000244
1358.215652	670.0
1358.749582	671.7999878
1359.283456	672.7999878
1359.817274	672.7999878
1360.351037	670.0
1360.884744	668.2000122
1361.418395	671.7999878
1361.951991	672.4000244
1362.485531	674.0
1363.019016	670.7999878
1363.552445	670.4000244
1364.085819	674.0
1364.619137	668.4000244
1365.1524	668.7999878
1365.685607	670.7999878
1366.218758	672.2000122
1366.751854	670.5999756
1367.284894	668.7999878
1367.817879	673.0
1368.350808	671.5999756
1368.883682	671.2000122
1369.4165	672.7999878
1369.949263	671.7999878
1370.48197	678.2000122
1371.014622	677.7999878
1371.547218	673.2000122
1372.079758	669.4000244
1372.612244	669.2000122
1373.144673	670.2000122
1373.677047	668.0
1374.209366	672.5999756
1375.805989	675.7999878
1376.338085	672.2000122
1376.870126	672.0
1377.402112	670.2000122
1377.934042	673.5999756
1378.465917	673.0
1378.997736	672.4000244
1379.5295	669.2000122
1380.061208	672.7999878
1380.592861	671.2000122
1381.124459	674.4000244
1381.656	671.5999756
1382.187487	671.7999878
1382.718918	674.0
1383.250294	673.4000244
1383.781614	672.7999878
1384.312879	670.0
1384.844088	675.7999878
1385.375242	673.7999878
1385.90634	679.5999756
1386.437383	685.0
1386.968371	692.0
1387.499303	713.0
1388.03018	797.2000122
1388.561001	1022.0
1389.091767	1030.0
1389.622478	787.0
1390.153133	710.5999756
1390.683733	688.5999756
1391.214277	678.7999878
1391.744766	676.0
1392.2752	674.7999878
1392.805578	673.7999878
1393.335901	672.5999756
1393.866168	671.7999878
1394.396381	672.7999878
1394.926537	671.2000122
1395.456639	670.7999878
1395.986685	671.2000122
1396.516675	670.0
1397.046611	669.4000244
1397.576491	670.7999878
1398.106315	671.5999756
1398.636084	671.5999756
1399.165798	671.2000122
1399.695457	670.0
1400.22506	670.2000122
1400.754608	670.7999878
1401.284101	676.2000122
1401.813538	670.7999878
1402.34292	670.2000122
1402.872247	673.0
1403.401518	669.5999756
1403.930734	671.5999756
1404.459895	669.4000244
1404.989	670.7999878
1405.51805	671.4000244
1406.047045	672.0
1406.575984	671.0
1407.104869	673.2000122
1407.633697	673.7999878
1408.162471	671.4000244
1408.691189	675.7999878
1409.219852	680.2000122
1409.74846	687.4000244
1410.277013	696.4000244
1410.80551	687.4000244
1411.333952	676.7999878
1411.862339	675.2000122
1412.39067	674.5999756
1412.918946	672.4000244
1413.447167	669.0
1413.975333	669.0
1414.503444	669.2000122
1415.031499	668.7999878
1415.559499	683.0
1416.087444	669.0
1416.615333	669.2000122
1417.143167	672.4000244
1417.670947	671.0
1418.19867	671.4000244
1418.726339	665.4000244
1419.253952	671.2000122
1419.781511	670.5999756
1420.309014	670.0
1420.836461	670.2000122
1421.363854	671.5999756
1421.891191	669.5999756
1422.418474	669.0
1422.945701	668.4000244
1423.472872	672.5999756
1423.999989	671.0
1424.52705	672.5999756
1425.054057	668.7999878
1425.581008	671.0
1426.107904	669.7999878
1426.634745	671.0
1427.16153	673.0
1427.688261	670.2000122
1428.214936	666.7999878
1428.741556	671.5999756
1429.268121	668.2000122
1429.794631	670.5999756
1430.321085	671.0
1430.847485	671.7999878
1431.373829	668.5999756
1431.900118	668.0
1432.426353	667.5999756
1432.952532	669.5999756
1433.478655	669.5999756
1434.004724	669.4000244
1434.530738	668.4000244
1435.056696	670.0
1435.5826	669.4000244
1436.108448	672.4000244
1436.634241	669.7999878
1437.159979	666.7999878
1437.685662	672.2000122
1438.21129	667.7999878
1438.736863	668.4000244
1439.262381	669.2000122
1439.787843	670.2000122
1440.313251	670.4000244
1440.838603	667.7999878
1441.3639	668.0
1441.889143	668.7999878
1442.41433	672.0
1442.939462	669.7999878
1443.464539	669.4000244
1443.989561	668.4000244
1444.514528	668.0
1445.03944	668.4000244
1445.564297	670.7999878
1446.089099	667.7999878
1446.613846	671.0
1447.138537	672.4000244
1447.663174	670.7999878
1448.187756	672.4000244
1448.712282	668.7999878
1449.236754	671.0
1449.761171	667.0
1450.285532	665.4000244
1450.809839	670.0
1451.33409	671.4000244
1451.858287	668.4000244
1452.382428	671.2000122
1452.906515	671.2000122
1453.430546	668.0
1453.954523	670.7999878
1454.478444	670.2000122
1455.002311	670.5999756
1455.526123	666.5999756
1456.049879	668.0
1456.573581	670.0
1457.097227	669.0
1457.620819	671.0
1458.144356	671.4000244
1458.667837	671.2000122
1459.191264	669.7999878
1459.714636	670.5999756
1460.237952	672.0
1460.761214	669.2000122
1461.284421	668.2000122
1461.807573	670.7999878
1462.33067	669.0
1462.853712	681.0
1463.376699	693.0
1463.899632	677.5999756
1464.422509	671.2000122
1464.945331	670.7999878
1465.468099	670.5999756
1465.990811	669.4000244
1466.513469	669.5999756
1467.036071	671.2000122
1467.558619	669.2000122
1468.081112	669.7999878
1468.60355	669.5999756
1469.125933	670.0
1469.648261	670.4000244
1470.170534	669.5999756
1470.692752	673.4000244
1471.214916	671.0
1471.737024	669.5999756
1472.259078	671.5999756
1472.781077	668.2000122
1473.303021	669.5999756
1473.82491	669.0
1474.346744	666.0
1474.868523	669.5999756
1475.390248	671.0
1475.911917	666.0
1476.433532	667.7999878
1476.955092	670.4000244
1477.476597	669.4000244
1477.998047	668.0
1478.519442	668.0
1479.040783	668.2000122
1479.562068	671.5999756
1480.083299	669.7999878
1480.604475	666.7999878
1481.125596	669.0
1481.646663	669.0
1482.167674	666.5999756
1482.688631	671.2000122
1483.209533	669.5999756
1483.73038	667.2000122
1484.251172	668.5999756
1484.771909	668.4000244
1485.292592	670.5999756
1485.81322	668.4000244
1486.333793	667.2000122
1486.854311	669.2000122
1487.374775	667.0
1487.895183	670.2000122
1488.415537	666.4000244
1488.935836	668.5999756
1489.456081	669.2000122
1489.97627	668.4000244
1490.496405	669.4000244
1491.016485	668.4000244
1491.536511	670.5999756
1492.056481	666.5999756
1492.576397	669.5999756
1493.096258	668.2000122
1493.616064	666.0
1494.135816	667.2000122
1494.655513	668.0
1495.175155	666.7999878
1495.694742	667.7999878
1496.214274	667.7999878
1496.733752	667.7999878
1497.253175	668.0
1497.772544	668.0
1498.291858	667.7999878
1498.811116	667.4000244
1499.330321	667.7999878
1499.84947	674.7999878
1500.368565	668.0
1500.887605	669.0
1501.406591	666.0
1501.925521	666.5999756
1502.444397	668.0
1502.963219	670.5999756
1503.481985	666.7999878
1504.000697	671.2000122
1504.519355	664.2000122
1505.037957	670.5999756
1505.556505	668.5999756
1506.074999	668.4000244
1506.593437	668.7999878
1507.111821	668.0
1507.63015	665.5999756
1508.148425	669.2000122
1508.666645	668.5999756
1509.18481	668.0
1509.702921	665.4000244
1510.220977	670.4000244
1510.738979	676.5999756
1511.256925	671.4000244
1511.774817	670.0
1512.292655	670.5999756
1512.810438	668.0
1513.328166	667.5999756
1513.84584	668.7999878
1514.363459	667.4000244
1514.881023	666.7999878
1515.398533	668.7999878
1515.915988	670.4000244
1516.433389	668.0
1516.950734	669.5999756
1517.468026	669.5999756
1517.985263	670.0
1518.502445	668.7999878
1519.019572	670.0
1519.536645	668.0
1520.053664	670.7999878
1520.570628	667.0
1521.087537	667.5999756
1521.604392	669.7999878
1522.121192	668.2000122
1522.637937	666.4000244
1523.154628	669.0
1523.671265	669.0
1524.187847	671.2000122
1524.704374	666.7999878
1525.220847	667.7999878
1525.737265	675.0
1526.253629	683.0
1526.769938	675.5999756
1527.286192	671.4000244
1527.802392	671.7999878
1528.318538	669.0
1528.834629	670.4000244
1529.350666	667.4000244
1529.866648	670.0
1530.382575	668.4000244
1530.898448	667.7999878
1531.414266	671.0
1531.93003	670.0
1532.44574	669.0
1532.961395	668.7999878
1533.476995	669.5999756
1533.992541	669.7999878
1534.508033	667.4000244
1535.02347	668.0
1535.538852	669.4000244
1536.05418	669.7999878
1536.569454	668.4000244
1537.084673	669.4000244
1537.599837	669.5999756
1538.114947	668.0
1538.630003	667.7999878
1539.145004	666.4000244
1539.659951	670.5999756
1540.174843	667.7999878
1540.689681	668.7999878
1541.204465	669.5999756
1541.719194	668.5999756
1542.233868	669.2000122
1542.748488	667.5999756
1543.263054	670.7999878
1543.777565	672.0
1544.292022	667.5999756
1544.806424	670.4000244
1545.320772	672.0
1545.835066	666.7999878
1546.349305	668.2000122
1546.863489	667.0
1547.37762	667.4000244
1547.891696	668.7999878
1548.405717	670.4000244
1548.919684	667.2000122
1549.433597	668.5999756
1549.947455	670.7999878
1550.461259	669.2000122
1550.975009	668.4000244
1551.488704	668.7999878
1552.002345	669.7999878
1552.515931	670.2000122
1553.029463	669.2000122
1553.542941	670.2000122
1554.056364	667.5999756
1554.569733	670.0
1555.083048	669.7999878
1555.596308	670.2000122
1556.109514	669.4000244
1556.622665	669.0
1557.135762	671.0
1557.648805	668.7999878
1558.161794	668.7999878
1558.674728	669.7999878
1559.187608	669.4000244
1559.700433	669.5999756
1560.213205	668.5999756
1560.725921	669.2000122
1561.238584	668.5999756
1561.751192	670.0
1562.263746	670.5999756
1562.776246	668.4000244
1563.288691	667.2000122
1563.801082	672.7999878
1564.313419	669.5999756
1564.825701	667.7999878
1565.337929	669.2000122
1565.850103	667.4000244
1566.362223	672.2000122
1566.874288	670.4000244
1567.386299	672.5999756
1567.898256	669.5999756
1568.410158	671.7999878
1568.922007	669.5999756
1569.4338	669.7999878
1569.94554	669.2000122
1570.457226	667.2000122
1570.968857	667.7999878
1571.480434	668.7999878
1571.991956	670.4000244
1572.503425	670.4000244
1573.014839	667.5999756
1573.526199	671.7999878
1574.037505	668.5999756
1574.548756	668.7999878
1575.059953	670.2000122
1575.571096	669.4000244
1576.082185	672.4000244
1576.59322	671.4000244
1577.1042	668.2000122
1577.615126	668.5999756
1578.125998	671.4000244
1578.636816	665.7999878
1579.14758	670.2000122
1579.658289	667.7999878
1580.168944	668.4000244
1580.679545	670.7999878
1581.190092	669.4000244
1581.700585	666.7999878
1582.211023	668.5999756
1582.721407	672.0
1583.231737	665.5999756
1583.742013	667.7999878
1584.252235	671.0
1584.762403	669.5999756
1585.272516	667.7999878
1585.782575	669.5999756
1586.292581	669.0
1586.802532	667.4000244
1587.312428	669.4000244
1587.822271	666.5999756
1588.33206	666.7999878
1588.841794	667.5999756
1589.351474	665.4000244
1589.8611	669.5999756
1590.370672	666.4000244
1590.88019	670.5999756
1591.389654	667.4000244
1591.899064	668.2000122
1592.408419	670.5999756
