1042.452273	681.2000122
1043.018714	680.7999878
1043.585098	679.0
1044.151424	678.2000122
1044.717692	678.7999878
1045.283903	678.4000244
1045.850056	678.0
1046.416151	675.7999878
1046.982188	678.2000122
1047.548167	675.7999878
1048.114089	671.7999878
1048.679953	675.7999878
1049.24576	676.2000122
1049.811509	672.5999756
1050.3772	673.0
1050.942833	673.0
1051.508408	671.0
1052.073926	672.5999756
1052.639387	674.4000244
1053.204789	674.4000244
1053.770134	673.7999878
1054.335421	673.2000122
1054.900651	671.0
1055.465823	672.0
1056.030937	672.7999878
1056.595993	672.5999756
1057.160992	670.5999756
1057.725934	672.4000244
1058.290817	669.7999878
1058.855643	668.5999756
1059.420411	671.0
1059.985122	671.0
1060.549775	672.2000122
1061.114371	670.4000244
1061.678908	670.4000244
1062.243389	670.7999878
1062.807811	669.4000244
1063.372176	669.2000122
1063.936483	671.0
1064.500733	668.5999756
1065.064925	668.7999878
1065.62906	671.0
1066.193137	672.0
1066.757156	668.2000122
1067.321118	672.7999878
1067.885022	668.5999756
1068.448869	666.7999878
1069.012658	669.5999756
1069.57639	668.0
1070.140063	675.2000122
1070.70368	669.7999878
1071.267239	667.5999756
1071.83074	668.4000244
1072.394184	670.2000122
1072.95757	672.0
1073.520899	668.4000244
1074.08417	668.5999756
1074.647383	666.7999878
1075.21054	666.2000122
1075.773638	666.7999878
1076.336679	666.7999878
1076.899663	667.4000244
1077.462589	665.7999878
1078.025457	665.2000122
1078.588268	669.2000122
1079.151022	668.7999878
1079.713718	667.5999756
1080.276356	670.4000244
1080.838937	669.0
1081.401461	667.2000122
1081.963927	668.5999756
1082.526336	670.0
1083.088687	668.0
1083.650981	667.7999878
1084.213217	668.2000122
1084.775396	669.7999878
1085.337517	670.0
1085.899581	667.5999756
1086.461587	669.0
1087.023536	669.4000244
1087.585428	671.4000244
1088.147262	667.0
1088.709039	667.7999878
1089.270758	666.7999878
1089.83242	669.2000122
1090.394024	667.0
1090.955571	668.2000122
1091.517061	667.7999878
1092.078493	668.2000122
1092.639868	667.5999756
1093.201185	668.2000122
1093.762445	669.5999756
1094.323648	664.5999756
1094.884793	666.0
1095.445881	668.5999756
1096.006911	664.4000244
1096.567884	666.7999878
1097.1288	675.5999756
1097.689659	669.5999756
1098.25046	669.4000244
1098.811203	669.4000244
1099.37189	668.5999756
1099.932518	667.0
1100.49309	669.0
1101.053604	668.0
1101.614061	667.2000122
1102.174461	666.5999756
1102.734803	665.0
1103.295088	667.0
1103.855316	667.2000122
1104.415486	666.2000122
1104.975599	668.0
1105.535655	670.4000244
1106.095653	667.5999756
1106.655594	669.2000122
1107.215478	667.7999878
1107.775305	667.0
1108.335074	666.4000244
1108.894786	669.4000244
1109.45444	666.7999878
1110.014038	670.2000122
1110.573578	669.2000122
1111.133061	667.7999878
1111.692486	671.0
1112.251854	672.5999756
1112.811165	668.5999756
1113.370419	668.0
1113.929616	670.2000122
1114.488755	671.2000122
1115.047837	668.7999878
1115.606862	670.4000244
1116.16583	669.5999756
1116.72474	668.2000122
1117.283593	673.2000122
1117.842389	668.7999878
1118.401128	668.2000122
1118.959809	669.2000122
1119.518433	668.5999756
1120.077	665.7999878
1120.63551	667.5999756
1121.193963	670.0
1121.752358	667.5999756
1122.310697	668.2000122
1122.868978	669.0
1123.427202	669.4000244
1123.985368	671.4000244
1124.543478	668.0
1125.10153	667.4000244
1125.659526	669.5999756
1126.217464	666.4000244
1126.775345	666.7999878
1127.333168	666.5999756
1127.890935	667.2000122
1128.448644	667.0
1129.006297	668.2000122
1129.563892	665.0
1130.12143	669.0
1130.678911	668.0
1131.236335	667.2000122
1131.793701	665.5999756
1132.351011	668.7999878
1132.908263	664.4000244
1133.465458	666.0
1134.022597	665.5999756
1134.579678	669.2000122
1135.136702	667.7999878
1135.693669	668.4000244
1136.250578	666.5999756
1136.807431	667.5999756
1137.364227	664.7999878
1137.920965	665.2000122
1138.477647	667.0
1139.034271	667.4000244
1139.590839	665.0
1140.147349	666.5999756
1140.703802	667.5999756
1141.260198	666.7999878
1141.816537	668.7999878
1142.37282	666.7999878
1142.929045	665.2000122
1143.485213	666.7999878
1144.041323	666.7999878
1144.597377	667.7999878
1145.153374	667.5999756
1145.709314	665.0
1146.265197	669.4000244
1146.821023	666.5999756
1147.376792	663.2000122
1147.932503	667.0
1148.488158	668.4000244
1149.043756	663.7999878
1149.599297	665.7999878
1150.154781	665.0
1150.710207	666.4000244
1151.265577	667.2000122
1151.82089	668.4000244
1152.376146	667.0
1152.931345	668.0
1153.486487	668.2000122
1154.041572	666.0
1154.5966	668.4000244
1155.151571	669.5999756
1155.706485	667.2000122
1156.261342	664.2000122
1156.816142	664.2000122
1157.370885	666.7999878
1157.925572	667.0
1158.480201	664.0
1159.034774	668.2000122
1159.589289	666.7999878
1160.143748	667.5999756
1160.698149	666.0
1161.252494	666.4000244
1161.806782	667.4000244
1162.361013	668.7999878
1162.915187	670.4000244
1163.469304	665.2000122
1164.023364	669.2000122
1164.577368	667.0
1165.131314	669.7999878
1165.685204	668.7999878
1166.239036	668.4000244
1166.792812	667.5999756
1167.346531	667.4000244
1167.900193	669.2000122
1168.453798	666.2000122
1169.007347	668.0
1169.560838	664.5999756
1170.114273	669.2000122
1170.66765	667.4000244
1171.220971	664.7999878
1171.774235	668.7999878
1172.327443	667.5999756
1172.880593	667.0
1173.433687	669.4000244
1173.986723	667.7999878
1174.539703	667.0
1175.092626	666.7999878
1175.645493	666.4000244
1176.198302	665.7999878
1176.751055	666.5999756
1177.303751	666.7999878
1177.85639	666.0
1178.408972	666.0
1178.961498	665.5999756
1179.513966	665.4000244
1180.066378	663.4000244
1180.618733	667.0
1181.171032	667.2000122
1181.723273	667.4000244
1182.275458	666.5999756
1182.827586	669.5999756
1183.379657	669.5999756
1183.931672	667.7999878
1184.48363	666.2000122
1185.035531	668.2000122
1185.587375	670.7999878
1186.139162	667.5999756
1186.690893	668.2000122
1187.242567	669.4000244
1187.794184	667.2000122
1188.345745	665.7999878
1188.897249	669.2000122
1189.448696	666.5999756
1190.000086	669.7999878
1190.55142	666.2000122
1191.102697	665.4000244
1191.653918	671.4000244
1192.205081	666.7999878
1192.756188	667.5999756
1193.307238	686.0
1193.858232	663.4000244
1194.409169	666.5999756
1194.960049	668.0
1195.510872	667.7999878
1196.061639	667.4000244
1196.612349	667.4000244
1197.163003	664.7999878
1197.713599	664.7999878
1198.264139	666.7999878
1198.814623	668.0
1199.36505	666.7999878
1199.91542	666.5999756
1200.465734	666.5999756
1201.01599	667.2000122
1201.566191	666.5999756
1202.116334	667.5999756
1202.666421	665.4000244
1203.216452	667.2000122
1203.766425	667.2000122
1204.316343	669.2000122
1204.866203	663.4000244
1205.416007	667.0
1205.965754	666.2000122
1206.515445	666.5999756
1207.065079	667.7999878
1207.614657	668.2000122
1208.164177	665.2000122
1208.713642	667.0
1209.26305	669.2000122
1209.812401	668.4000244
1210.361695	665.4000244
1210.910933	665.7999878
1211.460115	666.2000122
1212.00924	668.0
1212.558308	668.4000244
1213.10732	665.2000122
1213.656275	667.0
1214.205174	668.5999756
1214.754016	666.4000244
1215.302801	666.4000244
1215.85153	669.4000244
1216.400203	665.0
1216.948819	667.2000122
1217.497378	668.5999756
1218.045881	668.2000122
1218.594327	666.7999878
1219.142717	668.4000244
1219.691051	666.4000244
1220.239327	668.5999756
1220.787548	671.0
1221.335712	666.5999756
1221.883819	664.4000244
1222.43187	667.5999756
1222.979864	666.5999756
1223.527802	666.7999878
1224.075683	667.0
1224.623508	666.7999878
1225.171277	668.5999756
1225.718989	665.5999756
1226.266644	666.0
1226.814243	668.0
1227.361786	666.7999878
1227.909272	670.0
1228.456702	666.5999756
1229.004075	669.2000122
1229.551392	670.4000244
1230.098652	665.4000244
1230.645856	667.2000122
1231.193003	668.0
1231.740094	672.0
1232.287129	666.7999878
1232.834107	670.0
1233.381029	665.5999756
1233.927894	668.4000244
1234.474703	669.2000122
1235.021455	668.4000244
1235.568151	666.5999756
1236.114791	669.5999756
1236.661374	667.4000244
1237.207901	666.2000122
1237.754372	665.0
1238.300786	669.0
1238.847144	668.7999878
1239.393445	666.5999756
1239.93969	670.0
1240.485879	667.7999878
1241.032011	669.2000122
1241.578087	665.2000122
1242.124106	669.0
1242.67007	669.5999756
1243.215976	665.7999878
1243.761827	665.7999878
1244.307621	667.7999878
1244.853359	667.4000244
1245.39904	667.4000244
1245.944665	670.0
1246.490234	666.4000244
1247.035746	666.2000122
1247.581203	666.2000122
1248.126602	667.7999878
1248.671946	667.4000244
1249.217233	666.4000244
1249.762464	668.5999756
1250.307638	667.2000122
1250.852757	669.5999756
1251.397819	666.2000122
1251.942824	666.5999756
1252.487774	667.5999756
1253.032667	669.0
1253.577503	672.5999756
1254.122284	668.7999878
1254.667008	666.5999756
1255.211676	668.7999878
1255.756288	669.2000122
1256.300843	668.2000122
1256.845342	667.7999878
1257.389785	668.2000122
1257.934172	666.5999756
1258.478502	667.5999756
1259.022776	666.2000122
1259.566994	669.5999756
1260.111156	684.7999878
1260.655261	669.7999878
1261.199311	669.4000244
1261.743304	667.4000244
1262.28724	668.5999756
1262.831121	668.4000244
1263.374945	672.2000122
1263.918713	672.0
1264.462425	675.2000122
1265.006081	683.5999756
1265.54968	681.5999756
1266.093223	673.2000122
1266.636711	672.4000244
1267.180141	668.7999878
1267.723516	668.4000244
1268.266835	668.5999756
1268.810097	666.7999878
1269.353303	665.0
1269.896453	669.2000122
1270.439547	666.0
1270.982584	668.7999878
1271.525566	671.4000244
1272.068491	667.2000122
1272.61136	667.7999878
1273.154173	665.2000122
1273.69693	667.4000244
1274.239631	665.7999878
1274.782275	665.5999756
1275.324864	668.5999756
1275.867396	667.5999756
1276.409872	668.0
1276.952292	667.5999756
1277.494656	669.7999878
1278.036964	669.0
1278.579215	667.5999756
1279.121411	668.0
1279.66355	668.5999756
1280.205634	669.7999878
1280.747661	669.2000122
1281.289632	668.0
1281.831547	671.7999878
1282.373406	672.5999756
1282.915209	676.0
1283.456955	688.5999756
1283.998646	709.5999756
1284.540281	766.4000244
1285.081859	867.0
1285.623381	876.0
1286.164848	755.4000244
1286.706258	700.4000244
1287.247612	684.0
1287.788911	673.0
1288.330153	675.2000122
1288.871339	669.7999878
1289.412469	668.2000122
1289.953543	668.0
1290.494561	669.4000244
1291.035523	666.5999756
1291.576428	666.7999878
1292.117278	669.4000244
1292.658072	668.4000244
1293.19881	668.5999756
1293.739492	666.2000122
1294.280118	667.7999878
1294.820687	667.5999756
1295.361201	666.7999878
1295.901659	665.4000244
1296.442061	668.4000244
1296.982406	666.2000122
1297.522696	669.0
1298.06293	667.2000122
1298.603108	666.7999878
1299.143229	668.4000244
1299.683295	668.0
1300.223305	667.5999756
1300.763259	666.4000244
1301.303157	667.2000122
1301.842999	666.5999756
1302.382785	667.0
1302.922515	666.7999878
1303.462189	668.5999756
1304.001807	665.2000122
1304.541369	667.7999878
1305.080875	668.2000122
1305.620326	665.4000244
1306.15972	665.4000244
1306.699058	667.7999878
1307.238341	669.2000122
1307.777567	668.0
1308.316738	668.0
1308.855853	665.5999756
1309.394912	666.5999756
1309.933915	666.2000122
1310.472862	666.2000122
1311.011753	664.4000244
1311.550588	666.4000244
1312.089367	665.4000244
1312.62809	665.7999878
1313.166758	665.4000244
1313.70537	667.2000122
1314.243925	665.4000244
1314.782425	667.0
1315.320869	666.5999756
1315.859257	664.7999878
1316.397589	666.5999756
1316.935866	665.0
1317.474086	666.4000244
1318.012251	668.0
1318.55036	669.4000244
1319.088413	668.0
1319.62641	667.2000122
1320.164351	667.7999878
1320.702236	666.7999878
1321.240066	666.0
1321.777839	667.0
1322.315557	665.7999878
1322.853219	666.2000122
1323.390826	665.4000244
1323.928376	669.5999756
1324.465871	663.7999878
1325.003309	665.7999878
1325.540692	667.4000244
1326.07802	662.7999878
1326.615291	669.0
1327.152506	665.7999878
1327.689666	666.4000244
1328.22677	665.7999878
1328.763818	668.5999756
1329.300811	668.5999756
1329.837747	667.2000122
1330.374628	667.0
1330.911453	669.0
1331.448222	665.5999756
1331.984936	667.4000244
1332.521594	666.0
1333.058196	666.4000244
1333.594742	667.2000122
1334.131232	664.5999756
1334.667667	667.7999878
1335.204046	668.0
1335.740369	665.5999756
1336.276637	665.7999878
1336.812848	668.5999756
1337.349004	665.4000244
1337.885105	666.7999878
1338.421149	665.2000122
1338.957138	665.4000244
1339.493071	667.7999878
1340.028949	665.4000244
1340.56477	664.5999756
1341.100536	667.2000122
1341.636246	665.5999756
1342.171901	666.4000244
1342.7075	669.2000122
1343.243043	665.0
1343.77853	667.2000122
1344.313962	666.5999756
1344.849338	664.2000122
1345.384659	665.5999756
1345.919923	667.2000122
1346.455133	666.0
1346.990286	668.7999878
1347.525384	665.4000244
1348.060426	664.0
1348.595412	664.2000122
1349.130343	667.2000122
1349.665218	666.5999756
1350.200037	665.0
1350.734801	667.5999756
1351.269509	665.5999756
1351.804162	665.2000122
1352.338758	664.4000244
1352.8733	669.2000122
1353.407785	670.2000122
1353.942215	668.7999878
1354.476589	668.7999878
1355.010908	666.2000122
1355.545171	666.0
1356.079379	665.0
1356.61353	664.2000122
1357.147627	665.2000122
1357.681667	667.2000122
1358.215652	666.4000244
1358.749582	665.7999878
1359.283456	665.7999878
1359.817274	668.2000122
1360.351037	666.5999756
1360.884744	665.0
1361.418395	668.0
1361.951991	668.2000122
1362.485531	668.7999878
1363.019016	666.0
1363.552445	666.4000244
1364.085819	665.4000244
1364.619137	667.5999756
1365.1524	665.0
1365.685607	667.7999878
1366.218758	669.2000122
1366.751854	666.4000244
1367.284894	668.5999756
1367.817879	668.0
1368.350808	667.0
1368.883682	666.5999756
1369.4165	665.4000244
1369.949263	668.7999878
1370.48197	672.0
1371.014622	673.0
1371.547218	669.5999756
1372.079758	667.7999878
1372.612244	664.2000122
1373.144673	668.4000244
1373.677047	668.7999878
1374.209366	669.0
1374.741629	664.4000244
1375.273836	668.0
1375.805989	665.2000122
1376.338085	669.5999756
1376.870126	669.2000122
1377.402112	664.4000244
1377.934042	667.2000122
1378.465917	667.0
1378.997736	669.0
1379.5295	670.4000244
1380.061208	671.2000122
1380.592861	669.0
1381.124459	669.0
1381.656	670.0
1382.187487	669.7999878
1382.718918	668.4000244
1383.250294	668.0
1383.781614	673.2000122
1384.312879	669.0
1384.844088	670.4000244
1385.375242	670.2000122
1385.90634	674.0
1386.437383	680.0
1386.968371	691.7999878
1387.499303	711.4000244
1388.03018	802.5999756
1388.561001	1030.199951
1389.091767	1027.400024
1389.622478	796.2000122
1390.153133	706.2000122
1390.683733	681.5999756
1391.214277	676.5999756
1391.744766	674.2000122
1392.2752	672.2000122
1392.805578	671.7999878
1393.335901	670.5999756
1393.866168	1497.400024
1394.396381	772.5999756
1394.926537	669.5999756
1395.456639	667.4000244
1395.986685	666.4000244
1396.516675	667.7999878
1397.046611	667.2000122
1397.576491	669.2000122
1398.106315	671.4000244
1398.636084	669.0
1399.165798	670.2000122
1399.695457	667.0
1400.22506	669.5999756
1400.754608	669.0
1401.284101	669.2000122
1401.813538	665.4000244
1402.34292	667.2000122
1402.872247	664.0
1403.401518	670.0
1403.930734	668.2000122
1404.459895	669.2000122
1404.989	669.7999878
1405.51805	668.7999878
1406.047045	670.7999878
1406.575984	670.7999878
1407.104869	669.5999756
1407.633697	668.0
1408.162471	669.4000244
1408.691189	673.5999756
1409.219852	678.0
1409.74846	686.2000122
1410.277013	692.5999756
1410.80551	684.4000244
1411.333952	675.2000122
1411.862339	670.2000122
1412.39067	667.7999878
1412.918946	669.0
1413.447167	664.4000244
1413.975333	664.5999756
1414.503444	667.0
1415.031499	666.0
1415.559499	682.5999756
1416.087444	666.7999878
1416.615333	666.7999878
1417.143167	667.2000122
1417.670947	664.7999878
1418.19867	666.5999756
1418.726339	666.5999756
1419.253952	666.2000122
1419.781511	663.0
1420.309014	664.7999878
1420.836461	666.5999756
1421.363854	665.5999756
1421.891191	667.0
1422.418474	666.4000244
1422.945701	667.4000244
1423.472872	665.5999756
1423.999989	666.5999756
1424.52705	666.2000122
1425.054057	667.7999878
1425.581008	664.7999878
1426.107904	665.0
1426.634745	668.5999756
1427.16153	667.0
1427.688261	664.4000244
1428.214936	665.7999878
1428.741556	665.7999878
1429.268121	665.2000122
1429.794631	667.7999878
1430.321085	667.2000122
1430.847485	665.7999878
1431.373829	664.2000122
1431.900118	665.5999756
1432.426353	666.0
1432.952532	666.5999756
1433.478655	666.7999878
1434.004724	665.4000244
1434.530738	663.5999756
1435.056696	665.4000244
1435.5826	665.7999878
1436.108448	668.5999756
1436.634241	666.4000244
1437.159979	666.0
1437.685662	666.5999756
1438.21129	663.0
1438.736863	666.2000122
1439.262381	666.4000244
1439.787843	667.7999878
1440.313251	669.0
1440.838603	666.5999756
1441.3639	666.4000244
1441.889143	663.7999878
1442.41433	665.4000244
1442.939462	667.4000244
1443.464539	664.4000244
1443.989561	667.0
1444.514528	665.2000122
1445.03944	665.0
1445.564297	666.2000122
1446.089099	668.2000122
1446.613846	664.5999756
1447.138537	666.4000244
1447.663174	666.0
1448.187756	667.7999878
1448.712282	665.5999756
1449.236754	670.2000122
1449.761171	664.7999878
1450.285532	667.7999878
1450.809839	664.5999756
1451.33409	665.7999878
1451.858287	667.4000244
1452.906515	672.0
1453.430546	665.4000244
1453.954523	665.7999878
1454.478444	664.7999878
1455.002311	666.7999878
1455.526123	665.4000244
1456.049879	666.5999756
1456.573581	664.5999756
1457.097227	666.2000122
1457.620819	667.0
1458.144356	667.5999756
1458.667837	668.7999878
1459.191264	667.2000122
1459.714636	667.7999878
1460.237952	667.0
1460.761214	667.2000122
1461.284421	668.2000122
1461.807573	668.4000244
1462.33067	664.5999756
1462.853712	673.4000244
1463.376699	690.5999756
1463.899632	670.5999756
1464.422509	667.7999878
1464.945331	667.2000122
1465.468099	665.5999756
1465.990811	665.0
1466.513469	663.0
1467.036071	663.7999878
1467.558619	665.2000122
1468.081112	666.0
1468.60355	667.0
1469.125933	664.2000122
1469.648261	667.4000244
1470.170534	668.0
1470.692752	665.4000244
1471.214916	666.2000122
1471.737024	664.0
1472.259078	665.2000122
1472.781077	664.4000244
1473.303021	664.5999756
1473.82491	665.5999756
1474.346744	663.4000244
1474.868523	664.0
1475.390248	665.5999756
1475.911917	665.0
1476.433532	666.4000244
1476.955092	666.0
1477.476597	665.4000244
1477.998047	665.2000122
1478.519442	666.2000122
1479.040783	666.0
1479.562068	664.7999878
1480.083299	666.0
1480.604475	665.0
1481.125596	666.2000122
1481.646663	664.7999878
1482.167674	662.0
1482.688631	665.2000122
1483.209533	664.7999878
1483.73038	664.0
1484.251172	665.4000244
1484.771909	667.5999756
1485.292592	665.4000244
1485.81322	667.2000122
1486.333793	666.2000122
1486.854311	666.2000122
1487.374775	664.5999756
1487.895183	665.4000244
1488.415537	663.5999756
1488.935836	665.7999878
1489.456081	662.7999878
1489.97627	664.2000122
1490.496405	664.5999756
1491.016485	664.7999878
1491.536511	666.0
1492.056481	664.0
1492.576397	664.7999878
1493.096258	664.7999878
1493.616064	662.5999756
1494.135816	664.0
1494.655513	665.0
1495.175155	665.0
1495.694742	665.0
1496.214274	664.7999878
1496.733752	663.7999878
1497.253175	663.5999756
1497.772544	663.5999756
1498.291858	666.0
1498.811116	666.5999756
1499.330321	663.4000244
1499.84947	672.2000122
1500.368565	664.0
1500.887605	664.7999878
1501.406591	664.5999756
1501.925521	666.2000122
1502.444397	665.2000122
1502.963219	664.5999756
1503.481985	666.2000122
1504.000697	665.5999756
1504.519355	666.4000244
1505.037957	665.7999878
1505.556505	666.7999878
1506.074999	665.5999756
1506.593437	663.0
1507.111821	665.7999878
1507.63015	664.0
1508.148425	662.5999756
1508.666645	665.7999878
1509.18481	665.0
1509.702921	663.7999878
1510.220977	667.0
1510.738979	672.7999878
1511.256925	669.0
1511.774817	664.5999756
1512.292655	666.5999756
1512.810438	663.2000122
1513.328166	663.0
1513.84584	663.5999756
1514.363459	664.5999756
1514.881023	664.5999756
1515.398533	661.7999878
1515.915988	666.0
1516.433389	664.0
1516.950734	662.4000244
1517.468026	665.4000244
1517.985263	666.0
1518.502445	662.4000244
1519.019572	666.4000244
1519.536645	666.5999756
1520.053664	662.2000122
1520.570628	664.4000244
1521.087537	662.0
1521.604392	663.5999756
1522.121192	664.2000122
1522.637937	665.5999756
1523.154628	664.4000244
1523.671265	666.7999878
1524.187847	666.5999756
1524.704374	662.7999878
1525.220847	664.7999878
1525.737265	668.5999756
1526.253629	685.5999756
1526.769938	672.5999756
1527.286192	667.7999878
1527.802392	668.5999756
1528.318538	664.7999878
1528.834629	665.7999878
1529.350666	665.7999878
1529.866648	665.2000122
1530.382575	668.5999756
1530.898448	664.4000244
1531.414266	666.4000244
1531.93003	664.2000122
1532.44574	664.7999878
1532.961395	666.7999878
1533.476995	665.0
1533.992541	666.4000244
1534.508033	665.4000244
1535.02347	665.0
1535.538852	664.4000244
1536.05418	666.0
1536.569454	664.5999756
1537.084673	664.7999878
1537.599837	665.0
1538.114947	665.2000122
1538.630003	665.2000122
1539.145004	666.2000122
1539.659951	666.5999756
1540.174843	666.4000244
1540.689681	664.7999878
1541.204465	664.5999756
1541.719194	664.0
1542.233868	663.5999756
1542.748488	665.0
1543.263054	666.5999756
1543.777565	666.0
1544.292022	666.2000122
1544.806424	667.7999878
1545.320772	664.5999756
1545.835066	664.5999756
1546.349305	665.0
1546.863489	664.4000244
1547.37762	666.0
1547.891696	665.0
1548.405717	667.7999878
1548.919684	666.7999878
1549.433597	666.7999878
1549.947455	665.2000122
1550.461259	666.5999756
1550.975009	666.2000122
1551.488704	666.4000244
1552.002345	666.7999878
1552.515931	665.2000122
1553.029463	665.5999756
1553.542941	664.2000122
1554.056364	667.7999878
1554.569733	663.2000122
1555.083048	667.2000122
1555.596308	668.2000122
1556.109514	666.7999878
1556.622665	664.7999878
1557.135762	665.7999878
1557.648805	665.4000244
1558.161794	664.7999878
1558.674728	667.2000122
1559.187608	665.4000244
1559.700433	663.4000244
1560.213205	664.5999756
1560.725921	665.4000244
1561.238584	662.2000122
1561.751192	666.4000244
1562.263746	667.5999756
1562.776246	665.7999878
1563.288691	666.7999878
1563.801082	665.7999878
1564.313419	667.0
1564.825701	669.7999878
1565.337929	667.7999878
1565.850103	666.5999756
1566.362223	666.5999756
1566.874288	667.2000122
1567.386299	668.5999756
1567.898256	670.2000122
1568.410158	667.5999756
1568.922007	667.2000122
1569.4338	667.2000122
1569.94554	669.0
1570.457226	667.2000122
1570.968857	671.0
1571.480434	668.0
1571.991956	664.7999878
1572.503425	665.2000122
1573.014839	665.7999878
1573.526199	665.4000244
1574.037505	668.2000122
1574.548756	664.2000122
1575.059953	664.0
1575.571096	666.0
1576.082185	667.2000122
1576.59322	668.0
1577.1042	666.5999756
1577.615126	665.2000122
1578.125998	665.5999756
1578.636816	664.5999756
1579.14758	666.0
1579.658289	665.7999878
1580.168944	667.0
1580.679545	665.7999878
1581.190092	666.0
1581.700585	666.4000244
1582.211023	668.4000244
1582.721407	663.7999878
1583.231737	666.0
1583.742013	666.7999878
1584.252235	664.7999878
1584.762403	666.0
1585.272516	666.0
1585.782575	665.4000244
1586.292581	665.7999878
1586.802532	666.2000122
1587.312428	667.4000244
1587.822271	666.5999756
1588.33206	665.5999756
1588.841794	664.4000244
1589.351474	666.2000122
1589.8611	665.7999878
1590.370672	665.2000122
1590.88019	664.0
1591.389654	663.7999878
1591.899064	662.4000244
1592.408419	664.2000122
