1042.452273	679.2000122
1043.018714	680.2000122
1043.585098	680.5999756
1044.151424	676.2000122
1044.717692	678.2000122
1045.283903	680.2000122
1045.850056	680.7999878
1046.416151	680.4000244
1046.982188	681.2000122
1047.548167	677.2000122
1048.114089	679.0
1048.679953	680.4000244
1049.24576	677.5999756
1049.811509	675.7999878
1050.3772	675.4000244
1050.942833	680.2000122
1051.508408	677.0
1052.073926	678.4000244
1052.639387	674.4000244
1053.204789	675.2000122
1053.770134	675.2000122
1054.335421	674.0
1054.900651	677.4000244
1055.465823	673.4000244
1056.030937	673.2000122
1056.595993	674.7999878
1057.160992	676.2000122
1057.725934	677.0
1058.290817	674.4000244
1058.855643	674.7999878
1059.420411	676.2000122
1059.985122	673.7999878
1060.549775	675.4000244
1061.114371	673.5999756
1061.678908	674.2000122
1062.243389	674.7999878
1062.807811	674.4000244
1063.372176	672.5999756
1063.936483	673.5999756
1064.500733	673.0
1065.064925	671.4000244
1065.62906	672.4000244
1066.193137	672.4000244
1066.757156	670.4000244
1067.321118	674.2000122
1067.885022	675.5999756
1068.448869	674.2000122
1069.012658	675.2000122
1069.57639	674.4000244
1070.140063	679.2000122
1070.70368	672.5999756
1071.267239	671.0
1071.83074	672.7999878
1072.394184	675.4000244
1072.95757	674.4000244
1073.520899	670.5999756
1074.08417	675.4000244
1074.647383	674.5999756
1075.21054	672.2000122
1075.773638	673.7999878
1076.336679	676.0
1076.899663	676.5999756
1077.462589	674.4000244
1078.025457	674.2000122
1078.588268	674.5999756
1079.151022	673.5999756
1079.713718	673.5999756
1080.276356	677.2000122
1080.838937	675.4000244
1081.401461	675.7999878
1081.963927	675.5999756
1082.526336	675.0
1083.088687	675.4000244
1083.650981	678.5999756
1084.213217	674.4000244
1084.775396	675.5999756
1085.337517	672.5999756
1085.899581	676.4000244
1086.461587	675.2000122
1087.023536	675.5999756
1087.585428	679.5999756
1088.147262	677.4000244
1088.709039	677.2000122
1089.270758	678.5999756
1089.83242	679.2000122
1090.394024	678.4000244
1090.955571	683.4000244
1091.517061	681.7999878
1092.078493	683.4000244
1092.639868	683.0
1093.201185	680.4000244
1093.762445	680.7999878
1094.323648	679.0
1094.884793	682.7999878
1095.445881	681.7999878
1096.006911	679.7999878
1096.567884	677.0
1097.1288	684.7999878
1097.689659	679.5999756
1098.25046	678.4000244
1098.811203	679.5999756
1099.37189	678.7999878
1099.932518	676.2000122
1100.49309	675.4000244
1101.053604	675.0
1101.614061	678.4000244
1102.174461	676.2000122
1102.734803	675.2000122
1103.295088	676.2000122
1103.855316	676.5999756
1104.415486	676.2000122
1104.975599	676.7999878
1105.535655	674.4000244
1106.095653	675.2000122
1106.655594	673.4000244
1107.215478	676.0
1107.775305	673.5999756
1108.335074	678.7999878
1108.894786	674.5999756
1109.45444	679.4000244
1110.014038	674.2000122
1110.573578	674.0
1111.133061	677.0
1111.692486	677.4000244
1112.251854	680.7999878
1112.811165	677.7999878
1113.370419	676.0
1113.929616	674.0
1114.488755	675.7999878
1115.047837	673.5999756
1115.606862	676.4000244
1116.16583	680.5999756
1116.72474	676.2000122
1117.283593	676.7999878
1117.842389	674.2000122
1118.401128	672.7999878
1118.959809	675.4000244
1119.518433	673.7999878
1120.077	674.2000122
1120.63551	673.4000244
1121.193963	673.2000122
1121.752358	676.0
1122.310697	670.0
1122.868978	676.5999756
1123.427202	677.7999878
1123.985368	672.7999878
1124.543478	673.7999878
1125.10153	672.4000244
1125.659526	673.2000122
1126.217464	674.4000244
1126.775345	677.2000122
1127.333168	678.0
1127.890935	679.4000244
1128.448644	677.2000122
1129.006297	680.0
1129.563892	678.2000122
1130.12143	678.0
1130.678911	674.4000244
1131.236335	673.2000122
1131.793701	674.4000244
1132.351011	673.4000244
1132.908263	673.0
1133.465458	673.2000122
1134.022597	672.5999756
1134.579678	674.4000244
1135.136702	672.5999756
1135.693669	674.2000122
1136.250578	670.7999878
1136.807431	673.0
1137.364227	670.0
1137.920965	671.0
1138.477647	672.4000244
1139.034271	669.2000122
1139.590839	674.2000122
1140.147349	672.5999756
1140.703802	671.7999878
1141.260198	671.7999878
1141.816537	670.7999878
1142.37282	674.5999756
1142.929045	673.7999878
1143.485213	674.2000122
1144.041323	670.4000244
1144.597377	671.5999756
1145.153374	673.4000244
1145.709314	673.5999756
1146.265197	671.5999756
1146.821023	670.2000122
1147.376792	671.7999878
1147.932503	673.4000244
1148.488158	672.7999878
1149.043756	670.4000244
1149.599297	673.4000244
1150.154781	671.2000122
1150.710207	673.4000244
1151.265577	672.0
1151.82089	672.2000122
1152.376146	673.4000244
1152.931345	669.2000122
1153.486487	672.4000244
1154.041572	672.2000122
1154.5966	675.0
1155.151571	674.4000244
1155.706485	674.2000122
1156.261342	673.2000122
1156.816142	674.4000244
1157.370885	674.4000244
1157.925572	671.5999756
1158.480201	671.4000244
1159.034774	672.7999878
1159.589289	673.5999756
1160.143748	671.7999878
1160.698149	673.5999756
1161.252494	673.5999756
1161.806782	673.5999756
1162.361013	675.0
1162.915187	674.0
1163.469304	670.2000122
1164.023364	673.0
1164.577368	673.4000244
1165.131314	670.2000122
1165.685204	673.4000244
1166.239036	671.4000244
1166.792812	672.4000244
1167.346531	673.2000122
1167.900193	674.7999878
1168.453798	669.5999756
1169.007347	672.7999878
1169.560838	668.5999756
1170.114273	669.4000244
1170.66765	673.2000122
1171.220971	673.5999756
1171.774235	674.4000244
1172.327443	670.0
1172.880593	673.5999756
1173.433687	670.5999756
1173.986723	671.4000244
1174.539703	672.4000244
1175.092626	672.2000122
1175.645493	670.0
1176.198302	670.5999756
1176.751055	672.4000244
1177.303751	673.0
1177.85639	674.0
1178.408972	672.4000244
1178.961498	675.0
1179.513966	673.4000244
1180.066378	675.0
1180.618733	676.5999756
1181.171032	675.5999756
1181.723273	676.5999756
1182.275458	673.4000244
1182.827586	674.0
1183.379657	673.5999756
1183.931672	675.4000244
1184.48363	673.4000244
1185.035531	672.0
1185.587375	674.4000244
1186.139162	672.4000244
1186.690893	675.5999756
1187.242567	672.5999756
1187.794184	678.2000122
1188.345745	676.2000122
1188.897249	674.7999878
1189.448696	673.4000244
1190.000086	675.2000122
1190.55142	674.2000122
1191.102697	674.5999756
1191.653918	674.2000122
1192.205081	670.5999756
1192.756188	673.0
1193.307238	690.2000122
1193.858232	669.7999878
1194.409169	672.2000122
1194.960049	673.2000122
1195.510872	671.5999756
1196.061639	673.2000122
1196.612349	670.5999756
1197.163003	672.7999878
1197.713599	673.5999756
1198.264139	673.2000122
1198.814623	676.4000244
1199.36505	671.5999756
1199.91542	673.0
1200.465734	673.2000122
1201.01599	670.7999878
1201.566191	670.0
1202.116334	670.4000244
1202.666421	670.7999878
1203.216452	673.0
1203.766425	672.2000122
1204.316343	671.7999878
1204.866203	673.0
1205.416007	670.4000244
1205.965754	672.2000122
1206.515445	671.7999878
1207.065079	671.7999878
1207.614657	671.4000244
1208.164177	672.0
1208.713642	673.7999878
1209.26305	671.4000244
1209.812401	673.2000122
1210.361695	670.5999756
1210.910933	673.7999878
1211.460115	675.4000244
1212.00924	672.5999756
1212.558308	674.0
1213.10732	673.5999756
1213.656275	674.4000244
1214.205174	673.2000122
1214.754016	676.2000122
1215.302801	674.0
1215.85153	672.5999756
1216.400203	672.2000122
1216.948819	672.4000244
1217.497378	672.0
1218.045881	672.5999756
1218.594327	671.7999878
1219.142717	673.7999878
1219.691051	672.4000244
1220.239327	675.4000244
1220.787548	674.4000244
1221.335712	671.7999878
1221.883819	670.4000244
1222.43187	675.4000244
1222.979864	673.4000244
1223.527802	674.2000122
1224.075683	675.5999756
1224.623508	674.4000244
1225.171277	675.5999756
1225.718989	674.7999878
1226.266644	675.2000122
1226.814243	675.2000122
1227.361786	676.4000244
1227.909272	673.0
1228.456702	671.0
1229.004075	673.7999878
1229.551392	673.7999878
1230.098652	673.4000244
1230.645856	673.2000122
1231.193003	676.5999756
1231.740094	676.5999756
1232.287129	673.5999756
1232.834107	675.0
1233.381029	673.7999878
1233.927894	678.0
1234.474703	673.7999878
1235.021455	672.7999878
1235.568151	674.7999878
1236.114791	675.4000244
1236.661374	675.7999878
1237.207901	672.2000122
1237.754372	672.4000244
1238.300786	672.5999756
1238.847144	673.2000122
1239.393445	675.4000244
1239.93969	673.7999878
1240.485879	676.7999878
1241.032011	672.2000122
1241.578087	675.4000244
1242.124106	675.2000122
1242.67007	676.4000244
1243.215976	677.0
1243.761827	678.0
1244.307621	677.7999878
1244.853359	673.4000244
1245.39904	676.5999756
1245.944665	676.5999756
1246.490234	674.0
1247.035746	673.7999878
1247.581203	675.5999756
1248.126602	676.0
1248.671946	677.0
1249.217233	674.0
1249.762464	673.5999756
1250.307638	674.7999878
1250.852757	676.0
1251.397819	675.0
1251.942824	676.0
1252.487774	676.7999878
1253.032667	675.2000122
1253.577503	673.7999878
1254.122284	674.7999878
1254.667008	677.0
1255.211676	673.0
1255.756288	676.7999878
1256.300843	677.7999878
1256.845342	676.5999756
1257.389785	678.2000122
1257.934172	677.0
1258.478502	678.4000244
1259.022776	676.2000122
1259.566994	679.2000122
1260.111156	691.4000244
1260.655261	680.4000244
1261.199311	674.2000122
1261.743304	678.4000244
1262.28724	678.0
1262.831121	682.4000244
1263.374945	686.4000244
1263.918713	691.4000244
1264.462425	689.4000244
1265.006081	693.5999756
1265.54968	688.7999878
1266.093223	681.2000122
1266.636711	681.2000122
1267.180141	681.4000244
1267.723516	676.4000244
1268.266835	676.5999756
1268.810097	677.0
1269.353303	674.7999878
1269.896453	677.0
1270.439547	675.5999756
1270.982584	675.7999878
1271.525566	676.5999756
1272.068491	673.2000122
1272.61136	676.2000122
1273.154173	675.2000122
1273.69693	678.7999878
1274.239631	672.7999878
1274.782275	678.0
1275.324864	673.7999878
1275.867396	676.7999878
1276.409872	673.7999878
1276.952292	677.4000244
1277.494656	676.4000244
1278.036964	676.5999756
1278.579215	678.0
1279.121411	679.2000122
1279.66355	681.0
1280.205634	683.7999878
1280.747661	683.2000122
1281.289632	690.2000122
1281.831547	689.5999756
1282.373406	710.4000244
1282.915209	740.5999756
1283.456955	802.4000244
1283.998646	897.2000122
1284.540281	984.2000122
1285.081859	930.7999878
1285.623381	804.5999756
1286.164848	728.5999756
1286.706258	704.4000244
1287.247612	692.5999756
1287.788911	684.4000244
1288.330153	680.4000244
1288.871339	683.5999756
1289.412469	678.2000122
1289.953543	680.4000244
1290.494561	679.7999878
1291.035523	680.7999878
1291.576428	679.5999756
1292.117278	677.5999756
1292.658072	679.0
1293.19881	677.4000244
1293.739492	679.7999878
1294.280118	679.4000244
1294.820687	675.2000122
1295.361201	674.4000244
1295.901659	676.7999878
1296.442061	675.7999878
1296.982406	674.2000122
1297.522696	675.4000244
1298.06293	673.5999756
1298.603108	674.5999756
1299.143229	677.2000122
1299.683295	677.2000122
1300.223305	676.0
1300.763259	675.7999878
1301.303157	674.7999878
1301.842999	674.5999756
1302.382785	673.7999878
1302.922515	675.0
1303.462189	672.4000244
1304.001807	673.7999878
1304.541369	671.5999756
1305.080875	674.2000122
1305.620326	673.4000244
1306.15972	674.7999878
1306.699058	673.4000244
1307.238341	677.5999756
1307.777567	673.4000244
1308.316738	674.0
1308.855853	673.4000244
1309.394912	676.7999878
1309.933915	674.2000122
1310.472862	673.7999878
1311.011753	674.5999756
1311.550588	674.4000244
1312.089367	675.0
1312.62809	676.2000122
1313.166758	673.4000244
1313.70537	671.7999878
1314.243925	673.7999878
1314.782425	671.4000244
1315.320869	672.7999878
1315.859257	675.4000244
1316.397589	677.0
1316.935866	670.2000122
1317.474086	677.7999878
1318.012251	672.4000244
1318.55036	674.2000122
1319.088413	670.7999878
1319.62641	671.7999878
1320.164351	673.4000244
1320.702236	673.7999878
1321.240066	672.2000122
1321.777839	673.2000122
1322.315557	673.4000244
1322.853219	674.2000122
1323.390826	673.7999878
1323.928376	678.4000244
1324.465871	674.7999878
1325.003309	671.7999878
1325.540692	675.5999756
1326.07802	676.7999878
1326.615291	673.7999878
1327.152506	673.7999878
1327.689666	671.7999878
1328.22677	670.0
1328.763818	672.4000244
1329.300811	673.5999756
1329.837747	670.4000244
1330.374628	671.4000244
1330.911453	675.7999878
1331.448222	674.5999756
1331.984936	673.0
1332.521594	671.7999878
1333.058196	672.2000122
1333.594742	669.7999878
1334.131232	672.7999878
1334.667667	673.4000244
1335.204046	674.2000122
1335.740369	675.0
1336.276637	673.0
1336.812848	675.5999756
1337.349004	673.2000122
1337.885105	673.4000244
1338.421149	673.2000122
1338.957138	670.2000122
1339.493071	676.5999756
1340.028949	674.0
1340.56477	671.5999756
1341.100536	674.4000244
1341.636246	672.4000244
1342.171901	670.5999756
1342.7075	673.2000122
1343.243043	670.5999756
1343.77853	675.4000244
1344.313962	672.5999756
1344.849338	670.7999878
1345.384659	673.5999756
1345.919923	673.7999878
1346.455133	671.7999878
1346.990286	673.0
1347.525384	671.2000122
1348.060426	673.4000244
1348.595412	673.7999878
1349.130343	673.0
1349.665218	673.5999756
1350.200037	672.5999756
1350.734801	674.0
1351.269509	672.7999878
1351.804162	674.5999756
1352.338758	675.0
1352.8733	674.7999878
1353.407785	672.5999756
1353.942215	674.2000122
1354.476589	676.5999756
1355.010908	673.0
1355.545171	674.7999878
1356.079379	674.4000244
1356.61353	672.5999756
1357.147627	673.0
1357.681667	672.0
1358.215652	674.4000244
1358.749582	673.7999878
1359.283456	675.5999756
1359.817274	673.5999756
1360.351037	673.5999756
1360.884744	671.4000244
1361.418395	674.7999878
1361.951991	672.0
1362.485531	674.2000122
1363.019016	674.5999756
1363.552445	673.7999878
1364.085819	676.5999756
1364.619137	674.4000244
1365.1524	677.7999878
1365.685607	675.4000244
1366.218758	675.0
1366.751854	672.0
1367.284894	672.2000122
1367.817879	674.4000244
1368.350808	672.5999756
1368.883682	678.0
1369.4165	678.0
1369.949263	683.7999878
1370.48197	683.2000122
1371.014622	679.4000244
1371.547218	676.2000122
1372.079758	676.4000244
1372.612244	673.7999878
1373.144673	676.2000122
1373.677047	673.7999878
1374.209366	677.4000244
1374.741629	677.2000122
1375.273836	675.4000244
1375.805989	676.7999878
1376.338085	675.2000122
1376.870126	675.5999756
1377.402112	679.5999756
1377.934042	677.7999878
1378.465917	678.2000122
1378.997736	677.7999878
1379.5295	675.0
1380.061208	679.7999878
1380.592861	677.4000244
1381.124459	680.7999878
1381.656	677.5999756
1382.187487	680.5999756
1382.718918	678.7999878
1383.250294	681.0
1383.781614	684.4000244
1384.312879	686.7999878
1384.844088	690.0
1385.375242	697.7999878
1385.90634	704.7999878
1386.437383	724.5999756
1386.968371	775.5999756
1387.499303	926.4000244
1388.03018	1217.599976
1388.561001	1248.199951
1389.091767	930.2000122
1389.622478	764.2000122
1390.153133	714.4000244
1390.683733	695.7999878
1391.214277	692.5999756
1391.744766	684.4000244
1392.2752	685.4000244
1392.805578	680.7999878
1393.335901	679.7999878
1393.866168	683.2000122
1394.396381	677.5999756
1394.926537	678.0
1395.456639	675.2000122
1395.986685	678.4000244
1396.516675	678.0
1397.046611	678.7999878
1397.576491	676.4000244
1398.106315	675.4000244
1398.636084	674.4000244
1399.165798	676.0
1399.695457	674.0
1400.22506	675.2000122
1400.754608	674.4000244
1401.284101	677.0
1401.813538	678.5999756
1402.34292	675.5999756
1402.872247	673.5999756
1403.401518	678.2000122
1403.930734	678.2000122
1404.459895	676.4000244
1404.989	675.5999756
1405.51805	679.4000244
1406.047045	675.7999878
1406.575984	678.2000122
1407.104869	681.2000122
1407.633697	679.0
1408.162471	683.0
1408.691189	690.4000244
1409.219852	702.2000122
1409.74846	704.5999756
1410.277013	701.7999878
1410.80551	693.4000244
1411.333952	683.0
1411.862339	678.5999756
1412.39067	677.7999878
1412.918946	673.4000244
1413.447167	676.4000244
1413.975333	672.7999878
1414.503444	675.0
1415.031499	672.5999756
1415.559499	687.5999756
1416.087444	674.4000244
1416.615333	673.2000122
1417.143167	674.2000122
1417.670947	671.4000244
1418.19867	673.7999878
1418.726339	675.0
1419.253952	674.4000244
1419.781511	674.0
1420.309014	670.4000244
1420.836461	671.7999878
1421.363854	674.2000122
1421.891191	672.5999756
1422.418474	674.7999878
1422.945701	670.7999878
1423.472872	669.0
1423.999989	671.7999878
1424.52705	673.2000122
1425.054057	674.7999878
1425.581008	674.0
1426.107904	673.7999878
1426.634745	673.2000122
1427.16153	676.2000122
1427.688261	670.7999878
1428.214936	674.2000122
1428.741556	670.2000122
1429.268121	672.5999756
1429.794631	671.7999878
1430.321085	673.5999756
1430.847485	675.5999756
1431.373829	669.4000244
1431.900118	671.4000244
1432.426353	670.7999878
1432.952532	671.5999756
1433.478655	670.7999878
1434.004724	672.2000122
1434.530738	674.7999878
1435.056696	673.0
1435.5826	673.0
1436.108448	675.4000244
1436.634241	672.7999878
1437.159979	671.2000122
1437.685662	671.5999756
1438.21129	673.4000244
1438.736863	674.2000122
1439.262381	669.5999756
1439.787843	674.2000122
1440.313251	671.0
1440.838603	670.7999878
1441.3639	668.5999756
1441.889143	676.5999756
1442.41433	672.0
1442.939462	672.2000122
1443.464539	670.4000244
1443.989561	673.5999756
1444.514528	673.2000122
1445.03944	667.7999878
1445.564297	670.7999878
1446.089099	671.2000122
1446.613846	672.0
1447.138537	671.0
1447.663174	672.7999878
1448.187756	673.4000244
1448.712282	672.5999756
1449.236754	672.0
1449.761171	670.0
1450.285532	670.7999878
1450.809839	671.0
1451.33409	670.5999756
1451.858287	667.7999878
1452.382428	674.4000244
1452.906515	671.2000122
1453.430546	669.7999878
1453.954523	672.4000244
1454.478444	673.4000244
1455.002311	668.7999878
1455.526123	670.7999878
1456.049879	673.0
1456.573581	671.2000122
1457.097227	670.2000122
1457.620819	671.5999756
1458.144356	671.0
1458.667837	672.0
1459.191264	674.4000244
1459.714636	670.0
1460.237952	669.4000244
1460.761214	671.4000244
1461.284421	671.7999878
1461.807573	671.7999878
1462.33067	675.7999878
1462.853712	702.2000122
1463.376699	697.7999878
1463.899632	675.2000122
1464.422509	669.4000244
1464.945331	668.0
1465.468099	672.7999878
1465.990811	673.7999878
1466.513469	671.7999878
1467.036071	671.2000122
1467.558619	670.5999756
1468.081112	672.0
1468.60355	668.4000244
1469.125933	670.4000244
1469.648261	669.4000244
1470.170534	672.4000244
1470.692752	669.4000244
1471.214916	671.2000122
1471.737024	671.4000244
1472.259078	668.7999878
1472.781077	669.7999878
1473.303021	670.5999756
1473.82491	669.2000122
1474.346744	672.4000244
1474.868523	669.5999756
1475.390248	670.2000122
1475.911917	671.4000244
1476.433532	668.0
1476.955092	671.0
1477.476597	670.2000122
1477.998047	669.4000244
1478.519442	669.2000122
1479.040783	669.0
1479.562068	670.7999878
1480.083299	671.0
1480.604475	668.0
1481.125596	668.7999878
1481.646663	669.2000122
1482.167674	672.2000122
1482.688631	667.5999756
1483.209533	670.2000122
1483.73038	671.2000122
1484.251172	671.0
1484.771909	670.7999878
1485.292592	669.0
1485.81322	672.2000122
1486.333793	667.7999878
1486.854311	668.7999878
1487.374775	673.5999756
1487.895183	672.5999756
1488.415537	667.5999756
1488.935836	670.0
1489.456081	669.0
1489.97627	667.7999878
1490.496405	668.0
1491.016485	668.0
1491.536511	669.5999756
1492.056481	668.7999878
1492.576397	672.0
1493.096258	668.5999756
1493.616064	666.5999756
1494.135816	667.2000122
1494.655513	670.0
1495.175155	671.5999756
1495.694742	671.0
1496.214274	666.7999878
1496.733752	668.0
1497.253175	667.5999756
1497.772544	666.5999756
1498.291858	669.7999878
1498.811116	670.0
1499.330321	667.5999756
1499.84947	677.0
1500.368565	667.7999878
1500.887605	667.4000244
1501.406591	668.2000122
1501.925521	668.7999878
1502.444397	668.2000122
1502.963219	670.5999756
1503.481985	668.7999878
1504.000697	667.7999878
1504.519355	669.2000122
1505.037957	666.0
1505.556505	669.7999878
1506.074999	667.4000244
1506.593437	670.7999878
1507.111821	668.5999756
1507.63015	665.5999756
1508.148425	668.2000122
1508.666645	670.2000122
1509.18481	668.5999756
1509.702921	669.2000122
1510.220977	667.0
1510.738979	679.7999878
1511.256925	669.7999878
1511.774817	669.4000244
1512.292655	669.0
1512.810438	670.0
1513.328166	670.0
1513.84584	665.7999878
1514.363459	669.2000122
1514.881023	670.5999756
1515.398533	670.0
1515.915988	668.2000122
1516.433389	668.0
1516.950734	667.2000122
1517.468026	670.5999756
1517.985263	670.2000122
1518.502445	673.2000122
1519.536645	669.7999878
1520.053664	667.7999878
1520.570628	670.7999878
1521.087537	670.4000244
1521.604392	668.7999878
1522.121192	668.4000244
1522.637937	670.2000122
1523.154628	669.7999878
1523.671265	669.2000122
1524.187847	669.4000244
1524.704374	667.4000244
1525.220847	672.2000122
1525.737265	684.0
1526.253629	691.7999878
1526.769938	676.2000122
1527.286192	671.0
1527.802392	667.2000122
1528.318538	668.0
1528.834629	669.0
1529.350666	670.2000122
1529.866648	666.0
1530.382575	671.0
1530.898448	665.2000122
1531.414266	670.7999878
1531.93003	668.2000122
1532.44574	670.7999878
1532.961395	666.4000244
1533.476995	669.0
1533.992541	670.2000122
1534.508033	670.2000122
1535.02347	670.7999878
1535.538852	668.2000122
1536.05418	669.2000122
1536.569454	668.2000122
1537.084673	668.7999878
1537.599837	668.2000122
1538.114947	670.2000122
1538.630003	668.5999756
1539.145004	669.2000122
1539.659951	669.4000244
1540.174843	671.7999878
1540.689681	669.7999878
1541.204465	668.7999878
1541.719194	671.2000122
1542.233868	668.7999878
1542.748488	669.7999878
1543.263054	668.4000244
1543.777565	669.4000244
1544.292022	668.4000244
1544.806424	666.7999878
1545.320772	668.0
1545.835066	672.7999878
1546.349305	668.4000244
1546.863489	670.2000122
1547.37762	670.0
1547.891696	667.5999756
1548.405717	669.7999878
1548.919684	670.0
1549.433597	668.4000244
1549.947455	668.4000244
1550.461259	669.7999878
1550.975009	670.0
1551.488704	669.2000122
1552.002345	672.2000122
1552.515931	672.5999756
1553.029463	670.0
1553.542941	670.0
1554.056364	669.0
1554.569733	670.2000122
1555.083048	670.4000244
1555.596308	671.5999756
1556.109514	668.0
1556.622665	668.4000244
1557.135762	669.5999756
1557.648805	669.5999756
1558.161794	671.4000244
1558.674728	670.0
1559.187608	672.0
1559.700433	669.4000244
1560.213205	669.2000122
1560.725921	668.2000122
1561.238584	669.0
1561.751192	670.4000244
1562.263746	671.4000244
1562.776246	671.2000122
1563.288691	671.2000122
1563.801082	671.0
1564.313419	671.7999878
1564.825701	672.0
1565.337929	672.5999756
1565.850103	673.0
1566.362223	673.7999878
1566.874288	673.4000244
1567.386299	675.5999756
1567.898256	673.5999756
1568.410158	669.2000122
1568.922007	673.0
1569.4338	670.2000122
1569.94554	671.2000122
1570.457226	671.7999878
1570.968857	668.5999756
1571.480434	666.4000244
1571.991956	669.5999756
1572.503425	669.5999756
1573.014839	668.2000122
1573.526199	669.4000244
1574.037505	668.5999756
1574.548756	668.4000244
1575.059953	670.5999756
1575.571096	670.0
1576.082185	668.7999878
1576.59322	669.4000244
1577.1042	665.2000122
1577.615126	666.7999878
1578.125998	669.2000122
1578.636816	668.5999756
1579.14758	672.5999756
1579.658289	668.0
1580.168944	669.7999878
1580.679545	668.7999878
1581.190092	666.5999756
1581.700585	668.0
1582.211023	669.7999878
1582.721407	669.5999756
1583.231737	668.4000244
1583.742013	667.5999756
1584.252235	670.5999756
1584.762403	668.0
1585.272516	666.5999756
1585.782575	670.7999878
1586.292581	670.0
1586.802532	671.0
1587.312428	669.4000244
1587.822271	667.7999878
1588.33206	668.5999756
1588.841794	668.0
1589.351474	670.7999878
1589.8611	668.0
1590.370672	668.4000244
1590.88019	668.0
1591.389654	668.7999878
1591.899064	670.0
1592.408419	667.4000244
