1042.452273	683.2000122
1043.018714	682.7999878
1043.585098	685.2000122
1044.151424	683.0
1044.717692	679.7999878
1045.283903	681.7999878
1045.850056	683.7999878
1046.416151	680.0
1046.982188	680.5999756
1047.548167	680.4000244
1048.114089	680.5999756
1048.679953	675.5999756
1049.24576	678.5999756
1049.811509	677.7999878
1050.3772	680.5999756
1050.942833	680.4000244
1051.508408	676.4000244
1052.073926	678.7999878
1052.639387	678.2000122
1053.204789	679.4000244
1053.770134	676.7999878
1054.335421	676.2000122
1054.900651	679.2000122
1055.465823	675.5999756
1056.030937	678.0
1056.595993	674.7999878
1057.160992	679.4000244
1057.725934	675.0
1058.290817	675.4000244
1058.855643	676.4000244
1059.420411	676.5999756
1059.985122	676.0
1060.549775	674.5999756
1061.114371	673.7999878
1061.678908	674.7999878
1062.243389	675.2000122
1062.807811	674.2000122
1063.372176	673.7999878
1063.936483	678.0
1064.500733	673.5999756
1065.064925	674.7999878
1065.62906	677.5999756
1066.193137	674.0
1066.757156	673.5999756
1067.321118	674.5999756
1067.885022	675.5999756
1068.448869	677.0
1069.012658	675.5999756
1069.57639	673.4000244
1070.140063	685.0
1070.70368	672.4000244
1071.267239	670.5999756
1071.83074	675.7999878
1072.394184	674.0
1072.95757	673.4000244
1073.520899	673.5999756
1074.08417	673.5999756
1074.647383	677.7999878
1075.21054	673.4000244
1075.773638	676.5999756
1076.336679	674.0
1076.899663	676.5999756
1077.462589	675.4000244
1078.025457	674.7999878
1078.588268	675.4000244
1079.151022	674.4000244
1079.713718	675.4000244
1080.276356	676.5999756
1080.838937	679.4000244
1081.401461	675.5999756
1081.963927	677.5999756
1082.526336	679.7999878
1083.088687	676.4000244
1083.650981	679.0
1084.213217	680.0
1084.775396	678.4000244
1085.337517	679.5999756
1085.899581	680.7999878
1086.461587	683.0
1087.023536	681.7999878
1087.585428	684.4000244
1088.147262	680.7999878
1088.709039	688.2000122
1089.270758	682.7999878
1089.83242	680.7999878
1090.394024	687.0
1090.955571	685.0
1091.517061	689.2000122
1092.078493	687.5999756
1092.639868	689.4000244
1093.201185	686.7999878
1093.762445	688.0
1094.323648	689.7999878
1094.884793	686.5999756
1095.445881	687.7999878
1096.006911	691.7999878
1096.567884	685.4000244
1097.1288	693.0
1097.689659	688.2000122
1098.25046	685.5999756
1098.811203	686.5999756
1099.37189	679.5999756
1099.932518	681.2000122
1100.49309	686.0
1101.053604	682.5999756
1101.614061	679.4000244
1102.174461	680.7999878
1102.734803	680.7999878
1103.295088	679.4000244
1103.855316	677.7999878
1104.415486	677.2000122
1104.975599	675.4000244
1105.535655	679.0
1106.095653	676.7999878
1106.655594	681.7999878
1107.215478	676.0
1107.775305	679.5999756
1108.335074	677.2000122
1108.894786	681.7999878
1109.45444	678.0
1110.014038	681.0
1110.573578	681.2000122
1111.133061	677.5999756
1111.692486	677.2000122
1112.251854	675.7999878
1112.811165	680.7999878
1113.370419	678.0
1113.929616	680.2000122
1114.488755	679.4000244
1115.047837	674.2000122
1115.606862	676.5999756
1116.16583	677.2000122
1116.72474	676.7999878
1117.283593	678.7999878
1117.842389	676.0
1118.401128	677.4000244
1118.959809	676.4000244
1119.518433	675.7999878
1120.077	675.7999878
1120.63551	674.4000244
1121.193963	676.4000244
1121.752358	678.5999756
1122.310697	674.2000122
1122.868978	676.5999756
1123.427202	679.2000122
1123.985368	676.7999878
1124.543478	678.4000244
1125.10153	678.0
1125.659526	683.2000122
1126.217464	683.5999756
1126.775345	684.5999756
1127.333168	692.5999756
1127.890935	699.2000122
1128.448644	701.4000244
1129.006297	707.2000122
1129.563892	706.5999756
1130.12143	702.2000122
1130.678911	687.5999756
1131.236335	686.5999756
1131.793701	684.4000244
1132.351011	681.2000122
1132.908263	675.7999878
1133.465458	677.5999756
1134.022597	685.2000122
1134.579678	750.5999756
1135.136702	676.5999756
1135.693669	673.5999756
1136.250578	675.2000122
1136.807431	673.2000122
1137.364227	674.7999878
1137.920965	675.2000122
1138.477647	674.2000122
1139.034271	672.5999756
1139.590839	672.7999878
1140.147349	673.4000244
1140.703802	672.7999878
1141.260198	673.7999878
1141.816537	674.5999756
1142.37282	673.0
1142.929045	676.0
1143.485213	677.7999878
1144.041323	674.7999878
1144.597377	672.4000244
1145.153374	673.4000244
1145.709314	674.7999878
1146.265197	674.7999878
1146.821023	674.2000122
1147.376792	676.4000244
1147.932503	674.4000244
1148.488158	674.0
1149.043756	674.0
1149.599297	672.4000244
1150.154781	673.0
1150.710207	672.7999878
1151.265577	674.2000122
1151.82089	673.2000122
1152.376146	674.7999878
1152.931345	674.7999878
1153.486487	676.4000244
1154.041572	675.2000122
1154.5966	676.0
1155.151571	674.0
1155.706485	674.2000122
1156.261342	674.5999756
1156.816142	675.5999756
1157.370885	675.7999878
1157.925572	673.2000122
1158.480201	679.2000122
1159.034774	676.7999878
1159.589289	678.0
1160.143748	679.5999756
1160.698149	678.4000244
1161.252494	680.2000122
1161.806782	677.7999878
1162.361013	675.5999756
1162.915187	673.7999878
1163.469304	675.4000244
1164.023364	672.7999878
1164.577368	675.4000244
1165.131314	673.2000122
1165.685204	673.4000244
1166.239036	674.2000122
1166.792812	670.0
1167.346531	675.5999756
1167.900193	675.0
1168.453798	671.5999756
1169.007347	672.5999756
1169.560838	675.7999878
1170.114273	675.7999878
1170.66765	672.2000122
1171.220971	671.2000122
1171.774235	673.7999878
1172.327443	675.4000244
1172.880593	673.2000122
1173.433687	672.7999878
1173.986723	672.7999878
1174.539703	673.4000244
1175.092626	673.2000122
1175.645493	674.5999756
1176.198302	674.5999756
1176.751055	673.7999878
1177.303751	673.7999878
1177.85639	674.7999878
1178.408972	674.5999756
1178.961498	673.2000122
1179.513966	672.7999878
1180.066378	673.5999756
1180.618733	670.5999756
1181.171032	675.0
1181.723273	673.0
1182.275458	675.4000244
1182.827586	677.0
1183.379657	677.7999878
1183.931672	672.4000244
1184.48363	674.5999756
1185.035531	676.5999756
1185.587375	674.0
1186.139162	673.4000244
1186.690893	675.2000122
1187.242567	676.2000122
1187.794184	676.7999878
1188.345745	672.7999878
1188.897249	677.4000244
1189.448696	675.0
1190.000086	674.7999878
1190.55142	676.5999756
1191.102697	675.5999756
1191.653918	673.4000244
1192.205081	674.0
1192.756188	673.7999878
1193.307238	694.7999878
1193.858232	673.0
1194.409169	675.5999756
1194.960049	674.7999878
1195.510872	672.5999756
1196.061639	673.7999878
1196.612349	673.0
1197.163003	672.7999878
1197.713599	674.4000244
1198.264139	675.2000122
1198.814623	672.5999756
1199.36505	675.0
1199.91542	672.0
1200.465734	674.0
1201.01599	673.0
1201.566191	671.2000122
1202.116334	672.2000122
1202.666421	673.2000122
1203.216452	676.7999878
1203.766425	675.0
1204.316343	674.7999878
1204.866203	673.0
1205.416007	674.0
1205.965754	674.2000122
1206.515445	674.5999756
1207.065079	674.4000244
1207.614657	674.0
1208.164177	674.5999756
1208.713642	672.5999756
1209.26305	674.2000122
1209.812401	670.7999878
1210.361695	677.0
1210.910933	675.2000122
1211.460115	672.2000122
1212.00924	671.4000244
1212.558308	673.7999878
1213.10732	676.0
1213.656275	674.2000122
1214.205174	674.5999756
1214.754016	675.7999878
1215.302801	676.0
1215.85153	675.2000122
1216.400203	676.0
1216.948819	677.4000244
1217.497378	676.4000244
1218.045881	674.2000122
1218.594327	675.0
1219.142717	677.2000122
1219.691051	674.2000122
1220.239327	673.4000244
1220.787548	675.2000122
1221.335712	676.2000122
1221.883819	674.7999878
1222.43187	678.7999878
1222.979864	672.2000122
1223.527802	678.2000122
1224.075683	677.0
1224.623508	677.2000122
1225.171277	675.2000122
1225.718989	675.0
1226.266644	675.0
1226.814243	679.2000122
1227.361786	675.5999756
1227.909272	676.5999756
1228.456702	677.2000122
1229.004075	675.7999878
1229.551392	676.4000244
1230.098652	673.0
1230.645856	674.4000244
1231.193003	678.4000244
1231.740094	682.7999878
1232.287129	675.4000244
1232.834107	676.0
1233.381029	677.4000244
1233.927894	673.0
1234.474703	678.2000122
1235.021455	676.7999878
1235.568151	678.0
1236.114791	674.0
1236.661374	679.5999756
1237.207901	675.7999878
1237.754372	674.0
1238.300786	677.0
1238.847144	678.2000122
1239.393445	677.0
1239.93969	675.0
1240.485879	676.7999878
1241.032011	679.5999756
1241.578087	677.2000122
1242.124106	677.2000122
1242.67007	677.0
1243.215976	677.5999756
1243.761827	676.0
1244.307621	678.2000122
1244.853359	676.2000122
1245.39904	677.7999878
1245.944665	677.7999878
1246.490234	679.2000122
1247.035746	678.7999878
1247.581203	677.7999878
1248.126602	679.5999756
1248.671946	682.5999756
1249.217233	679.7999878
1249.762464	679.4000244
1250.307638	678.4000244
1250.852757	676.2000122
1251.397819	676.5999756
1251.942824	679.0
1252.487774	680.7999878
1253.032667	677.4000244
1253.577503	679.0
1254.122284	680.2000122
1254.667008	677.2000122
1255.211676	678.2000122
1255.756288	675.2000122
1256.300843	676.7999878
1256.845342	680.7999878
1257.389785	676.2000122
1257.934172	676.7999878
1258.478502	683.2000122
1259.022776	687.2000122
1259.566994	682.0
1260.111156	691.2000122
1260.655261	682.2000122
1261.199311	681.0
1261.743304	682.2000122
1262.28724	685.0
1262.831121	691.0
1263.374945	694.7999878
1263.918713	704.7999878
1264.462425	712.4000244
1265.006081	710.4000244
1265.54968	699.0
1266.093223	688.2000122
1266.636711	682.7999878
1267.180141	681.4000244
1267.723516	678.4000244
1268.266835	680.7999878
1268.810097	681.7999878
1269.353303	683.7999878
1269.896453	679.2000122
1270.439547	680.0
1270.982584	681.4000244
1271.525566	678.0
1272.068491	678.5999756
1272.61136	684.7999878
1273.154173	680.7999878
1273.69693	678.0
1274.239631	681.4000244
1274.782275	680.4000244
1275.324864	681.5999756
1275.867396	681.2000122
1276.409872	683.7999878
1276.952292	679.7999878
1277.494656	680.7999878
1278.036964	682.2000122
1278.579215	686.0
1279.121411	683.2000122
1279.66355	682.4000244
1280.205634	687.7999878
1280.747661	688.7999878
1281.289632	696.5999756
1281.831547	709.5999756
1282.373406	731.2000122
1282.915209	774.4000244
1283.456955	856.4000244
1283.998646	1022.200012
1284.540281	1176.0
1285.081859	1136.800049
1285.623381	909.4000244
1286.164848	775.4000244
1286.706258	730.2000122
1287.247612	704.2000122
1287.788911	698.7999878
1288.330153	690.0
1288.871339	688.5999756
1289.412469	684.0
1289.953543	684.7999878
1290.494561	680.7999878
1291.035523	684.5999756
1291.576428	681.4000244
1292.117278	683.0
1292.658072	676.2000122
1293.19881	681.0
1293.739492	680.7999878
1294.280118	682.4000244
1294.820687	685.0
1295.361201	678.7999878
1295.901659	683.5999756
1296.442061	679.0
1296.982406	680.5999756
1297.522696	682.0
1298.06293	680.0
1298.603108	677.4000244
1299.143229	680.7999878
1299.683295	679.5999756
1300.223305	678.0
1300.763259	679.4000244
1301.303157	678.4000244
1301.842999	676.7999878
1302.382785	675.4000244
1302.922515	678.7999878
1303.462189	677.4000244
1304.001807	677.7999878
1304.541369	676.5999756
1305.080875	678.0
1305.620326	679.5999756
1306.15972	678.4000244
1306.699058	679.2000122
1307.238341	676.5999756
1307.777567	680.0
1308.316738	678.7999878
1308.855853	681.0
1309.394912	677.7999878
1309.933915	677.7999878
1310.472862	678.2000122
1311.011753	674.7999878
1311.550588	674.4000244
1312.089367	676.0
1312.62809	673.7999878
1313.166758	674.5999756
1313.70537	680.5999756
1314.243925	675.0
1314.782425	676.5999756
1315.320869	676.5999756
1315.859257	676.0
1316.397589	674.2000122
1316.935866	675.5999756
1317.474086	674.2000122
1318.012251	674.5999756
1318.55036	674.0
1319.088413	674.4000244
1319.62641	673.7999878
1320.164351	677.2000122
1320.702236	675.5999756
1321.240066	675.5999756
1321.777839	676.4000244
1322.315557	675.4000244
1322.853219	676.5999756
1323.390826	676.0
1323.928376	681.0
1324.465871	673.5999756
1325.003309	673.0
1325.540692	674.0
1326.07802	676.7999878
1326.615291	675.4000244
1327.152506	676.0
1327.689666	675.0
1328.22677	674.2000122
1328.763818	674.2000122
1329.300811	676.2000122
1329.837747	674.7999878
1330.374628	676.4000244
1330.911453	675.5999756
1331.448222	676.5999756
1331.984936	676.0
1332.521594	677.0
1333.058196	677.7999878
1333.594742	673.4000244
1334.131232	679.0
1334.667667	676.4000244
1335.204046	677.4000244
1335.740369	674.2000122
1336.276637	674.2000122
1336.812848	675.4000244
1337.349004	677.7999878
1337.885105	676.4000244
1338.421149	674.7999878
1338.957138	675.5999756
1339.493071	677.0
1340.028949	673.0
1340.56477	677.2000122
1341.100536	675.2000122
1341.636246	676.2000122
1342.171901	675.5999756
1342.7075	675.5999756
1343.243043	675.0
1343.77853	674.5999756
1344.313962	674.0
1344.849338	677.2000122
1345.384659	674.5999756
1345.919923	678.5999756
1346.455133	675.7999878
1346.990286	673.5999756
1347.525384	678.2000122
1348.060426	674.4000244
1348.595412	672.4000244
1349.130343	673.4000244
1349.665218	677.0
1350.200037	677.0
1350.734801	675.7999878
1351.269509	676.2000122
1351.804162	680.5999756
1352.338758	672.7999878
1352.8733	675.0
1353.407785	677.4000244
1353.942215	677.2000122
1354.476589	675.4000244
1355.010908	678.0
1355.545171	678.7999878
1356.079379	675.2000122
1356.61353	680.0
1357.147627	674.0
1357.681667	678.0
1358.215652	677.5999756
1358.749582	676.7999878
1359.283456	676.5999756
1359.817274	676.5999756
1360.351037	680.5999756
1360.884744	676.7999878
1361.418395	677.2000122
1361.951991	678.0
1362.485531	681.0
1363.019016	679.0
1363.552445	674.0
1364.085819	678.7999878
1364.619137	677.5999756
1365.1524	677.5999756
1365.685607	678.0
1366.218758	680.5999756
1366.751854	680.2000122
1367.284894	681.4000244
1367.817879	681.4000244
1368.350808	679.0
1368.883682	678.0
1369.4165	684.0
1369.949263	695.4000244
1370.48197	698.0
1371.014622	685.2000122
1371.547218	680.0
1372.079758	678.2000122
1372.612244	678.2000122
1373.144673	682.5999756
1373.677047	679.0
1374.209366	680.7999878
1374.741629	680.2000122
1375.273836	682.4000244
1375.805989	682.5999756
1376.338085	681.7999878
1376.870126	683.0
1377.402112	676.5999756
1377.934042	683.5999756
1378.465917	681.0
1378.997736	678.4000244
1379.5295	681.7999878
1380.061208	687.2000122
1380.592861	682.4000244
1381.124459	690.5999756
1381.656	688.0
1382.187487	687.2000122
1382.718918	692.4000244
1383.250294	691.7999878
1383.781614	692.0
1384.312879	695.5999756
1384.844088	699.5999756
1385.375242	707.0
1385.90634	728.0
1386.437383	752.2000122
1386.968371	837.4000244
1387.499303	1040.0
1388.03018	1516.400024
1388.561001	1695.400024
1389.091767	1164.400024
1389.622478	842.2000122
1390.153133	748.2000122
1390.683733	719.2000122
1391.214277	707.2000122
1391.744766	699.7999878
1392.2752	692.2000122
1392.805578	689.7999878
1393.335901	686.7999878
1393.866168	688.0
1394.396381	687.4000244
1394.926537	686.2000122
1395.456639	684.0
1395.986685	683.0
1396.516675	682.2000122
1397.046611	681.5999756
1397.576491	683.0
1398.106315	679.5999756
1398.636084	682.5999756
1399.165798	684.4000244
1399.695457	677.4000244
1400.22506	680.2000122
1400.754608	681.4000244
1401.284101	680.5999756
1401.813538	679.0
1402.34292	678.4000244
1402.872247	677.7999878
1403.401518	680.0
1403.930734	678.4000244
1404.459895	677.7999878
1404.989	679.4000244
1405.51805	678.2000122
1406.047045	681.0
1406.575984	684.7999878
1407.104869	690.2000122
1407.633697	687.2000122
1408.162471	695.5999756
1408.691189	704.5999756
1409.219852	719.0
1409.74846	733.0
1410.277013	725.0
1410.80551	708.5999756
1411.333952	693.5999756
1411.862339	687.7999878
1412.39067	683.2000122
1412.918946	682.0
1413.447167	679.2000122
1413.975333	676.7999878
1414.503444	678.4000244
1415.031499	676.4000244
1415.559499	691.4000244
1416.087444	676.0
1416.615333	675.0
1417.143167	677.5999756
1417.670947	677.2000122
1418.19867	680.2000122
1418.726339	674.2000122
1419.253952	673.2000122
1419.781511	674.7999878
1420.309014	676.7999878
1420.836461	674.2000122
1421.363854	676.0
1421.891191	677.0
1422.418474	675.2000122
1422.945701	676.0
1423.472872	674.2000122
1423.999989	677.0
1424.52705	675.2000122
1425.054057	675.2000122
1425.581008	676.0
1426.107904	677.2000122
1426.634745	676.0
1427.16153	676.2000122
1427.688261	674.0
1428.214936	674.2000122
1428.741556	677.0
1429.268121	674.2000122
1429.794631	673.2000122
1430.321085	678.4000244
1430.847485	674.0
1431.373829	674.0
1431.900118	675.7999878
1432.426353	671.4000244
1432.952532	676.7999878
1433.478655	674.5999756
1434.004724	673.2000122
1434.530738	677.4000244
1435.056696	673.4000244
1435.5826	672.2000122
1436.108448	674.2000122
1436.634241	675.5999756
1437.159979	672.5999756
1437.685662	675.2000122
1438.21129	670.5999756
1438.736863	673.7999878
1439.262381	673.0
1439.787843	675.0
1440.313251	675.4000244
1440.838603	672.2000122
1441.3639	671.2000122
1441.889143	673.2000122
1442.41433	674.4000244
1442.939462	673.5999756
1443.464539	673.2000122
1443.989561	673.2000122
1444.514528	674.7999878
1445.03944	675.2000122
1445.564297	675.5999756
1446.089099	671.4000244
1446.613846	672.5999756
1447.138537	671.5999756
1447.663174	676.4000244
1448.187756	674.2000122
1448.712282	673.5999756
1449.236754	675.0
1449.761171	673.0
1450.285532	673.5999756
1450.809839	675.2000122
1451.33409	671.0
1451.858287	676.7999878
1452.382428	673.5999756
1452.906515	674.0
1453.430546	670.7999878
1453.954523	671.0
1454.478444	670.0
1455.002311	672.0
1455.526123	674.7999878
1456.049879	673.5999756
1458.144356	687.4000244
1458.667837	673.2000122
1459.191264	674.4000244
1459.714636	672.5999756
1460.237952	673.4000244
1460.761214	671.7999878
1461.284421	672.2000122
1461.807573	670.0
1462.33067	672.0
1462.853712	697.2000122
1463.376699	703.2000122
1463.899632	674.2000122
1464.422509	673.2000122
1464.945331	672.2000122
1465.468099	670.7999878
1465.990811	671.5999756
1466.513469	669.4000244
1467.036071	672.2000122
1467.558619	669.4000244
1468.081112	671.7999878
1468.60355	670.5999756
1469.125933	671.4000244
1469.648261	672.4000244
1470.170534	674.7999878
1470.692752	672.5999756
1471.214916	672.2000122
1471.737024	695.4000244
1473.303021	674.2000122
1473.82491	673.4000244
1474.346744	670.2000122
1474.868523	669.4000244
1475.390248	670.5999756
1475.911917	670.0
1476.433532	671.0
1476.955092	669.4000244
1477.476597	670.5999756
1477.998047	669.7999878
1478.519442	673.5999756
1479.040783	670.2000122
1479.562068	672.2000122
1480.083299	670.0
1480.604475	669.4000244
1481.125596	672.2000122
1481.646663	671.7999878
1482.167674	674.2000122
1482.688631	672.5999756
1483.209533	671.7999878
1483.73038	668.7999878
1484.251172	669.2000122
1484.771909	672.2000122
1485.292592	673.5999756
1485.81322	670.5999756
1486.333793	673.0
1486.854311	668.4000244
1487.374775	668.5999756
1487.895183	672.2000122
1488.415537	669.7999878
1488.935836	670.0
1489.456081	669.2000122
1489.97627	669.7999878
1490.496405	669.5999756
1491.016485	668.7999878
1491.536511	671.4000244
1492.056481	670.5999756
1492.576397	672.2000122
1493.096258	670.2000122
1493.616064	670.5999756
1494.135816	669.5999756
1494.655513	670.2000122
1495.175155	670.2000122
1495.694742	669.2000122
1496.214274	667.7999878
1496.733752	668.0
1497.253175	668.0
1497.772544	668.5999756
1498.291858	669.5999756
1498.811116	672.2000122
1499.330321	669.5999756
1499.84947	674.4000244
1500.368565	668.5999756
1500.887605	671.7999878
1501.406591	667.5999756
1501.925521	670.7999878
1502.444397	669.4000244
1502.963219	668.4000244
1503.481985	670.5999756
1504.000697	671.2000122
1504.519355	673.7999878
1505.037957	670.7999878
1505.556505	672.4000244
1506.074999	669.2000122
1506.593437	671.2000122
1507.111821	668.4000244
1507.63015	667.7999878
1508.148425	670.7999878
1508.666645	669.4000244
1509.18481	669.2000122
1509.702921	668.0
1510.220977	669.2000122
1510.738979	680.2000122
1511.256925	669.0
1511.774817	671.4000244
1512.292655	672.0
1512.810438	671.5999756
1513.328166	668.2000122
1513.84584	672.2000122
1514.363459	669.0
1514.881023	669.0
1515.398533	667.7999878
1515.915988	666.5999756
1516.433389	672.0
1516.950734	668.4000244
1517.468026	669.7999878
1517.985263	668.7999878
1518.502445	668.7999878
1519.019572	667.4000244
1519.536645	670.2000122
1520.053664	667.7999878
1520.570628	670.2000122
1521.087537	670.7999878
1521.604392	670.0
1522.121192	671.5999756
1522.637937	669.7999878
1523.154628	672.0
1523.671265	671.5999756
1524.187847	670.0
1524.704374	668.4000244
1525.220847	671.4000244
1525.737265	679.0
1526.253629	691.0
1526.769938	677.4000244
1527.286192	672.2000122
1527.802392	672.2000122
1528.318538	668.4000244
1528.834629	671.0
1529.350666	671.0
1529.866648	671.5999756
1530.382575	670.5999756
1530.898448	668.2000122
1531.414266	670.0
1531.93003	671.4000244
1532.44574	668.0
1532.961395	670.4000244
1533.476995	667.4000244
1533.992541	672.2000122
1534.508033	668.7999878
1535.02347	672.2000122
1535.538852	668.7999878
1536.05418	672.2000122
1536.569454	670.4000244
1537.084673	670.4000244
1537.599837	671.7999878
1538.114947	668.7999878
1538.630003	669.2000122
1539.145004	670.7999878
1539.659951	671.4000244
1540.174843	670.2000122
1540.689681	668.5999756
1541.204465	671.2000122
1541.719194	670.5999756
1542.233868	667.7999878
1542.748488	668.5999756
1543.263054	671.2000122
1543.777565	670.0
1544.292022	672.2000122
1544.806424	668.5999756
1545.320772	670.4000244
1545.835066	669.0
1546.349305	670.0
1546.863489	669.2000122
1547.37762	671.2000122
1547.891696	670.4000244
1548.405717	669.5999756
1548.919684	670.7999878
1549.433597	671.2000122
1549.947455	667.0
1550.461259	667.4000244
1550.975009	669.0
1551.488704	669.7999878
1552.002345	670.0
1552.515931	673.2000122
1553.029463	669.2000122
1553.542941	672.2000122
1554.056364	669.5999756
1554.569733	670.5999756
1555.083048	669.4000244
1555.596308	670.4000244
1556.109514	669.7999878
1556.622665	668.5999756
1557.135762	668.2000122
1557.648805	671.2000122
1558.161794	671.2000122
1558.674728	672.2000122
1559.187608	674.5999756
1559.700433	669.7999878
1560.213205	671.5999756
1560.725921	670.4000244
1561.238584	671.0
1561.751192	668.0
1562.263746	671.2000122
1562.776246	672.2000122
1563.288691	674.4000244
1563.801082	673.7999878
1564.313419	670.7999878
1564.825701	671.5999756
1565.337929	668.5999756
1565.850103	666.7999878
1566.362223	672.5999756
1566.874288	673.5999756
1567.386299	671.4000244
1567.898256	673.0
1568.410158	674.0
1568.922007	673.2000122
1569.4338	672.4000244
1569.94554	670.2000122
1570.457226	670.7999878
1570.968857	670.5999756
1571.480434	670.5999756
1571.991956	667.4000244
1572.503425	670.0
1573.014839	670.4000244
1573.526199	670.2000122
1574.037505	669.5999756
1574.548756	669.2000122
1575.059953	669.4000244
1575.571096	671.2000122
1576.082185	668.7999878
1576.59322	670.5999756
1577.1042	670.2000122
1577.615126	670.4000244
1578.125998	670.5999756
1578.636816	670.0
1579.14758	670.7999878
1579.658289	669.7999878
1580.168944	671.0
1580.679545	671.4000244
1581.190092	668.5999756
1581.700585	668.0
1582.211023	670.7999878
1582.721407	669.7999878
1583.231737	671.7999878
1583.742013	670.0
1584.252235	670.2000122
1584.762403	668.5999756
1585.272516	667.4000244
1585.782575	672.0
1586.292581	670.7999878
1586.802532	668.4000244
1587.312428	669.7999878
1587.822271	671.7999878
1588.33206	666.0
1588.841794	667.5999756
1589.351474	671.2000122
1589.8611	669.0
1590.370672	668.2000122
1590.88019	669.7999878
1591.389654	669.7999878
1591.899064	670.4000244
1592.408419	667.2000122
