1042.452273	669.0
1043.018714	669.0
1043.585098	666.5999756
1044.151424	668.7999878
1044.717692	666.4000244
1045.283903	666.5999756
1045.850056	665.2000122
1046.416151	664.7999878
1046.982188	665.2000122
1047.548167	665.2000122
1048.114089	663.0
1048.679953	663.7999878
1049.24576	662.0
1049.811509	664.4000244
1050.3772	663.4000244
1050.942833	662.7999878
1051.508408	662.7999878
1052.073926	663.4000244
1052.639387	660.4000244
1053.204789	662.5999756
1053.770134	660.5999756
1054.335421	663.2000122
1054.900651	660.5999756
1055.465823	662.0
1056.030937	660.5999756
1056.595993	661.0
1057.160992	660.7999878
1057.725934	662.5999756
1058.290817	660.0
1058.855643	661.4000244
1059.420411	659.7999878
1059.985122	660.0
1060.549775	660.0
1061.114371	659.7999878
1061.678908	660.4000244
1062.243389	659.4000244
1062.807811	658.4000244
1063.372176	659.0
1063.936483	661.7999878
1064.500733	661.4000244
1065.064925	660.0
1065.62906	661.5999756
1066.193137	661.0
1066.757156	658.5999756
1067.321118	661.0
1067.885022	661.2000122
1068.448869	659.0
1069.012658	660.0
1069.57639	659.5999756
1070.140063	667.5999756
1070.70368	660.5999756
1071.267239	658.7999878
1071.83074	659.2000122
1072.394184	661.0
1072.95757	661.0
1073.520899	658.7999878
1074.08417	659.0
1074.647383	660.7999878
1075.21054	660.0
1075.773638	659.5999756
1076.336679	661.4000244
1076.899663	663.2000122
1077.462589	661.0
1078.025457	661.7999878
1078.588268	661.5999756
1079.151022	659.4000244
1079.713718	659.2000122
1080.276356	661.2000122
1080.838937	658.7999878
1081.401461	661.7999878
1081.963927	660.2000122
1082.526336	664.7999878
1083.088687	661.2000122
1083.650981	663.7999878
1084.213217	662.4000244
1084.775396	662.7999878
1085.337517	661.0
1085.899581	662.2000122
1086.461587	661.5999756
1087.023536	664.5999756
1087.585428	663.4000244
1088.147262	662.4000244
1088.709039	665.7999878
1089.270758	665.5999756
1089.83242	667.2000122
1090.394024	665.2000122
1090.955571	667.7999878
1091.517061	666.0
1092.078493	665.5999756
1092.639868	668.2000122
1093.201185	665.7999878
1093.762445	667.4000244
1094.323648	667.5999756
1094.884793	668.4000244
1095.445881	667.0
1096.006911	667.2000122
1096.567884	667.4000244
1097.1288	674.7999878
1097.689659	668.0
1098.25046	664.5999756
1098.811203	664.0
1099.37189	665.4000244
1099.932518	664.5999756
1100.49309	665.7999878
1101.053604	661.7999878
1101.614061	664.2000122
1102.174461	663.0
1102.734803	661.0
1103.295088	662.7999878
1103.855316	663.4000244
1104.415486	661.0
1104.975599	662.2000122
1105.535655	660.0
1106.095653	660.2000122
1106.655594	659.5999756
1107.215478	661.4000244
1107.775305	663.2000122
1108.335074	658.5999756
1108.894786	660.2000122
1109.45444	660.2000122
1110.014038	659.5999756
1110.573578	660.5999756
1111.133061	659.5999756
1111.692486	660.7999878
1112.251854	662.2000122
1112.811165	658.2000122
1113.370419	658.0
1113.929616	658.7999878
1114.488755	660.5999756
1115.047837	658.5999756
1115.606862	656.5999756
1116.16583	661.0
1116.72474	659.4000244
1117.283593	660.4000244
1117.842389	659.4000244
1118.401128	657.5999756
1118.959809	657.2000122
1119.518433	659.4000244
1120.077	658.7999878
1120.63551	656.4000244
1121.193963	658.5999756
1121.752358	659.0
1122.310697	659.5999756
1122.868978	661.4000244
1123.427202	659.4000244
1123.985368	660.5999756
1124.543478	659.4000244
1125.10153	661.5999756
1125.659526	659.7999878
1126.217464	660.0
1126.775345	661.5999756
1127.333168	665.5999756
1127.890935	662.5999756
1128.448644	666.4000244
1129.006297	672.5999756
1129.563892	673.7999878
1130.12143	672.0
1130.678911	672.4000244
1131.236335	666.4000244
1131.793701	662.7999878
1132.351011	664.7999878
1132.908263	660.0
1133.465458	661.2000122
1134.022597	658.5999756
1134.579678	657.4000244
1135.136702	657.5999756
1135.693669	658.5999756
1136.250578	658.5999756
1136.807431	657.2000122
1137.364227	660.4000244
1137.920965	659.4000244
1138.477647	657.2000122
1139.034271	660.0
1139.590839	658.7999878
1140.147349	658.2000122
1140.703802	657.5999756
1141.260198	658.2000122
1141.816537	658.5999756
1142.37282	658.0
1142.929045	659.5999756
1143.485213	658.5999756
1144.041323	659.4000244
1144.597377	659.4000244
1145.153374	658.7999878
1145.709314	656.5999756
1146.265197	658.7999878
1146.821023	655.4000244
1147.376792	655.7999878
1147.932503	659.7999878
1148.488158	659.0
1149.043756	656.7999878
1149.599297	658.2000122
1150.154781	656.5999756
1150.710207	657.2000122
1151.265577	656.7999878
1151.82089	659.0
1152.376146	657.4000244
1152.931345	659.0
1153.486487	658.4000244
1154.041572	658.0
1154.5966	659.7999878
1155.151571	659.4000244
1155.706485	657.7999878
1156.261342	659.2000122
1156.816142	657.2000122
1157.370885	657.0
1157.925572	655.7999878
1158.480201	660.7999878
1159.034774	660.5999756
1159.589289	660.2000122
1160.143748	659.5999756
1160.698149	661.5999756
1161.252494	656.7999878
1161.806782	661.0
1162.361013	659.0
1162.915187	659.5999756
1163.469304	657.7999878
1164.023364	658.4000244
1164.577368	656.7999878
1165.131314	658.4000244
1165.685204	658.7999878
1166.239036	656.7999878
1166.792812	657.7999878
1167.346531	659.5999756
1167.900193	658.2000122
1168.453798	657.4000244
1169.007347	657.4000244
1169.560838	659.5999756
1170.114273	660.5999756
1170.66765	657.5999756
1171.220971	659.7999878
1171.774235	654.2000122
1172.327443	658.5999756
1172.880593	656.4000244
1173.433687	658.0
1173.986723	659.4000244
1174.539703	661.4000244
1175.092626	657.0
1175.645493	657.4000244
1176.198302	660.4000244
1176.751055	658.4000244
1177.303751	658.0
1177.85639	660.0
1178.408972	656.7999878
1178.961498	657.0
1179.513966	657.5999756
1180.066378	658.0
1180.618733	658.4000244
1181.171032	658.4000244
1181.723273	657.4000244
1182.275458	660.7999878
1182.827586	658.7999878
1183.379657	658.4000244
1183.931672	659.2000122
1184.48363	657.0
1185.035531	658.2000122
1185.587375	658.0
1186.139162	657.4000244
1186.690893	657.7999878
1187.242567	657.4000244
1187.794184	657.7999878
1188.345745	659.4000244
1188.897249	658.2000122
1189.448696	658.4000244
1190.000086	658.7999878
1190.55142	657.5999756
1191.102697	658.7999878
1191.653918	658.4000244
1192.205081	658.0
1192.756188	656.0
1193.307238	677.5999756
1193.858232	657.5999756
1194.409169	657.5999756
1194.960049	658.4000244
1195.510872	659.5999756
1196.061639	658.2000122
1196.612349	657.5999756
1197.163003	656.7999878
1197.713599	657.5999756
1198.264139	660.0
1198.814623	659.0
1199.36505	657.2000122
1199.91542	657.0
1200.465734	657.7999878
1201.01599	657.7999878
1201.566191	659.5999756
1202.116334	657.2000122
1202.666421	658.5999756
1203.216452	660.0
1203.766425	659.2000122
1204.316343	657.5999756
1204.866203	657.4000244
1205.416007	658.0
1205.965754	656.5999756
1206.515445	658.7999878
1207.065079	658.4000244
1207.614657	656.2000122
1208.164177	658.2000122
1208.713642	656.2000122
1209.26305	660.4000244
1209.812401	658.0
1210.361695	658.7999878
1210.910933	657.7999878
1211.460115	657.5999756
1212.00924	658.4000244
1212.558308	657.2000122
1213.10732	660.4000244
1213.656275	657.5999756
1214.205174	658.5999756
1214.754016	659.2000122
1215.302801	658.0
1215.85153	655.7999878
1216.400203	658.7999878
1216.948819	658.4000244
1217.497378	659.0
1218.045881	656.0
1218.594327	657.0
1219.142717	659.7999878
1219.691051	660.2000122
1220.239327	659.2000122
1220.787548	658.0
1221.335712	657.2000122
1221.883819	659.5999756
1222.43187	658.5999756
1222.979864	658.0
1223.527802	658.2000122
1224.075683	659.0
1224.623508	659.4000244
1225.171277	656.7999878
1225.718989	658.2000122
1226.266644	657.4000244
1226.814243	658.4000244
1227.361786	658.5999756
1227.909272	657.0
1228.456702	657.0
1229.004075	657.7999878
1229.551392	657.5999756
1230.098652	659.7999878
1230.645856	657.4000244
1231.193003	658.2000122
1231.740094	659.0
1232.287129	657.7999878
1232.834107	655.0
1233.381029	656.7999878
1233.927894	658.5999756
1234.474703	659.5999756
1235.021455	658.7999878
1235.568151	655.5999756
1236.114791	657.7999878
1236.661374	660.7999878
1237.207901	658.2000122
1237.754372	656.2000122
1238.300786	657.5999756
1238.847144	656.5999756
1239.393445	659.0
1239.93969	659.2000122
1240.485879	655.5999756
1241.032011	659.7999878
1241.578087	658.5999756
1242.124106	657.2000122
1242.67007	657.4000244
1243.215976	659.7999878
1243.761827	659.0
1244.307621	658.4000244
1244.853359	658.4000244
1245.39904	658.0
1245.944665	657.4000244
1246.490234	669.0
1248.126602	657.7999878
1248.671946	657.7999878
1249.217233	658.2000122
1249.762464	658.4000244
1250.307638	656.5999756
1250.852757	656.5999756
1251.397819	658.2000122
1251.942824	656.7999878
1252.487774	657.4000244
1253.032667	658.7999878
1253.577503	655.4000244
1254.122284	661.5999756
1254.667008	659.0
1255.211676	656.4000244
1255.756288	659.0
1256.300843	659.0
1256.845342	658.7999878
1257.389785	658.7999878
1257.934172	657.2000122
1258.478502	659.5999756
1259.022776	660.2000122
1259.566994	658.4000244
1260.111156	671.0
1260.655261	658.4000244
1261.199311	657.4000244
1261.743304	661.0
1262.28724	660.4000244
1262.831121	658.4000244
1263.374945	658.5999756
1263.918713	660.0
1264.462425	658.2000122
1265.006081	659.5999756
1265.54968	660.4000244
1266.093223	657.4000244
1266.636711	659.4000244
1267.180141	659.2000122
1267.723516	657.4000244
1268.266835	656.5999756
1268.810097	658.2000122
1269.353303	658.2000122
1269.896453	657.0
1270.439547	657.2000122
1270.982584	660.0
1271.525566	658.4000244
1272.068491	657.4000244
1272.61136	658.7999878
1273.154173	658.2000122
1273.69693	657.0
1274.239631	656.7999878
1274.782275	658.0
1275.324864	659.7999878
1275.867396	657.4000244
1276.409872	660.0
1276.952292	657.2000122
1277.494656	660.4000244
1278.036964	659.7999878
1278.579215	657.4000244
1279.121411	658.5999756
1279.66355	659.7999878
1280.205634	657.2000122
1280.747661	658.7999878
1281.289632	658.2000122
1281.831547	660.2000122
1282.373406	662.4000244
1282.915209	661.5999756
1283.456955	666.5999756
1283.998646	672.5999756
1284.540281	692.0
1285.081859	694.2000122
1285.623381	680.0
1286.164848	665.7999878
1286.706258	661.4000244
1287.247612	662.2000122
1287.788911	659.0
1288.330153	659.0
1288.871339	657.4000244
1289.412469	657.4000244
1289.953543	658.7999878
1290.494561	659.4000244
1291.035523	658.2000122
1291.576428	656.7999878
1292.117278	657.2000122
1292.658072	658.5999756
1293.19881	658.2000122
1293.739492	656.7999878
1294.280118	656.5999756
1294.820687	656.7999878
1295.361201	658.7999878
1295.901659	658.4000244
1296.442061	658.5999756
1296.982406	657.0
1297.522696	658.7999878
1298.06293	658.0
1298.603108	657.7999878
1299.143229	658.0
1299.683295	657.2000122
1300.223305	660.7999878
1300.763259	659.0
1301.303157	657.5999756
1301.842999	657.5999756
1302.382785	658.7999878
1302.922515	657.4000244
1303.462189	658.0
1304.001807	656.5999756
1304.541369	656.5999756
1305.080875	659.4000244
1305.620326	656.7999878
1306.15972	661.0
1306.699058	656.7999878
1307.238341	657.4000244
1307.777567	660.0
1308.316738	657.4000244
1308.855853	658.2000122
1309.394912	659.5999756
1309.933915	658.7999878
1310.472862	656.5999756
1311.011753	657.5999756
1311.550588	656.5999756
1312.089367	658.4000244
1312.62809	656.5999756
1313.166758	658.4000244
1313.70537	659.7999878
1314.243925	658.0
1314.782425	658.7999878
1315.320869	657.4000244
1315.859257	659.2000122
1316.397589	656.5999756
1316.935866	660.5999756
1317.474086	659.0
1318.012251	657.2000122
1318.55036	659.4000244
1319.088413	657.5999756
1319.62641	657.5999756
1320.164351	655.7999878
1320.702236	659.2000122
1321.240066	657.7999878
1321.777839	656.7999878
1322.315557	658.4000244
1322.853219	658.2000122
1323.390826	657.5999756
1323.928376	663.4000244
1324.465871	658.0
1325.003309	656.4000244
1325.540692	659.2000122
1326.07802	659.2000122
1326.615291	657.5999756
1327.152506	658.2000122
1327.689666	659.2000122
1328.22677	657.0
1328.763818	656.0
1329.300811	658.2000122
1329.837747	658.5999756
1330.374628	658.5999756
1330.911453	658.4000244
1331.448222	660.2000122
1331.984936	658.2000122
1332.521594	657.2000122
1333.058196	657.7999878
1333.594742	656.7999878
1334.131232	657.2000122
1334.667667	657.0
1335.204046	660.7999878
1335.740369	659.0
1336.276637	659.0
1336.812848	658.0
1337.349004	659.7999878
1337.885105	657.4000244
1338.421149	657.2000122
1338.957138	659.0
1339.493071	656.7999878
1340.028949	658.7999878
1340.56477	659.2000122
1341.100536	656.7999878
1341.636246	658.0
1342.171901	659.5999756
1342.7075	657.7999878
1343.243043	655.4000244
1343.77853	658.0
1344.313962	657.2000122
1344.849338	656.4000244
1345.384659	659.7999878
1345.919923	656.5999756
1346.455133	660.0
1346.990286	657.7999878
1347.525384	659.0
1348.060426	656.0
1348.595412	655.4000244
1349.130343	659.0
1349.665218	659.0
1350.200037	658.2000122
1350.734801	658.2000122
1351.269509	657.7999878
1351.804162	659.2000122
1352.338758	657.7999878
1352.8733	657.7999878
1353.407785	658.4000244
1353.942215	656.7999878
1354.476589	656.0
1355.010908	657.2000122
1355.545171	657.7999878
1356.079379	659.0
1356.61353	657.0
1357.147627	659.7999878
1357.681667	658.7999878
1358.215652	658.4000244
1358.749582	657.2000122
1359.283456	659.5999756
1359.817274	659.0
1360.351037	657.7999878
1360.884744	659.4000244
1361.418395	657.0
1361.951991	657.5999756
1362.485531	657.4000244
1363.019016	659.5999756
1363.552445	659.5999756
1364.085819	655.7999878
1364.619137	658.0
1365.1524	659.5999756
1365.685607	658.7999878
1366.218758	657.5999756
1366.751854	654.7999878
1367.284894	657.7999878
1367.817879	655.2000122
1368.350808	660.0
1368.883682	659.7999878
1369.4165	657.5999756
1369.949263	659.4000244
1370.48197	661.0
1371.014622	660.0
1371.547218	656.5999756
1372.079758	657.2000122
1372.612244	658.0
1373.144673	659.5999756
1373.677047	657.2000122
1374.209366	656.5999756
1374.741629	656.7999878
1375.273836	660.5999756
1375.805989	656.5999756
1376.338085	659.7999878
1376.870126	658.4000244
1377.402112	658.2000122
1377.934042	656.0
1378.465917	659.5999756
1378.997736	657.7999878
1379.5295	658.7999878
1380.061208	659.0
1380.592861	659.0
1381.124459	658.5999756
1381.656	659.2000122
1382.187487	658.5999756
1382.718918	659.7999878
1383.250294	657.7999878
1383.781614	656.2000122
1384.312879	657.2000122
1384.844088	658.7999878
1385.375242	659.4000244
1385.90634	660.4000244
1386.437383	662.4000244
1386.968371	667.5999756
1387.499303	677.5999756
1388.03018	704.7999878
1388.561001	736.5999756
1389.091767	699.0
1389.622478	673.0
1390.153133	663.7999878
1390.683733	661.7999878
1391.214277	662.0
1391.744766	659.0
1392.2752	657.2000122
1392.805578	656.5999756
1393.335901	657.7999878
1393.866168	658.2000122
1394.396381	657.2000122
1394.926537	657.7999878
1395.456639	657.5999756
1395.986685	658.4000244
1396.516675	659.5999756
1397.046611	656.7999878
1397.576491	655.4000244
1398.106315	659.7999878
1398.636084	657.7999878
1399.165798	658.2000122
1399.695457	656.2000122
1400.22506	657.7999878
1400.754608	656.0
1401.284101	658.5999756
1401.813538	661.0
1402.34292	658.7999878
1402.872247	658.4000244
1403.401518	658.5999756
1403.930734	658.4000244
1404.459895	657.7999878
1404.989	659.0
1405.51805	660.4000244
1406.047045	657.5999756
1406.575984	658.5999756
1407.104869	657.4000244
1407.633697	659.4000244
1408.162471	660.4000244
1408.691189	660.2000122
1409.219852	659.7999878
1409.74846	663.2000122
1410.277013	662.5999756
1410.80551	659.7999878
1411.333952	656.5999756
1411.862339	658.5999756
1412.39067	658.5999756
1412.918946	659.7999878
1413.447167	656.7999878
1413.975333	657.7999878
1414.503444	660.5999756
1415.031499	658.7999878
1415.559499	670.5999756
1416.087444	658.2000122
1416.615333	658.4000244
1417.143167	658.2000122
1417.670947	656.7999878
1418.19867	657.2000122
1418.726339	658.0
1419.253952	658.7999878
1419.781511	657.5999756
1420.309014	656.0
1420.836461	661.5999756
1421.363854	655.7999878
1421.891191	660.0
1422.418474	658.0
1422.945701	658.7999878
1423.472872	656.4000244
1423.999989	657.0
1424.52705	660.0
1425.054057	657.7999878
1425.581008	657.0
1426.107904	658.0
1426.634745	659.0
1427.16153	660.0
1427.688261	657.7999878
1428.214936	658.4000244
1428.741556	657.0
1429.268121	658.4000244
1429.794631	657.7999878
1430.321085	658.4000244
1430.847485	659.7999878
1431.373829	658.5999756
1431.900118	657.7999878
1432.426353	656.5999756
1432.952532	657.0
1433.478655	658.7999878
1434.004724	658.4000244
1434.530738	658.7999878
1435.056696	660.0
1435.5826	658.2000122
1436.108448	657.2000122
1436.634241	659.4000244
1437.159979	660.2000122
1437.685662	658.7999878
1438.21129	656.5999756
1438.736863	659.4000244
1439.262381	656.4000244
1439.787843	656.4000244
1440.313251	658.7999878
1440.838603	656.4000244
1441.3639	655.7999878
1441.889143	657.2000122
1442.41433	657.0
1442.939462	658.7999878
1443.464539	657.5999756
1443.989561	656.5999756
1444.514528	656.7999878
1445.03944	657.5999756
1445.564297	658.0
1446.089099	656.7999878
1446.613846	657.5999756
1447.138537	659.5999756
1447.663174	657.0
1448.187756	659.0
1448.712282	658.0
1449.236754	658.7999878
1449.761171	659.7999878
1450.285532	659.5999756
1450.809839	656.0
1451.33409	657.5999756
1451.858287	657.2000122
1452.382428	656.7999878
1452.906515	655.0
1453.430546	657.0
1453.954523	657.7999878
1454.478444	656.4000244
1455.002311	656.2000122
1455.526123	656.4000244
1456.049879	658.4000244
1456.573581	657.5999756
1457.097227	657.5999756
1457.620819	655.7999878
1458.144356	659.5999756
1458.667837	659.5999756
1459.191264	657.4000244
1459.714636	656.7999878
1460.237952	658.0
1460.761214	656.4000244
1461.284421	656.7999878
1461.807573	658.5999756
1462.33067	658.5999756
1462.853712	658.5999756
1463.376699	656.4000244
1463.899632	659.5999756
1464.422509	658.4000244
1464.945331	657.2000122
1465.468099	657.0
1465.990811	656.2000122
1466.513469	657.0
1467.036071	658.2000122
1467.558619	657.5999756
1468.081112	659.0
1468.60355	657.2000122
1469.125933	656.0
1469.648261	657.7999878
1470.170534	659.2000122
1470.692752	658.5999756
1471.214916	659.0
1471.737024	657.5999756
1472.259078	659.4000244
1472.781077	654.4000244
1473.303021	658.7999878
1473.82491	659.2000122
1474.346744	656.7999878
1474.868523	656.5999756
1475.390248	657.7999878
1475.911917	657.4000244
1476.433532	656.7999878
1476.955092	656.2000122
1477.476597	656.5999756
1477.998047	658.7999878
1478.519442	656.5999756
1479.040783	656.2000122
1479.562068	657.4000244
1480.083299	655.2000122
1480.604475	657.4000244
1481.125596	657.5999756
1481.646663	656.7999878
1482.167674	656.4000244
1482.688631	656.7999878
1483.209533	657.0
1483.73038	656.7999878
1484.251172	658.0
1484.771909	657.4000244
1485.292592	656.4000244
1485.81322	656.5999756
1486.333793	658.2000122
1486.854311	656.4000244
1487.374775	657.7999878
1487.895183	656.7999878
1488.415537	655.4000244
1488.935836	659.4000244
1489.456081	656.7999878
1489.97627	656.5999756
1490.496405	658.2000122
1491.016485	656.5999756
1491.536511	657.0
1492.056481	658.4000244
1492.576397	658.7999878
1493.096258	657.2000122
1493.616064	657.4000244
1494.135816	660.5999756
1494.655513	657.4000244
1495.175155	659.4000244
1495.694742	657.4000244
1496.214274	658.0
1496.733752	658.2000122
1497.253175	656.0
1497.772544	656.7999878
1498.291858	658.2000122
1498.811116	658.7999878
1499.330321	656.2000122
1499.84947	666.5999756
1500.368565	658.7999878
1500.887605	658.2000122
1501.406591	658.2000122
1501.925521	656.4000244
1502.444397	657.0
1502.963219	659.5999756
1503.481985	656.5999756
1504.000697	657.2000122
1504.519355	658.5999756
1505.037957	658.4000244
1505.556505	659.4000244
1506.074999	657.7999878
1506.593437	656.5999756
1507.111821	657.5999756
1507.63015	657.2000122
1508.148425	656.5999756
1508.666645	654.7999878
1509.18481	657.5999756
1509.702921	657.7999878
1510.220977	657.7999878
1510.738979	665.0
1511.256925	659.4000244
1511.774817	657.5999756
1512.292655	655.5999756
1512.810438	658.0
1513.328166	658.7999878
1513.84584	658.0
1514.363459	657.7999878
1514.881023	657.4000244
1515.398533	658.2000122
1515.915988	657.5999756
1516.433389	657.5999756
1516.950734	659.0
1517.468026	657.4000244
1517.985263	654.7999878
1518.502445	658.0
1519.019572	657.7999878
1519.536645	658.0
1520.053664	656.4000244
1520.570628	657.7999878
1521.087537	658.2000122
1521.604392	658.2000122
1522.121192	658.5999756
1522.637937	658.4000244
1523.154628	656.5999756
1523.671265	657.0
1524.187847	654.0
1524.704374	657.2000122
1525.220847	658.2000122
1525.737265	655.4000244
1526.253629	660.2000122
1526.769938	658.5999756
1527.286192	656.2000122
1527.802392	656.7999878
1528.318538	658.0
1528.834629	655.2000122
1529.350666	657.5999756
1529.866648	658.2000122
1530.382575	657.5999756
1530.898448	658.7999878
1531.414266	656.2000122
1531.93003	659.7999878
1532.44574	655.0
1532.961395	659.2000122
1533.476995	657.4000244
1533.992541	658.2000122
1534.508033	657.5999756
1535.02347	658.2000122
1535.538852	655.5999756
1536.05418	658.2000122
1536.569454	657.0
1537.084673	657.2000122
1537.599837	655.7999878
1538.114947	656.0
1538.630003	657.2000122
1539.145004	657.2000122
1539.659951	657.4000244
1540.174843	655.5999756
1540.689681	655.7999878
1541.204465	657.2000122
1541.719194	657.4000244
1542.233868	659.4000244
1542.748488	658.2000122
1543.263054	656.5999756
1543.777565	657.0
1544.292022	657.4000244
1544.806424	656.5999756
1545.320772	657.0
1545.835066	657.5999756
1546.349305	657.2000122
1546.863489	655.4000244
1547.37762	657.7999878
1547.891696	655.5999756
1548.405717	657.5999756
1548.919684	656.7999878
1549.433597	656.4000244
1549.947455	658.0
1550.461259	657.4000244
1550.975009	658.4000244
1551.488704	657.7999878
1552.002345	656.0
1552.515931	655.0
1553.029463	658.0
1553.542941	657.0
1554.056364	656.4000244
1554.569733	656.4000244
1555.083048	657.5999756
1555.596308	658.4000244
1556.109514	656.4000244
1556.622665	656.7999878
1557.135762	657.2000122
1557.648805	657.0
1558.161794	657.0
1558.674728	659.5999756
1559.187608	658.2000122
1559.700433	658.0
1560.213205	656.7999878
1560.725921	656.4000244
1561.238584	656.7999878
1561.751192	657.5999756
1562.263746	657.0
1562.776246	656.7999878
1563.288691	654.0
1563.801082	659.7999878
1564.313419	657.4000244
1564.825701	657.0
1565.337929	657.2000122
1565.850103	656.7999878
1566.362223	658.2000122
1566.874288	661.0
1567.386299	657.5999756
1567.898256	657.5999756
1568.410158	659.0
1568.922007	656.2000122
1569.4338	655.7999878
1569.94554	655.0
1570.457226	657.0
1570.968857	654.0
1571.480434	655.2000122
1571.991956	657.2000122
1572.503425	654.7999878
1573.014839	656.2000122
1573.526199	657.0
1574.037505	655.5999756
1574.548756	655.2000122
1575.059953	658.0
1575.571096	656.5999756
1576.082185	658.0
1576.59322	658.2000122
1577.1042	658.7999878
1577.615126	659.4000244
1578.125998	656.7999878
1578.636816	658.0
1579.14758	655.5999756
1579.658289	655.0
1580.168944	656.2000122
1580.679545	658.2000122
1581.190092	655.2000122
1581.700585	655.5999756
1582.211023	659.2000122
1582.721407	656.5999756
1583.231737	655.4000244
1583.742013	657.4000244
1584.252235	658.5999756
1584.762403	656.0
1585.272516	659.0
1585.782575	656.0
1586.292581	656.7999878
1586.802532	656.5999756
1587.312428	656.5999756
1587.822271	656.5999756
1588.33206	655.2000122
1588.841794	657.4000244
1589.351474	655.4000244
1589.8611	656.5999756
1590.370672	655.7999878
1590.88019	656.4000244
1591.389654	652.7999878
1591.899064	656.0
1592.408419	653.2000122
