1042.452273	687.5999756
1043.018714	682.7999878
1043.585098	684.2000122
1044.151424	684.7999878
1044.717692	683.0
1045.283903	679.4000244
1045.850056	682.4000244
1046.416151	679.0
1046.982188	679.7999878
1047.548167	677.5999756
1048.114089	679.0
1048.679953	680.5999756
1049.24576	676.4000244
1049.811509	677.4000244
1050.3772	673.4000244
1050.942833	674.7999878
1051.508408	675.5999756
1052.073926	674.7999878
1052.639387	675.0
1053.204789	674.2000122
1053.770134	673.7999878
1054.335421	675.5999756
1054.900651	674.4000244
1055.465823	671.2000122
1056.030937	673.5999756
1056.595993	671.0
1057.160992	671.5999756
1057.725934	674.2000122
1058.290817	670.7999878
1058.855643	672.2000122
1059.420411	671.7999878
1059.985122	671.0
1060.549775	672.0
1061.114371	672.7999878
1061.678908	672.4000244
1062.243389	673.2000122
1062.807811	670.7999878
1063.372176	672.5999756
1063.936483	672.2000122
1064.500733	671.5999756
1065.064925	673.4000244
1065.62906	670.0
1066.193137	671.7999878
1066.757156	671.2000122
1067.321118	669.7999878
1067.885022	667.5999756
1068.448869	673.4000244
1069.012658	672.4000244
1069.57639	671.2000122
1070.140063	680.7999878
1070.70368	667.5999756
1071.267239	668.4000244
1071.83074	668.4000244
1072.394184	668.7999878
1072.95757	671.4000244
1073.520899	671.7999878
1074.08417	669.4000244
1074.647383	668.0
1075.21054	671.0
1075.773638	669.0
1076.336679	671.0
1076.899663	668.2000122
1077.462589	670.0
1078.025457	670.2000122
1078.588268	671.4000244
1079.151022	668.4000244
1079.713718	668.0
1080.276356	667.0
1080.838937	669.7999878
1081.401461	669.5999756
1081.963927	669.5999756
1082.526336	671.7999878
1083.088687	670.0
1083.650981	671.0
1084.213217	669.2000122
1084.775396	671.0
1085.337517	668.2000122
1085.899581	666.2000122
1086.461587	669.5999756
1087.023536	671.7999878
1087.585428	665.7999878
1088.147262	668.2000122
1088.709039	669.4000244
1089.270758	668.4000244
1089.83242	670.7999878
1090.394024	669.4000244
1090.955571	672.0
1091.517061	665.4000244
1092.078493	672.2000122
1092.639868	669.7999878
1093.201185	670.2000122
1093.762445	672.0
1094.323648	667.4000244
1094.884793	669.0
1095.445881	669.0
1096.006911	668.5999756
1096.567884	668.5999756
1097.1288	674.2000122
1097.689659	669.5999756
1098.25046	669.2000122
1098.811203	669.2000122
1099.37189	668.2000122
1099.932518	671.2000122
1100.49309	669.5999756
1101.053604	671.2000122
1101.614061	669.7999878
1102.174461	669.7999878
1102.734803	667.0
1103.295088	671.4000244
1103.855316	671.2000122
1104.415486	668.7999878
1104.975599	670.0
1105.535655	669.4000244
1106.095653	672.4000244
1106.655594	670.0
1107.215478	668.5999756
1107.775305	673.2000122
1108.335074	671.2000122
1108.894786	673.0
1109.45444	671.7999878
1110.014038	677.4000244
1110.573578	675.5999756
1111.133061	678.2000122
1111.692486	676.4000244
1112.251854	678.2000122
1112.811165	680.4000244
1113.370419	673.0
1113.929616	676.5999756
1114.488755	673.4000244
1115.047837	674.7999878
1115.606862	674.7999878
1116.16583	675.5999756
1116.72474	675.4000244
1117.283593	674.2000122
1117.842389	671.2000122
1118.401128	670.2000122
1118.959809	674.4000244
1119.518433	672.7999878
1120.077	673.7999878
1120.63551	675.2000122
1121.193963	670.7999878
1121.752358	674.2000122
1122.310697	674.0
1122.868978	674.7999878
1123.427202	676.5999756
1123.985368	676.7999878
1124.543478	677.2000122
1125.10153	681.7999878
1125.659526	680.5999756
1126.217464	685.2000122
1126.775345	689.7999878
1127.333168	695.4000244
1127.890935	702.7999878
1128.448644	714.5999756
1129.006297	728.7999878
1129.563892	743.2000122
1130.12143	766.7999878
1130.678911	769.5999756
1131.236335	767.0
1131.793701	738.5999756
1132.351011	731.0
1132.908263	708.2000122
1133.465458	701.0
1134.022597	690.7999878
1134.579678	686.2000122
1135.136702	682.4000244
1135.693669	678.7999878
1136.250578	675.5999756
1136.807431	678.7999878
1137.364227	678.4000244
1137.920965	677.4000244
1138.477647	676.7999878
1139.034271	672.5999756
1139.590839	672.0
1140.147349	671.7999878
1140.703802	670.4000244
1141.260198	672.5999756
1141.816537	668.2000122
1142.37282	671.5999756
1142.929045	669.7999878
1143.485213	669.4000244
1144.041323	668.4000244
1144.597377	670.5999756
1145.153374	669.0
1145.709314	670.7999878
1146.265197	671.5999756
1146.821023	669.2000122
1147.376792	669.5999756
1147.932503	674.2000122
1148.488158	671.7999878
1149.043756	667.7999878
1149.599297	670.5999756
1150.154781	671.4000244
1150.710207	670.2000122
1151.265577	671.2000122
1151.82089	668.4000244
1152.376146	670.5999756
1152.931345	671.2000122
1153.486487	671.0
1154.041572	669.7999878
1154.5966	672.7999878
1155.151571	673.2000122
1155.706485	671.7999878
1156.261342	671.5999756
1156.816142	674.5999756
1157.370885	678.7999878
1157.925572	678.0
1158.480201	680.2000122
1159.034774	682.4000244
1159.589289	687.5999756
1160.143748	690.4000244
1160.698149	695.5999756
1161.252494	692.7999878
1161.806782	692.2000122
1162.361013	682.0
1162.915187	679.4000244
1163.469304	674.0
1164.023364	674.4000244
1164.577368	672.4000244
1165.131314	671.5999756
1165.685204	671.2000122
1166.239036	671.5999756
1166.792812	672.7999878
1167.346531	671.0
1167.900193	673.5999756
1168.453798	673.2000122
1169.007347	667.2000122
1169.560838	669.5999756
1170.114273	669.4000244
1170.66765	668.5999756
1171.220971	668.7999878
1171.774235	668.7999878
1172.327443	669.2000122
1172.880593	669.4000244
1173.433687	670.5999756
1173.986723	670.2000122
1174.539703	671.5999756
1175.092626	669.5999756
1175.645493	671.0
1176.198302	668.0
1176.751055	670.5999756
1177.303751	668.5999756
1177.85639	668.4000244
1178.408972	669.5999756
1178.961498	664.7999878
1179.513966	671.4000244
1180.066378	667.7999878
1180.618733	666.2000122
1181.171032	670.0
1181.723273	670.5999756
1182.275458	669.0
1182.827586	667.7999878
1183.379657	666.5999756
1183.931672	670.0
1184.48363	669.7999878
1185.035531	666.7999878
1185.587375	672.2000122
1186.139162	669.0
1186.690893	668.4000244
1187.242567	670.5999756
1187.794184	669.4000244
1188.345745	668.5999756
1188.897249	670.4000244
1189.448696	671.4000244
1190.000086	668.4000244
1190.55142	667.0
1191.102697	665.4000244
1191.653918	669.2000122
1192.205081	668.4000244
1192.756188	669.7999878
1193.307238	692.7999878
1193.858232	669.7999878
1194.409169	671.7999878
1194.960049	669.7999878
1195.510872	670.0
1196.061639	670.0
1196.612349	669.0
1197.163003	667.4000244
1197.713599	668.0
1198.264139	669.0
1198.814623	666.5999756
1199.36505	667.4000244
1199.91542	669.4000244
1200.465734	669.4000244
1201.01599	667.5999756
1201.566191	666.7999878
1202.116334	668.0
1202.666421	671.0
1203.216452	665.2000122
1203.766425	668.4000244
1204.316343	669.0
1204.866203	669.2000122
1205.416007	669.7999878
1205.965754	669.7999878
1206.515445	670.0
1207.065079	670.7999878
1207.614657	669.4000244
1208.164177	671.7999878
1208.713642	666.7999878
1209.26305	666.0
1209.812401	666.7999878
1210.361695	668.2000122
1210.910933	669.0
1211.460115	669.2000122
1212.00924	670.7999878
1212.558308	670.0
1213.10732	668.7999878
1213.656275	668.2000122
1214.205174	670.5999756
1214.754016	670.0
1215.302801	668.0
1215.85153	669.4000244
1216.400203	669.5999756
1216.948819	667.7999878
1217.497378	668.0
1218.045881	669.5999756
1218.594327	668.4000244
1219.142717	668.5999756
1219.691051	669.4000244
1220.239327	669.5999756
1220.787548	667.7999878
1221.335712	666.7999878
1221.883819	666.5999756
1222.43187	667.7999878
1222.979864	669.0
1223.527802	672.2000122
1224.075683	668.5999756
1224.623508	670.5999756
1225.171277	666.7999878
1225.718989	669.2000122
1226.266644	667.4000244
1226.814243	668.7999878
1227.361786	672.5999756
1227.909272	667.7999878
1228.456702	670.4000244
1229.004075	668.7999878
1229.551392	672.7999878
1230.098652	663.5999756
1230.645856	668.0
1231.193003	671.4000244
1231.740094	672.0
1232.287129	670.0
1232.834107	669.0
1233.381029	666.7999878
1233.927894	667.2000122
1234.474703	671.2000122
1235.021455	671.2000122
1235.568151	667.5999756
1236.114791	671.0
1236.661374	670.4000244
1237.207901	669.7999878
1237.754372	667.7999878
1238.300786	668.2000122
1238.847144	672.2000122
1239.393445	669.5999756
1239.93969	668.7999878
1240.485879	669.5999756
1241.032011	667.7999878
1241.578087	670.5999756
1242.124106	668.4000244
1242.67007	670.4000244
1243.215976	669.2000122
1243.761827	668.4000244
1244.307621	670.7999878
1244.853359	672.5999756
1245.39904	671.5999756
1245.944665	668.5999756
1246.490234	671.0
1247.035746	670.5999756
1247.581203	671.2000122
1248.126602	671.5999756
1248.671946	672.2000122
1249.217233	669.5999756
1249.762464	669.4000244
1250.307638	671.4000244
1250.852757	669.0
1251.397819	668.5999756
1251.942824	673.0
1252.487774	669.0
1253.032667	671.0
1253.577503	672.2000122
1254.122284	669.4000244
1254.667008	672.4000244
1255.211676	669.2000122
1255.756288	668.4000244
1256.300843	671.2000122
1256.845342	671.0
1257.389785	670.0
1257.934172	670.2000122
1258.478502	674.0
1259.022776	673.0
1259.566994	671.0
1260.111156	684.2000122
1260.655261	669.0
1261.199311	675.7999878
1261.743304	671.7999878
1262.28724	677.5999756
1262.831121	674.2000122
1263.374945	679.4000244
1263.918713	680.5999756
1264.462425	688.2000122
1265.006081	682.4000244
1265.54968	681.4000244
1266.093223	673.5999756
1266.636711	675.4000244
1267.180141	675.4000244
1267.723516	671.0
1268.266835	676.0
1268.810097	671.2000122
1269.353303	670.5999756
1269.896453	668.4000244
1270.439547	671.2000122
1270.982584	671.0
1271.525566	673.0
1272.068491	670.0
1272.61136	670.4000244
1273.154173	672.0
1273.69693	672.4000244
1274.239631	672.4000244
1274.782275	669.5999756
1275.324864	674.2000122
1275.867396	672.5999756
1276.409872	669.0
1276.952292	673.0
1277.494656	671.4000244
1278.036964	671.2000122
1278.579215	673.0
1279.121411	671.4000244
1279.66355	672.5999756
1280.205634	676.4000244
1280.747661	677.7999878
1281.289632	681.4000244
1281.831547	687.0
1282.373406	697.5999756
1282.915209	721.4000244
1283.456955	766.7999878
1283.998646	850.5999756
1284.540281	925.2000122
1285.081859	901.4000244
1285.623381	783.5999756
1286.164848	718.4000244
1286.706258	694.4000244
1287.247612	685.5999756
1287.788911	681.2000122
1288.330153	677.0
1288.871339	678.0
1289.412469	673.7999878
1289.953543	672.2000122
1290.494561	675.0
1291.035523	670.5999756
1291.576428	675.0
1292.117278	672.5999756
1292.658072	671.0
1293.19881	672.0
1293.739492	670.4000244
1294.280118	671.7999878
1294.820687	674.5999756
1295.361201	670.4000244
1295.901659	671.2000122
1296.442061	673.5999756
1296.982406	672.4000244
1297.522696	671.0
1298.06293	668.5999756
1298.603108	671.5999756
1299.143229	671.5999756
1299.683295	667.4000244
1300.223305	670.4000244
1300.763259	669.2000122
1301.303157	669.7999878
1301.842999	671.7999878
1302.382785	669.2000122
1302.922515	668.7999878
1303.462189	667.7999878
1304.001807	668.4000244
1304.541369	670.5999756
1305.080875	669.7999878
1305.620326	671.7999878
1306.15972	671.4000244
1306.699058	669.2000122
1307.238341	669.2000122
1307.777567	672.4000244
1308.316738	673.2000122
1308.855853	670.5999756
1309.394912	669.0
1309.933915	667.5999756
1310.472862	670.5999756
1311.011753	668.5999756
1311.550588	668.5999756
1312.089367	670.4000244
1312.62809	671.5999756
1313.166758	671.5999756
1313.70537	670.2000122
1314.243925	667.5999756
1314.782425	668.0
1315.320869	668.4000244
1315.859257	671.5999756
1316.397589	671.0
1316.935866	671.0
1317.474086	667.0
1318.012251	669.4000244
1318.55036	671.2000122
1319.088413	672.2000122
1319.62641	666.0
1320.164351	669.5999756
1320.702236	671.2000122
1321.240066	666.7999878
1321.777839	672.0
1322.315557	669.2000122
1322.853219	669.2000122
1323.390826	668.7999878
1323.928376	674.0
1324.465871	670.5999756
1325.003309	668.7999878
1325.540692	670.2000122
1326.07802	670.4000244
1326.615291	670.7999878
1327.152506	668.4000244
1327.689666	670.0
1328.22677	671.5999756
1328.763818	668.2000122
1329.300811	669.7999878
1329.837747	670.7999878
1330.374628	671.0
1330.911453	668.0
1331.448222	666.4000244
1331.984936	667.5999756
1332.521594	670.0
1333.058196	669.5999756
1333.594742	669.2000122
1334.131232	668.4000244
1334.667667	673.4000244
1335.204046	669.7999878
1335.740369	667.2000122
1336.276637	669.4000244
1336.812848	670.4000244
1337.349004	667.4000244
1337.885105	668.0
1338.421149	671.2000122
1338.957138	668.2000122
1339.493071	669.4000244
1340.028949	670.2000122
1340.56477	667.5999756
1341.100536	671.5999756
1341.636246	669.2000122
1342.171901	668.4000244
1342.7075	672.0
1343.243043	671.7999878
1343.77853	669.0
1344.313962	670.0
1344.849338	665.5999756
1345.384659	670.7999878
1345.919923	671.4000244
1346.455133	668.0
1346.990286	669.0
1347.525384	669.5999756
1348.060426	671.2000122
1348.595412	665.7999878
1349.130343	670.2000122
1349.665218	672.2000122
1350.200037	666.2000122
1350.734801	668.7999878
1351.269509	670.4000244
1351.804162	670.0
1352.338758	668.2000122
1352.8733	671.5999756
1353.407785	670.4000244
1353.942215	667.5999756
1354.476589	670.0
1355.010908	670.0
1355.545171	668.7999878
1356.079379	670.5999756
1356.61353	668.5999756
1357.147627	672.5999756
1357.681667	669.0
1358.215652	669.4000244
1358.749582	670.0
1359.283456	670.5999756
1359.817274	670.0
1360.351037	669.7999878
1360.884744	667.2000122
1361.418395	667.4000244
1361.951991	669.0
1362.485531	670.5999756
1363.019016	670.4000244
1363.552445	668.0
1364.085819	668.5999756
1364.619137	669.4000244
1365.1524	672.2000122
1365.685607	672.4000244
1366.218758	671.5999756
1366.751854	670.0
1367.284894	670.4000244
1367.817879	672.7999878
1368.350808	671.4000244
1368.883682	672.0
1369.4165	669.7999878
1369.949263	677.2000122
1370.48197	679.5999756
1371.014622	676.2000122
1371.547218	671.7999878
1372.079758	669.7999878
1372.612244	670.2000122
1373.144673	670.5999756
1373.677047	670.7999878
1374.209366	672.2000122
1374.741629	672.7999878
1375.273836	670.7999878
1375.805989	671.2000122
1376.338085	673.7999878
1376.870126	673.0
1377.402112	672.5999756
1377.934042	672.0
1378.465917	671.0
1378.997736	678.5999756
1379.5295	673.7999878
1380.061208	675.2000122
1380.592861	672.4000244
1381.124459	674.7999878
1381.656	671.4000244
1382.187487	678.7999878
1382.718918	673.2000122
1383.250294	677.5999756
1383.781614	676.2000122
1384.312879	684.4000244
1384.844088	682.7999878
1385.375242	684.7999878
1385.90634	697.2000122
1386.437383	710.7999878
1386.968371	757.5999756
1387.499303	863.2000122
1388.03018	1093.599976
1388.561001	1171.400024
1389.091767	928.2000122
1389.622478	761.5999756
1390.153133	715.4000244
1390.683733	689.2000122
1391.214277	688.4000244
1391.744766	683.2000122
1392.2752	678.5999756
1392.805578	677.2000122
1393.335901	676.0
1393.866168	677.0
1394.396381	674.2000122
1394.926537	675.0
1395.456639	672.7999878
1395.986685	670.7999878
1396.516675	674.5999756
1397.046611	672.4000244
1397.576491	672.7999878
1398.106315	671.0
1398.636084	675.7999878
1399.165798	673.2000122
1399.695457	673.7999878
1400.22506	672.5999756
1400.754608	669.7999878
1401.284101	782.0
1402.872247	708.0
1403.401518	674.2000122
1403.930734	674.4000244
1404.459895	673.4000244
1404.989	673.5999756
1405.51805	675.7999878
1406.047045	671.7999878
1406.575984	673.4000244
1407.104869	674.7999878
1407.633697	678.2000122
1408.162471	681.2000122
1408.691189	681.7999878
1409.219852	693.0
1409.74846	699.0
1410.277013	697.7999878
1410.80551	687.2000122
1411.333952	675.4000244
1411.862339	672.4000244
1412.39067	672.7999878
1412.918946	673.4000244
1413.447167	670.0
1413.975333	671.4000244
1414.503444	672.5999756
1415.031499	671.5999756
1415.559499	681.0
1416.087444	670.5999756
1416.615333	672.2000122
1417.143167	669.4000244
1417.670947	669.2000122
1418.19867	670.2000122
1418.726339	669.5999756
1419.253952	671.2000122
1419.781511	670.4000244
1420.309014	673.0
1420.836461	669.0
1421.363854	672.5999756
1421.891191	667.0
1422.418474	669.0
1422.945701	670.0
1423.472872	670.5999756
1423.999989	668.5999756
1424.52705	672.5999756
1425.054057	669.5999756
1425.581008	668.4000244
1426.107904	669.7999878
1426.634745	670.4000244
1427.16153	671.0
1427.688261	665.7999878
1428.214936	669.2000122
1428.741556	666.5999756
1429.268121	667.2000122
1429.794631	670.2000122
1430.321085	669.7999878
1430.847485	669.0
1431.373829	671.2000122
1431.900118	668.7999878
1432.426353	667.0
1432.952532	669.5999756
1433.478655	668.5999756
1434.004724	669.7999878
1434.530738	668.7999878
1435.056696	669.5999756
1435.5826	667.7999878
1436.108448	668.7999878
1436.634241	667.5999756
1437.159979	667.5999756
1437.685662	668.7999878
1438.21129	664.5999756
1438.736863	669.4000244
1439.262381	668.0
1439.787843	667.4000244
1440.313251	670.4000244
1440.838603	669.5999756
1441.3639	667.0
1441.889143	668.0
1442.41433	667.0
1442.939462	669.0
1443.464539	667.5999756
1443.989561	665.4000244
1444.514528	668.2000122
1445.03944	666.4000244
1445.564297	667.0
1446.089099	666.5999756
1446.613846	667.5999756
1447.138537	667.7999878
1447.663174	666.0
1448.187756	667.4000244
1448.712282	667.0
1449.236754	666.0
1449.761171	665.5999756
1450.285532	664.2000122
1450.809839	668.7999878
1451.33409	667.7999878
1451.858287	665.4000244
1452.382428	667.5999756
1452.906515	667.2000122
1453.430546	667.5999756
1453.954523	667.2000122
1454.478444	666.0
1455.002311	667.2000122
1455.526123	666.7999878
1456.049879	668.2000122
1456.573581	666.7999878
1457.097227	668.4000244
1457.620819	664.0
1458.144356	667.0
1458.667837	668.4000244
1459.191264	665.2000122
1459.714636	669.0
1460.237952	666.0
1460.761214	665.5999756
1461.284421	669.5999756
1461.807573	668.7999878
1462.33067	666.7999878
1462.853712	671.7999878
1463.376699	674.4000244
1463.899632	668.2000122
1464.422509	666.7999878
1464.945331	668.7999878
1465.468099	665.7999878
1465.990811	668.2000122
1466.513469	667.5999756
1467.036071	668.7999878
1467.558619	666.2000122
1468.081112	666.2000122
1468.60355	664.7999878
1469.125933	669.0
1469.648261	665.5999756
1470.170534	670.0
1470.692752	665.7999878
1471.214916	668.7999878
1471.737024	666.5999756
1472.259078	669.2000122
1472.781077	666.4000244
1473.303021	668.5999756
1473.82491	667.4000244
1474.346744	666.4000244
1474.868523	661.7999878
1475.390248	667.2000122
1475.911917	667.0
1476.433532	664.5999756
1476.955092	665.7999878
1477.476597	666.5999756
1477.998047	664.4000244
1478.519442	666.0
1479.040783	667.4000244
1479.562068	665.7999878
1480.083299	667.0
1480.604475	665.0
1481.125596	664.7999878
1481.646663	666.2000122
1482.167674	667.2000122
1482.688631	667.4000244
1483.209533	665.5999756
1483.73038	665.2000122
1484.251172	664.5999756
1484.771909	665.4000244
1485.292592	666.7999878
1485.81322	667.4000244
1486.333793	668.4000244
1486.854311	667.4000244
1487.374775	667.0
1487.895183	666.4000244
1488.415537	666.0
1488.935836	668.2000122
1489.456081	667.0
1489.97627	665.4000244
1490.496405	666.2000122
1491.016485	667.5999756
1491.536511	667.7999878
1492.056481	664.7999878
1492.576397	664.7999878
1493.096258	666.7999878
1493.616064	663.0
1494.135816	666.5999756
1494.655513	666.7999878
1495.175155	667.5999756
1495.694742	667.2000122
1496.214274	664.7999878
1496.733752	667.4000244
1497.253175	665.7999878
1497.772544	665.2000122
1498.291858	667.2000122
1498.811116	666.7999878
1499.330321	663.4000244
1499.84947	674.2000122
1500.368565	668.5999756
1500.887605	666.2000122
1501.406591	666.0
1501.925521	666.0
1502.444397	665.2000122
1502.963219	666.4000244
1503.481985	667.7999878
1504.000697	667.0
1504.519355	668.4000244
1505.037957	665.5999756
1505.556505	668.0
1506.074999	662.5999756
1506.593437	668.2000122
1507.111821	667.2000122
1507.63015	665.7999878
1508.148425	667.4000244
1508.666645	665.4000244
1509.18481	667.0
1509.702921	667.4000244
1510.220977	667.2000122
1510.738979	676.5999756
1511.256925	666.7999878
1511.774817	665.2000122
1512.292655	664.0
1512.810438	666.7999878
1513.328166	663.4000244
1513.84584	666.7999878
1514.363459	666.2000122
1514.881023	665.5999756
1515.398533	663.4000244
1515.915988	664.7999878
1516.433389	666.5999756
1516.950734	665.0
1517.468026	667.0
1517.985263	664.0
1518.502445	666.2000122
1519.019572	664.5999756
1519.536645	667.5999756
1520.053664	665.7999878
1520.570628	664.5999756
1521.087537	666.7999878
1521.604392	666.5999756
1522.121192	665.4000244
1522.637937	666.5999756
1523.154628	670.2000122
1523.671265	663.7999878
1524.187847	667.0
1524.704374	667.2000122
1525.220847	664.2000122
1525.737265	667.2000122
1526.253629	670.2000122
1526.769938	668.0
1527.286192	665.0
1527.802392	664.5999756
1528.318538	667.0
1528.834629	664.5999756
1529.350666	664.7999878
1529.866648	666.0
1530.382575	669.4000244
1530.898448	665.7999878
1531.414266	667.0
1531.93003	666.4000244
1532.44574	664.4000244
1532.961395	667.5999756
1533.476995	665.2000122
1533.992541	666.4000244
1534.508033	666.4000244
1535.02347	668.7999878
1535.538852	668.4000244
1536.05418	667.4000244
1536.569454	663.0
1537.084673	665.0
1537.599837	666.5999756
1538.114947	665.7999878
1538.630003	667.0
1539.145004	665.5999756
1539.659951	667.0
1540.174843	666.5999756
1540.689681	666.0
1541.204465	665.0
1541.719194	667.7999878
1542.233868	666.5999756
1542.748488	669.5999756
1543.263054	666.2000122
1543.777565	664.7999878
1544.292022	665.7999878
1544.806424	667.0
1545.320772	666.5999756
1545.835066	666.7999878
1546.349305	667.0
1546.863489	665.7999878
1547.37762	662.5999756
1547.891696	666.2000122
1548.405717	664.5999756
1548.919684	667.7999878
1549.433597	665.7999878
1549.947455	668.0
1550.461259	667.4000244
1550.975009	666.2000122
1551.488704	664.5999756
1552.002345	667.0
1552.515931	665.5999756
1553.029463	666.5999756
1553.542941	665.2000122
1554.056364	666.7999878
1554.569733	665.2000122
1555.083048	663.0
1555.596308	666.0
1556.109514	668.0
1556.622665	667.0
1557.135762	664.4000244
1557.648805	669.2000122
1558.161794	665.5999756
1558.674728	664.0
1559.187608	664.7999878
1559.700433	666.0
1560.213205	666.0
1560.725921	665.5999756
1561.238584	666.2000122
1561.751192	665.4000244
1562.263746	666.7999878
1562.776246	664.5999756
1563.288691	666.0
1563.801082	668.0
1564.313419	667.0
1564.825701	666.0
1565.337929	669.4000244
1565.850103	668.7999878
1566.362223	667.0
1566.874288	668.2000122
1567.386299	666.2000122
1567.898256	663.7999878
1568.410158	670.0
1568.922007	664.5999756
1569.4338	663.5999756
1569.94554	665.5999756
1570.457226	667.5999756
1570.968857	664.7999878
1571.480434	667.5999756
1571.991956	664.7999878
1572.503425	664.5999756
1573.014839	663.7999878
1573.526199	663.0
1574.037505	664.7999878
1574.548756	664.2000122
1575.059953	664.7999878
1575.571096	665.2000122
1576.082185	667.2000122
1576.59322	664.5999756
1577.1042	664.5999756
1577.615126	662.7999878
1578.125998	667.5999756
1578.636816	663.7999878
1579.14758	665.2000122
1579.658289	665.2000122
1580.168944	664.0
1580.679545	666.2000122
1581.190092	665.5999756
1581.700585	666.4000244
1582.211023	665.5999756
1582.721407	666.5999756
1583.231737	667.2000122
1583.742013	665.4000244
1584.252235	666.5999756
1584.762403	667.0
1585.272516	664.5999756
1585.782575	665.5999756
1586.292581	665.7999878
1586.802532	664.5999756
1587.312428	664.2000122
1587.822271	665.4000244
1588.33206	665.2000122
1588.841794	667.5999756
1589.351474	663.7999878
1589.8611	665.2000122
1590.370672	667.4000244
1590.88019	665.2000122
1591.389654	661.7999878
1591.899064	664.7999878
1592.408419	662.2000122
