1042.452273	686.7999878
1043.018714	681.4000244
1043.585098	679.7999878
1044.151424	681.7999878
1044.717692	681.7999878
1045.283903	680.7999878
1045.850056	679.0
1046.416151	677.4000244
1046.982188	676.7999878
1047.548167	678.5999756
1048.114089	677.4000244
1048.679953	677.0
1049.24576	677.7999878
1049.811509	675.0
1050.3772	679.0
1050.942833	676.7999878
1051.508408	678.5999756
1052.073926	675.7999878
1052.639387	672.5999756
1053.204789	676.4000244
1053.770134	675.4000244
1054.335421	678.4000244
1054.900651	674.2000122
1055.465823	671.2000122
1056.030937	675.5999756
1056.595993	676.5999756
1057.160992	676.2000122
1057.725934	676.4000244
1058.290817	670.0
1058.855643	674.5999756
1059.420411	671.0
1059.985122	671.2000122
1060.549775	670.4000244
1061.114371	675.7999878
1061.678908	674.5999756
1062.243389	673.2000122
1062.807811	673.0
1063.372176	674.5999756
1063.936483	675.4000244
1064.500733	670.7999878
1065.064925	672.7999878
1065.62906	671.7999878
1066.193137	674.0
1066.757156	672.2000122
1067.321118	671.4000244
1067.885022	673.5999756
1068.448869	673.7999878
1069.012658	671.5999756
1069.57639	674.2000122
1070.140063	679.7999878
1070.70368	672.0
1071.267239	672.4000244
1071.83074	672.7999878
1072.394184	674.7999878
1072.95757	673.4000244
1073.520899	668.7999878
1074.08417	672.4000244
1074.647383	674.0
1075.21054	673.0
1075.773638	668.0
1076.336679	675.5999756
1076.899663	672.0
1077.462589	672.2000122
1078.025457	673.7999878
1078.588268	673.5999756
1079.151022	670.2000122
1079.713718	672.0
1080.276356	671.7999878
1080.838937	671.5999756
1081.401461	673.0
1081.963927	674.4000244
1082.526336	678.4000244
1083.088687	670.5999756
1083.650981	675.4000244
1084.213217	675.4000244
1084.775396	676.2000122
1085.337517	674.2000122
1085.899581	675.5999756
1086.461587	678.7999878
1087.023536	676.0
1087.585428	676.5999756
1088.147262	676.2000122
1088.709039	676.4000244
1089.270758	680.5999756
1089.83242	677.2000122
1090.394024	672.4000244
1090.955571	676.2000122
1091.517061	673.4000244
1092.078493	677.4000244
1092.639868	673.5999756
1093.201185	678.7999878
1093.762445	678.2000122
1094.323648	675.2000122
1094.884793	676.2000122
1095.445881	676.2000122
1096.006911	675.7999878
1096.567884	674.2000122
1097.1288	681.4000244
1097.689659	674.4000244
1098.25046	669.7999878
1098.811203	677.2000122
1099.37189	673.2000122
1099.932518	670.4000244
1100.49309	673.4000244
1101.053604	672.5999756
1101.614061	673.5999756
1102.174461	671.7999878
1102.734803	673.2000122
1103.295088	671.4000244
1103.855316	671.4000244
1104.415486	671.4000244
1104.975599	672.0
1105.535655	670.7999878
1106.095653	673.4000244
1106.655594	674.2000122
1107.215478	670.2000122
1107.775305	673.4000244
1108.335074	673.4000244
1108.894786	673.7999878
1109.45444	672.7999878
1110.014038	674.0
1110.573578	671.7999878
1111.133061	672.7999878
1111.692486	673.4000244
1112.251854	672.2000122
1112.811165	672.0
1113.370419	672.7999878
1113.929616	674.2000122
1114.488755	671.5999756
1115.047837	674.4000244
1115.606862	671.7999878
1116.16583	670.2000122
1116.72474	673.5999756
1117.283593	673.2000122
1117.842389	668.2000122
1118.401128	672.7999878
1118.959809	673.0
1119.518433	671.2000122
1120.077	669.2000122
1120.63551	674.5999756
1121.193963	672.0
1121.752358	673.0
1122.310697	671.0
1122.868978	673.0
1123.427202	675.5999756
1123.985368	670.2000122
1124.543478	673.4000244
1125.10153	670.4000244
1125.659526	676.4000244
1126.217464	676.2000122
1126.775345	676.4000244
1127.333168	682.4000244
1127.890935	685.0
1128.448644	689.2000122
1129.006297	693.5999756
1129.563892	696.0
1130.12143	698.5999756
1130.678911	691.2000122
1131.236335	694.2000122
1131.793701	687.2000122
1132.351011	678.4000244
1132.908263	680.0
1133.465458	678.0
1134.022597	673.2000122
1134.579678	675.7999878
1135.136702	670.7999878
1135.693669	671.0
1136.250578	670.7999878
1136.807431	672.4000244
1137.364227	673.5999756
1137.920965	670.7999878
1138.477647	669.7999878
1139.034271	670.0
1139.590839	670.2000122
1140.147349	671.4000244
1140.703802	672.7999878
1141.260198	671.2000122
1141.816537	670.0
1142.37282	671.7999878
1142.929045	673.0
1143.485213	672.2000122
1144.041323	673.7999878
1144.597377	670.0
1145.153374	670.4000244
1145.709314	673.4000244
1146.265197	669.0
1146.821023	667.0
1147.376792	669.2000122
1147.932503	671.7999878
1148.488158	669.4000244
1149.043756	671.0
1149.599297	669.7999878
1150.154781	671.0
1150.710207	673.5999756
1151.265577	669.5999756
1151.82089	669.5999756
1152.376146	667.2000122
1152.931345	666.4000244
1153.486487	669.5999756
1154.041572	670.5999756
1154.5966	670.7999878
1155.151571	670.2000122
1155.706485	670.4000244
1156.261342	669.7999878
1156.816142	674.4000244
1157.370885	672.2000122
1157.925572	671.2000122
1158.480201	672.7999878
1159.034774	670.5999756
1159.589289	675.4000244
1160.143748	671.2000122
1160.698149	673.7999878
1161.252494	674.5999756
1161.806782	674.2000122
1162.361013	671.0
1162.915187	668.0
1163.469304	671.7999878
1164.023364	669.7999878
1164.577368	668.2000122
1165.131314	670.5999756
1165.685204	669.4000244
1166.239036	670.4000244
1166.792812	672.4000244
1167.346531	672.0
1167.900193	671.4000244
1168.453798	669.2000122
1169.007347	669.7999878
1169.560838	671.7999878
1170.114273	669.7999878
1170.66765	670.4000244
1171.220971	669.7999878
1171.774235	669.4000244
1172.327443	669.4000244
1172.880593	669.0
1173.433687	670.4000244
1173.986723	669.7999878
1174.539703	669.7999878
1175.092626	671.2000122
1175.645493	665.7999878
1176.198302	670.7999878
1176.751055	670.5999756
1177.303751	668.7999878
1177.85639	666.7999878
1178.408972	668.7999878
1178.961498	670.4000244
1179.513966	666.4000244
1180.066378	669.5999756
1180.618733	668.0
1181.171032	669.5999756
1181.723273	670.5999756
1182.275458	669.5999756
1182.827586	667.7999878
1183.379657	669.7999878
1183.931672	669.0
1184.48363	667.7999878
1185.035531	669.5999756
1185.587375	671.2000122
1186.139162	670.7999878
1186.690893	671.7999878
1187.242567	669.7999878
1187.794184	667.7999878
1188.345745	666.7999878
1188.897249	671.7999878
1189.448696	667.2000122
1190.000086	669.5999756
1190.55142	668.4000244
1191.102697	669.2000122
1191.653918	667.0
1192.205081	669.4000244
1192.756188	672.2000122
1193.307238	691.0
1193.858232	672.5999756
1194.409169	668.2000122
1194.960049	671.0
1195.510872	669.2000122
1196.061639	666.2000122
1196.612349	672.5999756
1197.163003	671.4000244
1197.713599	668.5999756
1198.264139	668.0
1198.814623	671.2000122
1199.36505	669.7999878
1199.91542	668.4000244
1200.465734	669.7999878
1201.01599	669.0
1201.566191	669.2000122
1202.116334	669.7999878
1202.666421	671.2000122
1203.216452	667.2000122
1203.766425	670.0
1204.316343	667.7999878
1204.866203	670.2000122
1205.416007	668.7999878
1205.965754	670.0
1206.515445	670.7999878
1207.065079	669.0
1207.614657	670.7999878
1208.164177	670.5999756
1208.713642	670.0
1209.26305	667.0
1209.812401	670.5999756
1210.361695	673.0
1210.910933	669.0
1211.460115	669.7999878
1212.00924	670.7999878
1212.558308	670.5999756
1213.10732	672.0
1213.656275	672.0
1214.205174	668.4000244
1214.754016	671.0
1215.302801	672.2000122
1215.85153	667.4000244
1216.400203	669.0
1216.948819	671.0
1217.497378	667.2000122
1218.045881	668.2000122
1218.594327	667.7999878
1219.142717	666.2000122
1219.691051	669.7999878
1220.239327	673.7999878
1220.787548	666.5999756
1221.335712	670.5999756
1221.883819	672.5999756
1222.43187	671.4000244
1222.979864	673.4000244
1223.527802	670.5999756
1224.075683	671.7999878
1224.623508	670.0
1225.171277	671.0
1225.718989	671.5999756
1226.266644	669.2000122
1226.814243	670.2000122
1227.361786	668.7999878
1227.909272	672.2000122
1228.456702	670.0
1229.004075	672.0
1229.551392	670.5999756
1230.098652	671.0
1230.645856	670.0
1231.193003	671.7999878
1231.740094	672.4000244
1232.287129	671.2000122
1232.834107	670.7999878
1233.381029	670.4000244
1233.927894	669.2000122
1234.474703	672.0
1235.021455	670.7999878
1235.568151	672.0
1236.114791	671.2000122
1236.661374	672.4000244
1237.207901	670.0
1237.754372	670.2000122
1238.300786	671.0
1238.847144	671.5999756
1239.393445	671.5999756
1239.93969	669.5999756
1240.485879	672.2000122
1241.032011	669.2000122
1241.578087	668.7999878
1242.124106	671.0
1242.67007	670.0
1243.215976	668.2000122
1243.761827	667.2000122
1244.307621	671.5999756
1244.853359	673.5999756
1245.39904	670.5999756
1245.944665	671.2000122
1246.490234	668.5999756
1247.035746	669.0
1247.581203	672.7999878
1248.126602	671.4000244
1248.671946	670.2000122
1249.217233	669.7999878
1249.762464	672.4000244
1250.307638	669.7999878
1250.852757	671.7999878
1251.397819	671.7999878
1251.942824	672.2000122
1252.487774	671.5999756
1253.032667	670.5999756
1253.577503	674.2000122
1254.122284	669.7999878
1254.667008	671.7999878
1255.211676	668.7999878
1255.756288	673.2000122
1256.300843	672.0
1256.845342	672.7999878
1257.389785	670.4000244
1257.934172	671.4000244
1258.478502	672.2000122
1259.022776	674.2000122
1259.566994	674.7999878
1260.111156	686.4000244
1260.655261	670.7999878
1261.199311	675.0
1261.743304	674.5999756
1262.28724	673.7999878
1262.831121	678.4000244
1263.374945	681.4000244
1263.918713	688.5999756
1264.462425	690.4000244
1265.006081	690.5999756
1265.54968	684.0
1266.093223	679.4000244
1266.636711	674.4000244
1267.180141	674.4000244
1267.723516	671.2000122
1268.266835	675.4000244
1268.810097	674.5999756
1269.353303	672.2000122
1269.896453	671.5999756
1270.439547	673.7999878
1270.982584	672.2000122
1271.525566	672.0
1272.068491	668.4000244
1272.61136	671.5999756
1273.154173	672.2000122
1273.69693	672.5999756
1274.239631	674.7999878
1274.782275	671.7999878
1275.324864	673.7999878
1275.867396	673.5999756
1276.409872	671.5999756
1276.952292	673.2000122
1277.494656	676.2000122
1278.036964	670.4000244
1278.579215	676.0
1279.121411	673.0
1279.66355	672.0
1280.205634	675.0
1280.747661	676.4000244
1281.289632	676.0
1281.831547	682.5999756
1282.373406	688.4000244
1282.915209	704.2000122
1283.456955	741.7999878
1283.998646	814.0
1284.540281	928.0
1285.081859	985.0
1285.623381	854.5999756
1286.164848	745.7999878
1286.706258	702.0
1287.247612	688.4000244
1287.788911	682.2000122
1288.330153	677.4000244
1288.871339	674.4000244
1289.412469	675.5999756
1289.953543	675.0
1290.494561	672.2000122
1291.035523	673.5999756
1291.576428	672.0
1292.117278	671.5999756
1292.658072	674.0
1294.280118	675.4000244
1294.820687	670.7999878
1295.361201	673.0
1295.901659	670.4000244
1296.442061	671.2000122
1296.982406	669.4000244
1297.522696	669.7999878
1298.06293	667.4000244
1298.603108	671.5999756
1299.143229	671.7999878
1299.683295	672.0
1300.223305	673.4000244
1300.763259	671.4000244
1301.303157	670.2000122
1301.842999	673.0
1302.382785	672.5999756
1302.922515	671.0
1303.462189	672.2000122
1304.001807	674.4000244
1304.541369	669.0
1305.080875	670.2000122
1305.620326	671.4000244
1306.15972	670.5999756
1306.699058	671.7999878
1307.238341	671.5999756
1307.777567	672.7999878
1308.316738	671.5999756
1308.855853	671.2000122
1309.394912	671.4000244
1309.933915	669.4000244
1310.472862	669.0
1311.011753	670.5999756
1311.550588	670.4000244
1312.089367	672.0
1312.62809	670.2000122
1313.166758	672.0
1313.70537	670.5999756
1314.243925	667.7999878
1314.782425	670.5999756
1315.320869	669.4000244
1315.859257	671.2000122
1316.397589	669.2000122
1316.935866	669.4000244
1317.474086	670.5999756
1318.012251	668.7999878
1318.55036	673.0
1319.088413	669.5999756
1319.62641	672.0
1320.164351	671.7999878
1320.702236	672.2000122
1321.240066	668.4000244
1321.777839	671.0
1322.315557	671.0
1322.853219	668.0
1323.390826	670.2000122
1323.928376	673.7999878
1324.465871	670.0
1325.003309	671.0
1325.540692	670.7999878
1326.07802	671.0
1326.615291	671.0
1327.152506	669.4000244
1327.689666	668.7999878
1328.22677	671.4000244
1328.763818	669.4000244
1329.300811	669.7999878
1329.837747	668.4000244
1330.374628	671.2000122
1330.911453	670.0
1331.448222	671.2000122
1331.984936	669.2000122
1332.521594	668.4000244
1333.058196	670.2000122
1333.594742	672.7999878
1334.131232	669.5999756
1334.667667	670.2000122
1335.204046	668.5999756
1335.740369	669.2000122
1336.276637	671.2000122
1336.812848	668.7999878
1337.349004	671.5999756
1337.885105	671.0
1338.421149	670.0
1338.957138	669.7999878
1339.493071	669.2000122
1340.028949	669.0
1340.56477	670.4000244
1341.100536	667.4000244
1341.636246	669.7999878
1342.171901	672.2000122
1342.7075	670.5999756
1343.243043	670.0
1343.77853	671.0
1344.313962	670.7999878
1344.849338	669.7999878
1345.384659	669.5999756
1345.919923	671.4000244
1346.455133	670.7999878
1346.990286	669.5999756
1347.525384	670.2000122
1348.060426	670.0
1348.595412	669.4000244
1349.130343	668.2000122
1349.665218	666.7999878
1350.200037	671.2000122
1350.734801	671.4000244
1351.269509	671.2000122
1351.804162	668.2000122
1352.338758	670.4000244
1352.8733	669.0
1353.407785	673.0
1353.942215	669.5999756
1354.476589	672.5999756
1355.010908	668.7999878
1355.545171	671.2000122
1356.079379	669.2000122
1356.61353	671.5999756
1357.147627	671.4000244
1357.681667	671.0
1358.215652	670.5999756
1358.749582	673.0
1359.283456	669.0
1359.817274	670.4000244
1360.351037	673.5999756
1360.884744	670.4000244
1361.418395	670.4000244
1361.951991	671.7999878
1362.485531	673.7999878
1363.019016	671.2000122
1363.552445	670.2000122
1364.085819	671.0
1364.619137	671.7999878
1365.1524	671.5999756
1365.685607	671.4000244
1366.218758	674.2000122
1366.751854	673.0
1367.284894	670.7999878
1367.817879	672.4000244
1368.350808	673.0
1368.883682	671.4000244
1369.4165	674.7999878
1369.949263	679.4000244
1370.48197	681.7999878
1371.014622	674.7999878
1371.547218	673.7999878
1372.079758	672.0
1372.612244	672.7999878
1373.144673	671.5999756
1373.677047	674.2000122
1374.209366	671.7999878
1374.741629	672.5999756
1375.273836	670.4000244
1375.805989	671.2000122
1376.338085	671.7999878
1376.870126	675.0
1377.402112	672.0
1377.934042	676.7999878
1378.465917	675.2000122
1378.997736	672.7999878
1379.5295	672.5999756
1380.061208	673.5999756
1380.592861	671.7999878
1381.124459	675.0
1381.656	674.5999756
1382.187487	675.5999756
1382.718918	677.4000244
1383.250294	680.2000122
1383.781614	678.4000244
1384.312879	680.5999756
1384.844088	683.5999756
1385.375242	687.7999878
1385.90634	694.7999878
1386.437383	707.4000244
1386.968371	736.0
1387.499303	821.0
1388.03018	1063.800049
1388.561001	1295.800049
1389.091767	1039.800049
1389.622478	792.4000244
1390.153133	719.4000244
1390.683733	692.5999756
1391.214277	687.2000122
1391.744766	680.5999756
1392.2752	681.7999878
1392.805578	675.7999878
1393.335901	675.5999756
1393.866168	676.2000122
1394.396381	675.5999756
1394.926537	672.4000244
1395.456639	671.2000122
1395.986685	674.7999878
1396.516675	673.4000244
1397.046611	673.7999878
1397.576491	672.7999878
1398.106315	674.4000244
1398.636084	671.5999756
1399.165798	674.0
1399.695457	675.2000122
1400.22506	673.4000244
1400.754608	670.2000122
1401.284101	673.5999756
1401.813538	673.7999878
1402.34292	669.7999878
1402.872247	675.0
1403.401518	671.7999878
1403.930734	673.4000244
1404.459895	676.5999756
1404.989	674.4000244
1405.51805	673.7999878
1406.047045	674.4000244
1406.575984	675.5999756
1407.104869	677.7999878
1407.633697	676.5999756
1408.162471	678.2000122
1408.691189	686.4000244
1409.219852	697.7999878
1409.74846	707.0
1410.277013	705.5999756
1410.80551	692.4000244
1411.333952	679.5999756
1411.862339	679.7999878
1412.39067	674.0
1412.918946	675.4000244
1413.447167	671.5999756
1413.975333	672.5999756
1414.503444	672.5999756
1415.031499	673.5999756
1415.559499	683.0
1416.087444	672.0
1416.615333	670.4000244
1417.143167	669.0
1417.670947	669.7999878
1418.19867	672.2000122
1418.726339	670.5999756
1419.253952	668.5999756
1419.781511	670.7999878
1420.309014	666.4000244
1420.836461	671.5999756
1421.363854	672.0
1421.891191	668.5999756
1422.418474	671.4000244
1422.945701	670.2000122
1423.472872	667.7999878
1423.999989	669.7999878
1424.52705	670.7999878
1425.054057	672.0
1425.581008	671.2000122
1426.107904	673.4000244
1426.634745	671.5999756
1427.16153	669.2000122
1427.688261	670.7999878
1428.214936	667.2000122
1428.741556	670.7999878
1429.268121	667.0
1429.794631	670.0
1430.321085	670.0
1430.847485	670.7999878
1431.373829	669.2000122
1431.900118	668.7999878
1432.426353	673.4000244
1432.952532	667.2000122
1433.478655	669.5999756
1434.004724	673.4000244
1434.530738	668.0
1435.056696	670.4000244
1435.5826	671.0
1436.108448	670.0
1436.634241	668.5999756
1437.159979	669.5999756
1437.685662	668.5999756
1438.21129	667.5999756
1438.736863	668.5999756
1439.262381	668.5999756
1439.787843	669.7999878
1440.313251	665.0
1440.838603	668.7999878
1441.3639	671.4000244
1441.889143	671.0
1442.41433	669.7999878
1442.939462	668.2000122
1443.464539	669.0
1443.989561	673.0
1444.514528	670.7999878
1445.03944	668.7999878
1445.564297	670.0
1446.089099	668.4000244
1446.613846	667.0
1447.138537	670.2000122
1447.663174	668.4000244
1448.187756	664.7999878
1448.712282	667.7999878
1449.236754	668.2000122
1449.761171	667.0
1450.285532	668.0
1450.809839	666.2000122
1451.33409	668.5999756
1451.858287	667.7999878
1452.382428	668.4000244
1452.906515	668.5999756
1453.430546	666.7999878
1453.954523	667.2000122
1454.478444	669.2000122
1455.002311	671.4000244
1455.526123	669.2000122
1456.049879	668.2000122
1456.573581	668.5999756
1457.097227	668.5999756
1457.620819	665.4000244
1458.144356	667.4000244
1458.667837	670.7999878
1459.191264	669.5999756
1459.714636	670.2000122
1460.237952	668.0
1460.761214	664.5999756
1461.284421	670.4000244
1461.807573	668.2000122
1462.33067	666.5999756
1462.853712	673.2000122
1463.376699	671.2000122
1463.899632	666.4000244
1464.422509	668.5999756
1464.945331	667.4000244
1465.468099	667.7999878
1465.990811	666.4000244
1466.513469	667.2000122
1467.036071	670.0
1467.558619	669.2000122
1468.081112	667.2000122
1468.60355	667.5999756
1469.125933	669.2000122
1469.648261	667.5999756
1470.170534	668.5999756
1470.692752	668.0
1471.214916	668.0
1471.737024	670.5999756
1472.259078	667.0
1472.781077	670.2000122
1473.303021	667.7999878
1473.82491	667.7999878
1474.346744	668.4000244
1474.868523	669.0
1475.390248	667.5999756
1475.911917	668.4000244
1476.433532	669.4000244
1476.955092	668.0
1477.476597	666.7999878
1477.998047	669.2000122
1478.519442	668.4000244
1479.040783	669.4000244
1479.562068	668.0
1480.083299	666.0
1480.604475	667.4000244
1481.125596	670.0
1481.646663	667.4000244
1482.167674	667.5999756
1482.688631	665.0
1483.209533	668.2000122
1483.73038	668.4000244
1484.251172	667.5999756
1484.771909	669.2000122
1485.292592	670.5999756
1485.81322	670.4000244
1486.333793	668.5999756
1486.854311	669.5999756
1487.374775	668.2000122
1487.895183	668.4000244
1488.415537	665.5999756
1488.935836	669.0
1489.456081	666.4000244
1489.97627	668.7999878
1490.496405	668.4000244
1491.016485	667.5999756
1491.536511	666.2000122
1492.056481	667.0
1492.576397	669.2000122
1493.096258	670.0
1493.616064	667.2000122
1494.135816	667.0
1494.655513	666.2000122
1495.175155	667.4000244
1495.694742	666.0
1496.214274	668.0
1496.733752	668.7999878
1497.253175	669.7999878
1497.772544	669.0
1498.291858	667.0
1498.811116	670.0
1499.330321	670.0
1499.84947	675.4000244
1500.368565	667.4000244
1500.887605	668.7999878
1501.406591	669.2000122
1501.925521	669.0
1502.444397	667.7999878
1502.963219	667.0
1503.481985	667.5999756
1504.000697	668.5999756
1504.519355	668.2000122
1505.037957	666.0
1505.556505	667.5999756
1506.074999	669.2000122
1506.593437	667.5999756
1507.111821	666.7999878
1507.63015	669.5999756
1508.148425	671.0
1508.666645	667.4000244
1509.18481	671.4000244
1509.702921	668.0
1510.220977	664.0
1510.738979	677.7999878
1511.256925	668.2000122
1511.774817	667.0
1512.292655	667.7999878
1512.810438	667.0
1513.328166	666.7999878
1513.84584	668.5999756
1514.363459	666.0
1514.881023	667.4000244
1515.398533	667.7999878
1515.915988	668.2000122
1516.433389	667.0
1516.950734	666.0
1517.468026	668.0
1517.985263	667.0
1518.502445	668.0
1519.019572	667.4000244
1519.536645	667.0
1520.053664	670.4000244
1520.570628	668.0
1521.087537	667.7999878
1521.604392	670.0
1522.121192	667.5999756
1522.637937	666.4000244
1523.154628	665.7999878
1523.671265	668.0
1524.187847	672.2000122
1524.704374	666.7999878
1525.220847	666.4000244
1525.737265	668.2000122
1526.253629	668.4000244
1526.769938	668.2000122
1527.286192	667.0
1527.802392	666.7999878
1528.318538	671.4000244
1528.834629	666.7999878
1529.350666	670.5999756
1529.866648	666.0
1530.382575	666.0
1530.898448	667.5999756
1531.414266	669.4000244
1531.93003	667.5999756
1532.44574	666.2000122
1532.961395	666.0
1533.476995	667.4000244
1533.992541	668.2000122
1534.508033	666.5999756
1535.02347	666.0
1535.538852	664.4000244
1536.05418	668.4000244
1536.569454	666.5999756
1537.084673	667.2000122
1537.599837	667.7999878
1538.114947	668.5999756
1538.630003	669.2000122
1539.145004	668.0
1539.659951	670.2000122
1540.174843	668.7999878
1540.689681	666.5999756
1541.204465	666.0
1541.719194	667.7999878
1542.233868	668.5999756
1542.748488	667.0
1543.263054	666.5999756
1543.777565	667.5999756
1544.292022	669.7999878
1544.806424	667.2000122
1545.320772	666.4000244
1545.835066	670.2000122
1546.349305	667.0
1546.863489	668.5999756
1547.37762	667.7999878
1547.891696	670.4000244
1548.405717	667.0
1548.919684	667.5999756
1549.433597	666.7999878
1549.947455	667.0
1550.461259	664.4000244
1550.975009	668.4000244
1551.488704	666.4000244
1552.002345	670.4000244
1552.515931	669.0
1553.029463	668.0
1553.542941	667.0
1554.056364	666.5999756
1554.569733	667.5999756
1555.083048	667.7999878
1555.596308	666.7999878
1556.109514	666.4000244
1556.622665	664.7999878
1557.135762	666.4000244
1557.648805	666.4000244
1558.161794	668.2000122
1558.674728	665.0
1559.187608	670.4000244
1559.700433	665.0
1560.213205	668.5999756
1560.725921	664.5999756
1561.238584	666.2000122
1561.751192	667.7999878
1562.263746	667.0
1562.776246	668.7999878
1563.288691	669.2000122
1563.801082	668.0
1564.313419	666.0
1564.825701	667.7999878
1565.337929	668.2000122
1565.850103	669.0
1566.362223	669.2000122
1566.874288	668.0
1567.386299	669.4000244
1567.898256	668.2000122
1568.410158	670.2000122
1568.922007	666.2000122
1569.4338	667.0
1569.94554	667.7999878
1570.457226	667.5999756
1570.968857	668.0
1571.480434	667.4000244
1571.991956	667.5999756
1572.503425	666.2000122
1573.014839	667.4000244
1573.526199	663.5999756
1574.037505	664.2000122
1574.548756	668.2000122
1575.059953	668.2000122
1575.571096	666.7999878
1576.082185	668.0
1576.59322	665.7999878
1577.1042	667.2000122
1577.615126	667.2000122
1578.125998	669.2000122
1578.636816	669.5999756
1579.14758	666.0
1579.658289	668.0
1580.168944	667.0
1580.679545	670.2000122
1581.190092	666.2000122
1581.700585	666.7999878
1582.211023	668.4000244
1582.721407	666.2000122
1583.231737	667.7999878
1583.742013	668.7999878
1584.252235	667.2000122
1584.762403	666.2000122
1585.272516	666.4000244
1585.782575	667.5999756
1586.292581	667.5999756
1586.802532	665.5999756
1587.312428	664.5999756
1587.822271	667.7999878
1588.33206	666.0
1588.841794	667.2000122
1589.351474	666.5999756
1589.8611	667.5999756
1590.370672	665.2000122
1590.88019	665.4000244
1591.389654	666.0
1591.899064	667.0
1592.408419	666.2000122
