1042.452273	704.0
1043.018714	707.0
1043.585098	702.7999878
1044.151424	705.5999756
1044.717692	701.5999756
1045.283903	700.0
1045.850056	701.5999756
1046.416151	699.2000122
1046.982188	697.4000244
1047.548167	694.7999878
1048.114089	692.4000244
1048.679953	693.2000122
1049.24576	694.0
1049.811509	689.0
1050.3772	688.2000122
1050.942833	691.5999756
1051.508408	689.7999878
1052.073926	690.7999878
1052.639387	687.7999878
1053.204789	689.7999878
1053.770134	687.4000244
1054.335421	688.0
1054.900651	685.5999756
1055.465823	688.2000122
1056.030937	687.0
1056.595993	686.7999878
1057.160992	684.5999756
1057.725934	684.2000122
1058.290817	685.5999756
1058.855643	682.7999878
1059.420411	683.7999878
1059.985122	683.2000122
1060.549775	682.7999878
1061.114371	681.7999878
1061.678908	682.4000244
1062.243389	680.0
1062.807811	682.5999756
1063.372176	679.4000244
1063.936483	681.2000122
1064.500733	683.5999756
1065.064925	680.5999756
1065.62906	683.0
1066.193137	681.7999878
1066.757156	684.5999756
1067.321118	680.5999756
1067.885022	683.0
1068.448869	680.7999878
1069.012658	680.0
1069.57639	684.0
1070.140063	689.0
1070.70368	682.4000244
1071.267239	682.2000122
1071.83074	679.4000244
1072.394184	683.5999756
1072.95757	682.0
1073.520899	682.2000122
1074.08417	681.7999878
1074.647383	680.0
1075.21054	679.2000122
1075.773638	678.7999878
1076.336679	683.0
1076.899663	681.2000122
1077.462589	683.7999878
1078.025457	680.0
1078.588268	683.2000122
1079.151022	680.4000244
1079.713718	680.5999756
1080.276356	677.2000122
1080.838937	681.0
1081.401461	680.7999878
1081.963927	679.7999878
1082.526336	683.0
1083.088687	683.2000122
1083.650981	682.4000244
1084.213217	678.4000244
1084.775396	681.0
1085.337517	680.0
1085.899581	680.2000122
1086.461587	680.7999878
1087.023536	681.4000244
1087.585428	677.5999756
1088.147262	679.5999756
1088.709039	683.0
1089.270758	680.2000122
1089.83242	676.2000122
1090.394024	680.7999878
1090.955571	678.4000244
1091.517061	681.2000122
1092.078493	680.5999756
1092.639868	678.0
1093.201185	679.7999878
1093.762445	681.5999756
1094.323648	678.0
1094.884793	680.7999878
1095.445881	680.5999756
1096.006911	678.0
1096.567884	678.7999878
1097.1288	686.5999756
1097.689659	678.7999878
1098.25046	679.4000244
1098.811203	677.2000122
1099.37189	678.4000244
1099.932518	678.5999756
1100.49309	678.2000122
1101.053604	677.7999878
1101.614061	678.7999878
1102.174461	680.4000244
1102.734803	676.7999878
1103.295088	682.4000244
1103.855316	680.4000244
1104.415486	675.4000244
1104.975599	680.0
1105.535655	680.0
1106.095653	681.0
1106.655594	681.7999878
1107.215478	678.2000122
1107.775305	677.0
1108.335074	680.7999878
1108.894786	681.2000122
1109.45444	676.7999878
1110.014038	683.5999756
1110.573578	681.2000122
1111.133061	683.2000122
1111.692486	682.5999756
1112.251854	682.7999878
1112.811165	678.0
1113.370419	680.2000122
1113.929616	682.4000244
1114.488755	678.4000244
1115.047837	679.7999878
1115.606862	679.0
1116.16583	681.4000244
1116.72474	681.2000122
1117.283593	681.2000122
1117.842389	677.4000244
1118.401128	677.4000244
1118.959809	680.0
1119.518433	679.0
1120.077	680.7999878
1120.63551	680.7999878
1121.193963	677.2000122
1121.752358	679.4000244
1122.310697	676.4000244
1122.868978	675.7999878
1123.427202	683.5999756
1123.985368	677.5999756
1124.543478	678.5999756
1125.10153	675.2000122
1125.659526	677.7999878
1126.217464	679.4000244
1126.775345	680.5999756
1127.333168	677.0
1127.890935	679.4000244
1128.448644	678.5999756
1129.006297	679.7999878
1129.563892	676.7999878
1130.12143	682.0
1130.678911	676.7999878
1131.236335	680.4000244
1131.793701	675.7999878
1132.351011	679.5999756
1132.908263	677.4000244
1133.465458	678.7999878
1134.022597	677.2000122
1134.579678	677.4000244
1135.136702	676.5999756
1135.693669	678.5999756
1136.250578	676.7999878
1136.807431	678.0
1137.364227	675.4000244
1137.920965	675.5999756
1138.477647	674.0
1139.034271	675.0
1139.590839	678.2000122
1140.147349	679.4000244
1140.703802	677.0
1141.260198	678.2000122
1141.816537	677.7999878
1142.37282	678.2000122
1142.929045	681.2000122
1143.485213	674.2000122
1144.041323	679.5999756
1144.597377	679.4000244
1145.153374	682.4000244
1145.709314	676.5999756
1146.265197	678.0
1146.821023	675.2000122
1147.376792	679.0
1147.932503	676.2000122
1148.488158	679.5999756
1149.043756	678.0
1149.599297	674.4000244
1150.154781	678.2000122
1150.710207	679.4000244
1151.265577	678.7999878
1151.82089	676.7999878
1152.376146	680.2000122
1152.931345	679.2000122
1153.486487	677.4000244
1154.041572	677.2000122
1154.5966	678.4000244
1155.151571	678.7999878
1155.706485	677.4000244
1156.261342	677.5999756
1156.816142	676.7999878
1157.370885	678.4000244
1157.925572	676.0
1158.480201	678.2000122
1159.034774	674.7999878
1159.589289	679.4000244
1160.143748	677.5999756
1160.698149	676.4000244
1161.252494	676.4000244
1161.806782	676.4000244
1162.361013	677.2000122
1162.915187	680.0
1163.469304	677.0
1164.023364	679.4000244
1164.577368	677.4000244
1165.131314	677.4000244
1165.685204	676.7999878
1166.239036	678.2000122
1166.792812	679.7999878
1167.346531	678.4000244
1167.900193	676.7999878
1168.453798	677.7999878
1169.007347	678.2000122
1169.560838	676.0
1170.114273	676.0
1170.66765	677.2000122
1171.220971	678.0
1171.774235	675.4000244
1172.327443	679.5999756
1172.880593	676.5999756
1173.433687	677.5999756
1173.986723	675.5999756
1174.539703	679.7999878
1175.092626	679.7999878
1175.645493	677.7999878
1176.198302	677.0
1176.751055	678.5999756
1177.303751	677.4000244
1177.85639	677.5999756
1178.408972	679.5999756
1178.961498	676.4000244
1179.513966	675.5999756
1180.066378	675.5999756
1180.618733	679.0
1181.171032	680.2000122
1181.723273	679.5999756
1182.275458	680.7999878
1182.827586	676.7999878
1183.379657	674.2000122
1183.931672	679.7999878
1184.48363	678.5999756
1185.035531	680.4000244
1185.587375	677.0
1186.139162	679.4000244
1186.690893	679.5999756
1187.242567	680.7999878
1187.794184	679.0
1188.345745	676.5999756
1188.897249	678.5999756
1189.448696	676.5999756
1190.000086	678.7999878
1190.55142	676.4000244
1191.102697	677.2000122
1191.653918	679.0
1192.205081	677.7999878
1192.756188	679.5999756
1193.307238	698.2000122
1193.858232	675.4000244
1194.409169	678.5999756
1194.960049	678.7999878
1195.510872	680.0
1196.061639	678.2000122
1196.612349	679.0
1197.163003	677.0
1197.713599	675.0
1198.264139	677.5999756
1198.814623	674.0
1199.36505	675.7999878
1199.91542	678.5999756
1200.465734	677.4000244
1201.01599	678.4000244
1201.566191	677.2000122
1202.116334	675.2000122
1202.666421	677.4000244
1203.216452	678.5999756
1203.766425	675.0
1204.316343	679.7999878
1204.866203	678.4000244
1205.416007	679.0
1205.965754	678.7999878
1206.515445	677.5999756
1207.065079	678.5999756
1207.614657	679.7999878
1208.164177	676.2000122
1208.713642	676.2000122
1209.26305	681.4000244
1209.812401	679.2000122
1210.361695	676.0
1210.910933	676.4000244
1211.460115	677.7999878
1212.00924	673.5999756
1212.558308	678.5999756
1213.10732	678.4000244
1213.656275	677.2000122
1214.205174	677.5999756
1214.754016	678.4000244
1215.302801	676.7999878
1215.85153	675.4000244
1216.400203	677.2000122
1216.948819	678.4000244
1217.497378	678.7999878
1218.045881	676.0
1218.594327	679.7999878
1219.142717	679.2000122
1219.691051	678.2000122
1220.239327	679.2000122
1220.787548	675.5999756
1221.335712	680.5999756
1221.883819	680.5999756
1222.43187	679.2000122
1222.979864	676.7999878
1223.527802	674.7999878
1224.075683	678.2000122
1224.623508	678.2000122
1225.171277	678.0
1225.718989	676.7999878
1226.266644	678.5999756
1226.814243	678.0
1227.361786	672.5999756
1227.909272	677.7999878
1228.456702	679.0
1229.004075	679.5999756
1229.551392	680.2000122
1230.098652	681.0
1230.645856	679.5999756
1231.193003	678.5999756
1231.740094	682.4000244
1232.287129	676.2000122
1232.834107	680.4000244
1233.381029	677.7999878
1233.927894	677.2000122
1234.474703	672.4000244
1235.021455	677.4000244
1235.568151	677.4000244
1236.114791	680.0
1236.661374	678.2000122
1237.207901	678.4000244
1237.754372	674.2000122
1238.300786	677.5999756
1238.847144	676.7999878
1239.393445	679.2000122
1239.93969	678.0
1240.485879	676.7999878
1241.032011	680.0
1241.578087	677.7999878
1242.124106	675.5999756
1242.67007	676.2000122
1243.215976	679.2000122
1243.761827	677.5999756
1244.307621	673.2000122
1244.853359	682.0
1245.39904	679.0
1245.944665	676.4000244
1246.490234	678.4000244
1247.035746	679.7999878
1247.581203	679.2000122
1248.126602	677.5999756
1248.671946	677.4000244
1249.217233	677.4000244
1249.762464	674.7999878
1250.307638	675.0
1250.852757	675.5999756
1251.397819	676.5999756
1251.942824	675.5999756
1252.487774	677.2000122
1253.032667	676.2000122
1253.577503	676.2000122
1254.122284	676.5999756
1254.667008	678.7999878
1255.211676	673.2000122
1255.756288	675.4000244
1256.300843	678.5999756
1256.845342	677.5999756
1257.389785	677.0
1257.934172	675.4000244
1258.478502	674.5999756
1259.022776	677.5999756
1259.566994	677.2000122
1260.111156	690.4000244
1260.655261	677.2000122
1261.199311	676.5999756
1261.743304	677.0
1262.28724	676.2000122
1262.831121	677.2000122
1263.374945	678.4000244
1263.918713	677.0
1264.462425	675.0
1265.006081	676.4000244
1265.54968	675.7999878
1266.093223	679.5999756
1266.636711	678.7999878
1267.180141	677.5999756
1267.723516	676.5999756
1268.266835	677.0
1268.810097	672.7999878
1269.353303	674.7999878
1269.896453	676.7999878
1270.439547	677.4000244
1270.982584	673.5999756
1271.525566	677.7999878
1272.068491	675.2000122
1272.61136	675.2000122
1273.154173	677.2000122
1273.69693	677.5999756
1274.239631	676.7999878
1274.782275	673.4000244
1275.324864	676.4000244
1275.867396	675.4000244
1276.409872	677.2000122
1276.952292	676.4000244
1277.494656	675.5999756
1278.036964	677.5999756
1278.579215	677.4000244
1279.121411	675.7999878
1279.66355	677.4000244
1280.205634	678.2000122
1280.747661	676.2000122
1281.289632	677.7999878
1281.831547	676.2000122
1282.373406	677.5999756
1282.915209	674.2000122
1283.456955	677.2000122
1283.998646	678.0
1284.540281	675.2000122
1285.081859	673.5999756
1285.623381	682.7999878
1286.164848	718.0
1286.706258	720.2000122
1287.247612	684.2000122
1287.788911	676.2000122
1288.330153	676.2000122
1288.871339	679.5999756
1289.412469	675.0
1289.953543	676.7999878
1290.494561	676.7999878
1291.035523	676.0
1291.576428	675.4000244
1292.117278	681.2000122
1292.658072	677.2000122
1293.19881	675.5999756
1293.739492	679.4000244
1294.280118	674.7999878
1294.820687	676.4000244
1295.361201	679.0
1295.901659	672.4000244
1296.442061	674.7999878
1296.982406	676.5999756
1297.522696	677.4000244
1298.06293	676.0
1298.603108	674.7999878
1299.143229	674.0
1299.683295	675.2000122
1300.223305	678.0
1300.763259	673.7999878
1301.303157	672.7999878
1301.842999	674.2000122
1302.382785	675.0
1302.922515	673.5999756
1303.462189	675.2000122
1304.001807	676.4000244
1304.541369	675.5999756
1305.080875	673.4000244
1305.620326	677.2000122
1306.15972	678.0
1306.699058	676.4000244
1307.238341	676.5999756
1307.777567	679.5999756
1308.316738	677.5999756
1308.855853	676.4000244
1309.394912	674.0
1309.933915	677.7999878
1310.472862	675.0
1311.011753	678.7999878
1311.550588	678.4000244
1312.089367	677.5999756
1312.62809	675.7999878
1313.166758	674.7999878
1313.70537	673.4000244
1314.243925	674.7999878
1314.782425	676.0
1315.320869	677.7999878
1315.859257	676.0
1316.397589	675.2000122
1316.935866	674.0
1317.474086	673.7999878
1318.012251	675.2000122
1318.55036	676.4000244
1319.088413	676.5999756
1319.62641	675.0
1320.164351	677.4000244
1320.702236	677.0
1321.240066	672.5999756
1321.777839	676.7999878
1322.315557	675.7999878
1322.853219	677.0
1323.390826	673.4000244
1323.928376	682.5999756
1324.465871	674.0
1325.003309	674.2000122
1325.540692	675.2000122
1326.07802	677.5999756
1326.615291	674.2000122
1327.152506	675.4000244
1327.689666	673.0
1328.22677	677.5999756
1328.763818	674.4000244
1329.300811	676.7999878
1329.837747	677.7999878
1330.374628	674.2000122
1330.911453	675.5999756
1331.448222	675.2000122
1331.984936	676.5999756
1332.521594	675.7999878
1333.058196	677.0
1333.594742	674.5999756
1334.131232	675.7999878
1334.667667	677.4000244
1335.204046	676.2000122
1335.740369	673.5999756
1336.276637	676.0
1336.812848	677.2000122
1337.349004	674.7999878
1337.885105	673.2000122
1338.421149	677.4000244
1338.957138	674.0
1339.493071	679.0
1340.028949	676.0
1340.56477	676.7999878
1341.100536	678.4000244
1341.636246	675.7999878
1342.171901	676.5999756
1342.7075	676.4000244
1343.243043	678.0
1343.77853	672.2000122
1344.313962	677.2000122
1344.849338	676.5999756
1345.384659	679.5999756
1345.919923	676.7999878
1346.455133	678.4000244
1346.990286	675.5999756
1347.525384	676.5999756
1348.060426	676.2000122
1348.595412	680.5999756
1349.130343	676.2000122
1349.665218	672.4000244
1350.200037	675.5999756
1350.734801	675.4000244
1351.269509	678.5999756
1351.804162	674.2000122
1352.338758	675.4000244
1352.8733	678.2000122
1353.407785	676.0
1353.942215	674.2000122
1354.476589	674.2000122
1355.010908	675.2000122
1355.545171	676.5999756
1356.079379	677.2000122
1356.61353	675.5999756
1357.147627	676.0
1357.681667	675.2000122
1358.215652	674.7999878
1358.749582	676.7999878
1359.283456	672.5999756
1359.817274	675.2000122
1360.351037	675.2000122
1360.884744	678.5999756
1361.418395	674.5999756
1361.951991	677.5999756
1362.485531	678.7999878
1363.019016	672.5999756
1363.552445	674.5999756
1364.085819	678.0
1364.619137	677.5999756
1365.1524	673.2000122
1365.685607	672.0
1366.218758	678.2000122
1366.751854	677.0
1367.284894	677.4000244
1367.817879	678.0
1368.350808	676.7999878
1368.883682	676.0
1369.4165	676.0
1369.949263	677.0
1370.48197	675.4000244
1371.014622	677.5999756
1371.547218	676.2000122
1372.079758	677.0
1372.612244	672.2000122
1373.144673	676.4000244
1373.677047	675.7999878
1374.209366	676.0
1374.741629	677.5999756
1375.273836	675.0
1375.805989	675.4000244
1376.338085	678.4000244
1376.870126	676.5999756
1377.402112	675.0
1377.934042	674.5999756
1378.465917	674.5999756
1378.997736	674.0
1379.5295	676.0
1380.061208	675.7999878
1380.592861	675.4000244
1381.124459	671.0
1381.656	676.2000122
1382.187487	676.7999878
1382.718918	675.7999878
1383.250294	674.0
1383.781614	676.0
1384.312879	677.5999756
1384.844088	679.0
1385.375242	673.7999878
1385.90634	674.0
1386.437383	674.7999878
1386.968371	680.0
1387.499303	676.5999756
1388.03018	676.7999878
1388.561001	678.0
1389.091767	716.0
1389.622478	750.4000244
1390.153133	689.5999756
1390.683733	680.4000244
1391.214277	675.5999756
1391.744766	675.0
1392.2752	675.5999756
1392.805578	675.5999756
1393.335901	673.5999756
1393.866168	675.4000244
1394.396381	673.4000244
1394.926537	676.5999756
1395.456639	675.7999878
1395.986685	675.2000122
1396.516675	674.7999878
1397.046611	675.7999878
1397.576491	676.2000122
1398.106315	673.2000122
1398.636084	675.4000244
1399.165798	670.7999878
1399.695457	672.7999878
1400.22506	674.7999878
1400.754608	674.2000122
1401.284101	675.4000244
1401.813538	675.4000244
1402.34292	677.7999878
1402.872247	671.7999878
1403.401518	675.2000122
1403.930734	678.0
1404.459895	675.4000244
1405.51805	675.7999878
1406.047045	674.5999756
1406.575984	674.2000122
1407.104869	677.2000122
1407.633697	676.2000122
1408.162471	675.0
1408.691189	674.7999878
1409.219852	673.2000122
1409.74846	678.5999756
1410.277013	678.2000122
1410.80551	684.0
1411.333952	675.7999878
1411.862339	674.7999878
1412.39067	677.2000122
1412.918946	675.7999878
1413.447167	676.0
1413.975333	676.4000244
1414.503444	677.2000122
1415.031499	673.7999878
1415.559499	687.4000244
1416.087444	672.2000122
1416.615333	673.2000122
1417.143167	674.7999878
1417.670947	676.2000122
1418.19867	675.2000122
1418.726339	671.5999756
1419.253952	674.0
1419.781511	673.0
1420.309014	674.2000122
1420.836461	676.4000244
1421.363854	673.4000244
1421.891191	676.5999756
1422.418474	676.0
1422.945701	673.7999878
1423.472872	673.2000122
1423.999989	676.4000244
1424.52705	673.7999878
1425.054057	676.4000244
1425.581008	680.0
1426.107904	675.7999878
1426.634745	675.7999878
1427.16153	676.4000244
1427.688261	675.5999756
1428.214936	676.2000122
1428.741556	675.2000122
1429.268121	677.2000122
1429.794631	675.7999878
1430.321085	676.4000244
1430.847485	676.7999878
1431.373829	677.4000244
1431.900118	677.0
1432.426353	675.7999878
1432.952532	674.0
1433.478655	673.7999878
1434.004724	676.0
1434.530738	675.5999756
1435.056696	678.7999878
1435.5826	677.0
1436.108448	677.5999756
1436.634241	674.7999878
1437.159979	676.5999756
1437.685662	675.0
1438.21129	674.5999756
1438.736863	677.4000244
1439.262381	676.7999878
1439.787843	674.2000122
1440.313251	677.7999878
1440.838603	673.7999878
1441.3639	674.0
1441.889143	674.7999878
1442.41433	678.2000122
1442.939462	674.7999878
1443.464539	678.5999756
1443.989561	674.0
1444.514528	674.7999878
1445.03944	676.0
1445.564297	674.7999878
1446.089099	675.4000244
1446.613846	678.4000244
1447.138537	675.5999756
1447.663174	674.5999756
1448.187756	673.4000244
1448.712282	673.2000122
1449.236754	674.5999756
1449.761171	676.4000244
1450.285532	673.7999878
1450.809839	674.2000122
1451.33409	674.2000122
1451.858287	675.0
1452.382428	674.7999878
1452.906515	675.5999756
1453.430546	679.5999756
1453.954523	674.0
1454.478444	678.5999756
1455.002311	677.0
1455.526123	677.7999878
1456.049879	675.5999756
1456.573581	674.4000244
1457.097227	678.7999878
1457.620819	674.5999756
1458.144356	673.7999878
1458.667837	674.2000122
1459.191264	673.4000244
1459.714636	677.0
1460.237952	674.4000244
1460.761214	673.2000122
1461.284421	678.4000244
1461.807573	676.0
1462.33067	673.5999756
1462.853712	679.5999756
1463.376699	681.2000122
1463.899632	676.5999756
1464.422509	674.5999756
1464.945331	673.4000244
1465.468099	675.0
1465.990811	674.2000122
1466.513469	675.7999878
1467.036071	674.4000244
1467.558619	677.4000244
1468.081112	674.0
1468.60355	672.2000122
1469.125933	676.0
1469.648261	675.0
1470.170534	679.0
1470.692752	673.5999756
1471.214916	673.7999878
1471.737024	674.4000244
1472.259078	674.4000244
1472.781077	674.0
1473.303021	674.0
1473.82491	675.4000244
1474.346744	673.5999756
1474.868523	675.2000122
1475.390248	673.7999878
1475.911917	674.2000122
1476.433532	673.5999756
1476.955092	673.7999878
1477.476597	676.7999878
1477.998047	671.7999878
1478.519442	673.4000244
1479.040783	673.7999878
1479.562068	676.0
1480.083299	675.2000122
1480.604475	672.0
1481.125596	675.7999878
1481.646663	675.0
1482.167674	676.5999756
1482.688631	672.4000244
1483.209533	672.2000122
1483.73038	676.0
1484.251172	674.2000122
1484.771909	674.7999878
1485.292592	672.2000122
1485.81322	675.4000244
1486.333793	675.4000244
1486.854311	673.2000122
1487.374775	675.2000122
1487.895183	674.7999878
1488.415537	673.7999878
1488.935836	672.0
1489.456081	673.2000122
1489.97627	675.2000122
1490.496405	675.7999878
1491.016485	673.0
1491.536511	672.0
1492.056481	674.2000122
1492.576397	670.4000244
1493.096258	675.2000122
1493.616064	673.5999756
1494.135816	675.5999756
1494.655513	674.4000244
1495.175155	672.7999878
1495.694742	671.0
1496.214274	671.4000244
1496.733752	674.7999878
1497.253175	674.7999878
1497.772544	673.7999878
1498.291858	673.5999756
1498.811116	674.2000122
1499.330321	672.7999878
1499.84947	681.7999878
1500.368565	673.7999878
1500.887605	673.0
1501.406591	674.7999878
1501.925521	675.5999756
1502.444397	673.0
1502.963219	673.0
1503.481985	674.4000244
1504.000697	672.5999756
1504.519355	670.7999878
1505.037957	674.7999878
1505.556505	673.7999878
1506.074999	676.0
1506.593437	675.0
1507.111821	671.2000122
1507.63015	673.2000122
1508.148425	675.7999878
1508.666645	673.7999878
1509.18481	671.5999756
1509.702921	672.5999756
1510.220977	674.2000122
1510.738979	682.4000244
1511.256925	676.0
1511.774817	674.2000122
1512.292655	672.5999756
1512.810438	673.5999756
1513.328166	673.7999878
1513.84584	673.7999878
1514.363459	674.0
1514.881023	672.2000122
1515.398533	672.0
1515.915988	671.5999756
1516.433389	675.2000122
1516.950734	671.7999878
1517.468026	675.0
1517.985263	673.7999878
1518.502445	671.4000244
1519.019572	674.0
1519.536645	674.2000122
1520.053664	672.5999756
1520.570628	676.0
1521.087537	672.7999878
1521.604392	672.0
1522.121192	673.2000122
1522.637937	671.0
1523.154628	673.7999878
1523.671265	673.0
1524.187847	674.5999756
1524.704374	671.7999878
1525.220847	674.7999878
1525.737265	677.2000122
1526.253629	677.4000244
1526.769938	677.4000244
1527.286192	673.5999756
1527.802392	675.4000244
1528.318538	674.7999878
1528.834629	671.5999756
1529.350666	673.4000244
1529.866648	676.5999756
1530.382575	674.2000122
1530.898448	673.2000122
1531.414266	673.2000122
1531.93003	675.0
1532.44574	673.7999878
1532.961395	673.0
1533.476995	674.4000244
1533.992541	675.4000244
1534.508033	671.5999756
1535.02347	673.7999878
1535.538852	673.2000122
1536.05418	670.7999878
1536.569454	675.7999878
1537.084673	670.4000244
1537.599837	672.7999878
1538.114947	671.4000244
1538.630003	671.5999756
1539.145004	673.5999756
1539.659951	675.2000122
1540.174843	673.5999756
1540.689681	673.5999756
1541.204465	674.7999878
1541.719194	674.0
1542.233868	675.5999756
1542.748488	673.0
1543.263054	674.4000244
1543.777565	670.2000122
1544.292022	674.5999756
1544.806424	673.5999756
1545.320772	672.4000244
1545.835066	672.5999756
1546.349305	675.5999756
1546.863489	670.5999756
1547.37762	674.5999756
1547.891696	670.4000244
1548.405717	674.7999878
1548.919684	673.7999878
1549.433597	673.7999878
1549.947455	675.0
1550.461259	675.4000244
1550.975009	671.5999756
1551.488704	674.0
1552.002345	675.7999878
1552.515931	673.5999756
1553.029463	670.4000244
1553.542941	673.2000122
1554.056364	673.5999756
1554.569733	672.4000244
1555.083048	673.2000122
1555.596308	674.4000244
1556.109514	675.0
1556.622665	676.5999756
1557.135762	675.7999878
1557.648805	673.2000122
1558.161794	673.5999756
1558.674728	675.7999878
1559.187608	672.7999878
1559.700433	672.4000244
1560.213205	673.4000244
1560.725921	672.4000244
1561.238584	671.7999878
1561.751192	674.4000244
1562.263746	676.7999878
1562.776246	673.5999756
1563.288691	672.0
1563.801082	676.4000244
1564.313419	673.7999878
1564.825701	672.7999878
1565.337929	673.5999756
1565.850103	672.5999756
1566.362223	672.5999756
1566.874288	675.0
1567.386299	672.2000122
1567.898256	673.0
1568.410158	672.4000244
1568.922007	675.4000244
1569.4338	675.2000122
1569.94554	676.0
1570.457226	673.2000122
1570.968857	672.5999756
1571.480434	674.2000122
1571.991956	673.5999756
1572.503425	672.7999878
1573.014839	672.5999756
1573.526199	675.0
1574.037505	673.2000122
1574.548756	673.5999756
1575.059953	673.2000122
1575.571096	673.2000122
1576.082185	674.5999756
1576.59322	676.7999878
1577.1042	671.4000244
1577.615126	672.2000122
1578.125998	669.5999756
1578.636816	672.2000122
1579.14758	673.0
1579.658289	674.0
1580.168944	671.7999878
1580.679545	676.0
1581.190092	671.7999878
1581.700585	675.0
1582.211023	675.4000244
1582.721407	675.0
1583.231737	673.0
1583.742013	674.2000122
1584.252235	672.5999756
1584.762403	673.7999878
1585.272516	675.2000122
1585.782575	672.5999756
1586.292581	671.0
1586.802532	675.4000244
1587.312428	671.4000244
1587.822271	674.4000244
1588.33206	674.0
1588.841794	672.2000122
1589.351474	676.5999756
1589.8611	672.2000122
1590.370672	675.5999756
1590.88019	672.7999878
1591.389654	673.2000122
1591.899064	673.0
1592.408419	672.5999756
