1042.452273	690.7999878
1043.018714	689.0
1043.585098	685.2000122
1044.151424	688.2000122
1044.717692	688.2000122
1045.283903	686.4000244
1045.850056	685.7999878
1046.416151	682.7999878
1046.982188	690.4000244
1047.548167	680.7999878
1048.114089	679.7999878
1048.679953	679.4000244
1049.24576	683.7999878
1049.811509	680.7999878
1050.3772	681.2000122
1050.942833	686.5999756
1051.508408	681.0
1052.073926	681.2000122
1052.639387	678.4000244
1053.204789	682.2000122
1053.770134	678.5999756
1054.335421	681.5999756
1054.900651	680.0
1055.465823	679.0
1056.030937	677.4000244
1056.595993	679.4000244
1057.160992	677.4000244
1057.725934	679.5999756
1058.290817	677.2000122
1058.855643	676.5999756
1059.420411	674.4000244
1059.985122	680.4000244
1060.549775	679.5999756
1061.114371	676.7999878
1061.678908	677.7999878
1062.243389	678.7999878
1062.807811	679.5999756
1063.372176	677.2000122
1063.936483	677.5999756
1064.500733	678.0
1065.064925	678.2000122
1065.62906	679.4000244
1066.193137	676.7999878
1066.757156	674.5999756
1067.321118	677.7999878
1067.885022	675.0
1068.448869	677.5999756
1069.012658	677.7999878
1069.57639	676.2000122
1070.140063	685.7999878
1070.70368	674.2000122
1071.267239	676.5999756
1071.83074	673.0
1072.394184	674.7999878
1072.95757	677.4000244
1073.520899	678.7999878
1074.08417	679.2000122
1074.647383	678.5999756
1075.21054	678.2000122
1075.773638	678.5999756
1076.336679	676.5999756
1076.899663	679.4000244
1077.462589	675.5999756
1078.025457	677.4000244
1078.588268	677.4000244
1079.151022	678.7999878
1079.713718	677.4000244
1080.276356	680.0
1080.838937	683.4000244
1081.401461	678.0
1081.963927	680.4000244
1082.526336	682.2000122
1083.088687	677.7999878
1083.650981	682.0
1084.213217	683.2000122
1084.775396	680.0
1085.337517	681.2000122
1085.899581	685.4000244
1086.461587	683.7999878
1087.023536	685.4000244
1087.585428	686.0
1088.147262	689.5999756
1088.709039	687.5999756
1089.270758	689.0
1089.83242	688.5999756
1090.394024	689.2000122
1090.955571	691.5999756
1091.517061	693.7999878
1092.078493	692.7999878
1092.639868	697.2000122
1093.201185	693.7999878
1093.762445	695.5999756
1094.323648	694.7999878
1094.884793	690.0
1095.445881	694.4000244
1096.006911	691.0
1096.567884	691.7999878
1097.1288	695.4000244
1097.689659	688.4000244
1098.25046	684.5999756
1098.811203	686.0
1099.37189	686.5999756
1099.932518	686.2000122
1100.49309	687.2000122
1101.053604	682.0
1101.614061	682.4000244
1102.174461	681.4000244
1102.734803	682.0
1103.295088	681.7999878
1103.855316	679.7999878
1104.415486	680.4000244
1104.975599	678.5999756
1105.535655	679.5999756
1106.095653	680.0
1106.655594	677.2000122
1107.215478	678.5999756
1107.775305	678.0
1108.335074	675.2000122
1108.894786	676.7999878
1109.45444	681.4000244
1110.014038	677.2000122
1110.573578	677.7999878
1111.133061	681.5999756
1111.692486	675.0
1112.251854	676.5999756
1112.811165	677.0
1113.370419	680.5999756
1113.929616	675.0
1114.488755	675.4000244
1115.047837	677.5999756
1115.606862	675.2000122
1116.16583	676.7999878
1116.72474	676.4000244
1117.283593	680.0
1117.842389	676.5999756
1118.401128	675.2000122
1118.959809	673.5999756
1119.518433	672.7999878
1120.077	676.0
1120.63551	675.0
1121.193963	676.0
1121.752358	675.7999878
1122.310697	675.0
1122.868978	674.5999756
1123.427202	673.5999756
1123.985368	675.2000122
1124.543478	674.5999756
1125.10153	673.0
1125.659526	675.5999756
1126.217464	674.0
1126.775345	674.2000122
1127.333168	673.7999878
1127.890935	678.4000244
1128.448644	674.4000244
1129.006297	675.5999756
1129.563892	674.5999756
1130.12143	676.4000244
1130.678911	672.5999756
1131.236335	675.4000244
1131.793701	675.5999756
1132.351011	674.0
1132.908263	673.7999878
1133.465458	676.0
1134.022597	674.5999756
1134.579678	673.4000244
1135.136702	679.2000122
1135.693669	672.2000122
1136.250578	675.4000244
1136.807431	675.2000122
1137.364227	676.7999878
1137.920965	674.0
1138.477647	675.0
1139.034271	674.5999756
1139.590839	675.7999878
1140.147349	672.7999878
1140.703802	670.2000122
1141.260198	673.2000122
1141.816537	673.4000244
1142.37282	673.0
1142.929045	676.7999878
1143.485213	675.0
1144.041323	671.2000122
1144.597377	674.5999756
1145.153374	672.2000122
1145.709314	674.4000244
1146.265197	673.2000122
1146.821023	672.4000244
1147.376792	673.5999756
1147.932503	673.4000244
1148.488158	672.7999878
1149.043756	676.5999756
1149.599297	673.7999878
1150.154781	672.0
1150.710207	673.7999878
1151.265577	673.0
1151.82089	672.2000122
1152.376146	674.2000122
1152.931345	673.5999756
1153.486487	673.0
1154.041572	672.7999878
1154.5966	675.0
1155.151571	675.7999878
1155.706485	675.2000122
1156.261342	674.4000244
1156.816142	674.7999878
1157.370885	677.2000122
1157.925572	673.5999756
1158.480201	675.0
1159.034774	673.0
1159.589289	678.0
1160.143748	675.0
1160.698149	672.7999878
1161.252494	675.4000244
1161.806782	678.0
1162.361013	674.2000122
1162.915187	674.4000244
1163.469304	673.0
1164.023364	676.0
1164.577368	674.0
1165.131314	673.4000244
1165.685204	673.5999756
1166.239036	676.0
1166.792812	671.5999756
1167.346531	674.2000122
1167.900193	674.0
1168.453798	674.4000244
1169.007347	674.5999756
1169.560838	674.5999756
1170.114273	673.2000122
1170.66765	674.4000244
1171.220971	676.4000244
1171.774235	676.7999878
1172.327443	673.2000122
1172.880593	675.5999756
1173.433687	673.0
1173.986723	672.7999878
1174.539703	674.5999756
1175.092626	675.0
1175.645493	671.5999756
1176.198302	675.4000244
1176.751055	674.4000244
1177.303751	676.0
1177.85639	674.7999878
1178.408972	678.0
1178.961498	673.7999878
1179.513966	676.4000244
1180.066378	674.4000244
1180.618733	674.0
1181.171032	672.5999756
1181.723273	675.5999756
1182.275458	674.2000122
1182.827586	673.5999756
1183.379657	673.4000244
1183.931672	675.2000122
1184.48363	674.2000122
1185.035531	676.4000244
1185.587375	675.0
1186.139162	673.7999878
1186.690893	675.2000122
1187.242567	673.4000244
1187.794184	673.0
1188.345745	676.4000244
1188.897249	678.7999878
1189.448696	674.0
1190.000086	674.4000244
1190.55142	673.5999756
1191.102697	669.4000244
1191.653918	675.5999756
1192.205081	675.2000122
1192.756188	677.0
1193.307238	696.4000244
1193.858232	674.4000244
1194.409169	672.2000122
1194.960049	673.7999878
1195.510872	676.4000244
1196.061639	672.2000122
1196.612349	675.7999878
1197.163003	673.7999878
1197.713599	673.4000244
1198.264139	678.5999756
1198.814623	673.0
1199.36505	674.2000122
1199.91542	676.7999878
1200.465734	673.2000122
1201.01599	674.5999756
1201.566191	674.2000122
1202.116334	675.5999756
1202.666421	674.5999756
1203.216452	675.2000122
1203.766425	670.7999878
1204.316343	675.2000122
1204.866203	676.0
1205.416007	674.0
1205.965754	673.5999756
1206.515445	674.5999756
1207.065079	674.0
1207.614657	673.7999878
1208.164177	674.5999756
1208.713642	677.0
1209.26305	676.5999756
1209.812401	675.0
1210.361695	676.0
1210.910933	672.5999756
1211.460115	676.4000244
1212.00924	673.7999878
1212.558308	673.5999756
1213.10732	676.5999756
1213.656275	675.5999756
1214.205174	675.4000244
1214.754016	672.7999878
1215.302801	672.2000122
1215.85153	673.0
1216.400203	675.4000244
1216.948819	677.2000122
1217.497378	674.4000244
1218.045881	675.4000244
1218.594327	673.5999756
1219.142717	675.4000244
1219.691051	672.5999756
1220.239327	676.7999878
1220.787548	673.7999878
1221.335712	674.7999878
1221.883819	676.2000122
1222.43187	673.7999878
1222.979864	676.7999878
1223.527802	675.0
1224.075683	674.5999756
1224.623508	674.2000122
1225.171277	675.5999756
1225.718989	678.4000244
1226.266644	675.4000244
1226.814243	675.4000244
1227.361786	674.0
1227.909272	677.7999878
1228.456702	678.5999756
1229.004075	676.2000122
1229.551392	675.5999756
1230.098652	675.5999756
1230.645856	677.4000244
1231.193003	675.4000244
1231.740094	677.4000244
1232.287129	675.5999756
1232.834107	677.0
1233.381029	676.7999878
1233.927894	677.0
1234.474703	677.4000244
1235.021455	675.7999878
1235.568151	673.7999878
1236.114791	677.5999756
1236.661374	676.4000244
1237.207901	675.4000244
1237.754372	672.7999878
1238.300786	676.7999878
1238.847144	677.4000244
1239.393445	678.4000244
1239.93969	676.7999878
1240.485879	676.5999756
1241.032011	673.5999756
1241.578087	676.2000122
1242.124106	676.5999756
1242.67007	679.4000244
1243.215976	680.2000122
1243.761827	674.7999878
1244.307621	682.0
1244.853359	680.0
1245.39904	676.0
1245.944665	674.2000122
1246.490234	675.2000122
1247.035746	677.5999756
1247.581203	680.0
1248.126602	678.5999756
1248.671946	679.4000244
1249.217233	677.4000244
1249.762464	677.2000122
1250.307638	678.4000244
1250.852757	680.2000122
1251.397819	678.4000244
1251.942824	677.0
1252.487774	677.5999756
1253.032667	680.0
1253.577503	678.7999878
1254.122284	676.7999878
1254.667008	679.2000122
1255.211676	675.4000244
1255.756288	681.4000244
1256.300843	677.5999756
1256.845342	676.4000244
1257.389785	678.7999878
1257.934172	676.7999878
1258.478502	679.4000244
1259.022776	679.2000122
1259.566994	680.2000122
1260.111156	693.2000122
1260.655261	678.0
1261.199311	678.2000122
1261.743304	680.7999878
1262.28724	682.0
1262.831121	685.7999878
1263.374945	686.5999756
1263.918713	690.7999878
1264.462425	695.7999878
1265.006081	697.0
1265.54968	688.2000122
1266.093223	683.2000122
1266.636711	681.4000244
1267.180141	679.7999878
1267.723516	678.5999756
1268.266835	679.0
1268.810097	678.2000122
1269.353303	677.5999756
1269.896453	677.7999878
1270.439547	677.0
1270.982584	677.5999756
1271.525566	677.2000122
1272.068491	677.2000122
1272.61136	676.7999878
1273.154173	680.0
1273.69693	677.0
1274.239631	681.2000122
1274.782275	680.4000244
1275.324864	679.2000122
1275.867396	679.4000244
1276.409872	679.0
1276.952292	679.4000244
1277.494656	678.5999756
1278.036964	682.0
1278.579215	683.0
1279.121411	680.0
1279.66355	683.5999756
1280.205634	683.7999878
1280.747661	683.2000122
1281.289632	683.4000244
1281.831547	694.4000244
1282.373406	699.0
1282.915209	724.5999756
1283.456955	769.4000244
1283.998646	850.5999756
1284.540281	958.4000244
1285.081859	965.2000122
1285.623381	845.7999878
1286.164848	745.4000244
1286.706258	707.4000244
1287.247612	691.5999756
1287.788911	688.5999756
1288.330153	683.7999878
1288.871339	681.7999878
1289.412469	681.5999756
1289.953543	680.2000122
1290.494561	683.0
1291.035523	686.7999878
1291.576428	680.5999756
1292.117278	682.7999878
1292.658072	678.0
1293.19881	680.5999756
1293.739492	677.7999878
1294.280118	681.0
1294.820687	680.2000122
1295.361201	679.2000122
1295.901659	680.5999756
1296.442061	677.0
1296.982406	680.5999756
1297.522696	675.4000244
1298.06293	677.7999878
1298.603108	677.0
1299.143229	678.7999878
1299.683295	675.7999878
1300.223305	678.5999756
1300.763259	675.5999756
1301.303157	676.0
1301.842999	674.4000244
1302.382785	677.5999756
1302.922515	679.2000122
1303.462189	678.5999756
1304.001807	678.0
1304.541369	675.0
1305.080875	676.5999756
1305.620326	679.2000122
1306.15972	676.5999756
1306.699058	675.7999878
1307.238341	674.2000122
1307.777567	678.2000122
1308.316738	679.0
1308.855853	679.5999756
1309.394912	677.4000244
1309.933915	680.2000122
1310.472862	672.0
1311.011753	676.2000122
1311.550588	677.4000244
1312.089367	681.5999756
1312.62809	677.5999756
1313.166758	675.4000244
1313.70537	679.5999756
1314.243925	673.2000122
1314.782425	674.7999878
1315.320869	676.2000122
1315.859257	672.7999878
1316.397589	678.0
1316.935866	675.7999878
1317.474086	676.0
1318.012251	672.5999756
1318.55036	672.7999878
1319.088413	676.2000122
1319.62641	676.2000122
1320.164351	681.0
1320.702236	678.2000122
1321.240066	675.4000244
1321.777839	674.0
1322.315557	674.4000244
1322.853219	676.7999878
1323.390826	675.0
1323.928376	678.4000244
1324.465871	673.7999878
1325.003309	673.7999878
1325.540692	678.0
1326.07802	677.4000244
1326.615291	674.4000244
1327.152506	675.7999878
1327.689666	672.5999756
1328.22677	677.5999756
1328.763818	675.4000244
1329.300811	677.4000244
1329.837747	676.5999756
1330.374628	675.4000244
1330.911453	677.4000244
1331.448222	677.5999756
1331.984936	675.4000244
1332.521594	676.0
1333.058196	677.2000122
1333.594742	674.4000244
1334.131232	675.7999878
1334.667667	677.2000122
1335.204046	673.7999878
1335.740369	676.0
1336.276637	677.0
1336.812848	677.0
1337.349004	678.2000122
1337.885105	675.7999878
1338.421149	676.7999878
1338.957138	677.2000122
1339.493071	676.0
1340.028949	677.2000122
1340.56477	678.0
1341.100536	674.5999756
1341.636246	672.5999756
1342.171901	672.5999756
1342.7075	674.7999878
1343.243043	675.7999878
1343.77853	680.5999756
1344.313962	674.2000122
1344.849338	676.7999878
1345.384659	674.2000122
1345.919923	676.7999878
1346.455133	677.5999756
1346.990286	676.0
1347.525384	674.2000122
1348.060426	678.2000122
1348.595412	673.4000244
1349.130343	676.4000244
1349.665218	675.4000244
1350.200037	673.7999878
1350.734801	677.4000244
1351.269509	675.2000122
1351.804162	675.7999878
1352.338758	677.0
1352.8733	675.4000244
1353.407785	677.0
1353.942215	676.2000122
1354.476589	676.0
1355.010908	673.4000244
1355.545171	677.4000244
1356.079379	674.5999756
1356.61353	675.7999878
1357.147627	674.4000244
1357.681667	678.7999878
1358.215652	676.5999756
1358.749582	676.5999756
1359.283456	676.0
1359.817274	678.5999756
1360.351037	676.0
1360.884744	675.0
1361.418395	675.5999756
1361.951991	676.4000244
1362.485531	675.7999878
1363.019016	673.0
1363.552445	678.4000244
1364.085819	672.4000244
1364.619137	678.5999756
1365.1524	677.2000122
1365.685607	677.4000244
1366.218758	678.2000122
1366.751854	677.2000122
1367.284894	678.2000122
1367.817879	677.4000244
1368.350808	676.7999878
1368.883682	677.7999878
1369.4165	677.4000244
1369.949263	684.5999756
1370.48197	688.0
1371.014622	679.7999878
1371.547218	678.7999878
1372.079758	679.5999756
1372.612244	678.2000122
1373.144673	679.7999878
1373.677047	675.5999756
1374.209366	678.5999756
1374.741629	679.0
1375.273836	676.4000244
1375.805989	680.2000122
1376.338085	673.0
1376.870126	678.4000244
1377.402112	677.2000122
1377.934042	677.7999878
1378.465917	680.4000244
1378.997736	678.5999756
1379.5295	680.2000122
1380.061208	683.4000244
1380.592861	679.5999756
1381.124459	683.7999878
1381.656	681.4000244
1382.187487	676.7999878
1382.718918	683.0
1383.250294	684.2000122
1383.781614	685.0
1384.312879	688.0
1384.844088	686.7999878
1385.375242	691.7999878
1385.90634	701.2000122
1386.437383	717.7999878
1386.968371	758.5999756
1387.499303	845.4000244
1388.03018	1105.800049
1388.561001	1275.800049
1389.091767	1007.200012
1389.622478	790.4000244
1390.153133	722.5999756
1390.683733	706.0
1391.214277	688.4000244
1391.744766	690.0
1392.2752	686.7999878
1392.805578	684.7999878
1393.335901	681.5999756
1393.866168	679.5999756
1394.396381	683.7999878
1394.926537	681.5999756
1395.456639	681.4000244
1395.986685	681.7999878
1396.516675	680.5999756
1397.046611	679.2000122
1397.576491	679.0
1398.106315	678.2000122
1398.636084	679.0
1399.165798	678.5999756
1399.695457	678.4000244
1400.22506	681.2000122
1400.754608	681.4000244
1401.284101	673.5999756
1401.813538	677.7999878
1402.34292	678.0
1402.872247	679.4000244
1403.401518	677.7999878
1403.930734	679.2000122
1404.459895	679.4000244
1404.989	679.2000122
1405.51805	678.0
1406.047045	681.7999878
1406.575984	683.0
1407.104869	679.7999878
1407.633697	688.0
1408.162471	689.0
1408.691189	693.5999756
1409.219852	700.0
1409.74846	709.2000122
1410.277013	707.7999878
1410.80551	700.7999878
1411.333952	684.2000122
1411.862339	677.2000122
1412.39067	680.4000244
1412.918946	672.5999756
1413.447167	676.2000122
1413.975333	680.2000122
1414.503444	678.4000244
1415.031499	677.4000244
1415.559499	689.2000122
1416.087444	677.4000244
1416.615333	674.4000244
1417.143167	673.2000122
1417.670947	676.2000122
1418.19867	678.4000244
1418.726339	676.7999878
1419.253952	675.2000122
1419.781511	674.2000122
1420.309014	675.0
1420.836461	676.0
1421.363854	674.0
1421.891191	674.0
1422.418474	678.4000244
1422.945701	676.2000122
1423.472872	677.4000244
1423.999989	675.0
1424.52705	676.4000244
1425.054057	677.2000122
1425.581008	676.0
1426.107904	674.2000122
1426.634745	677.0
1427.16153	675.5999756
1427.688261	678.0
1428.214936	673.7999878
1428.741556	673.4000244
1429.268121	677.4000244
1429.794631	673.4000244
1430.321085	677.0
1430.847485	672.7999878
1431.373829	674.0
1431.900118	675.5999756
1432.426353	675.2000122
1432.952532	675.7999878
1433.478655	674.0
1434.004724	673.2000122
1434.530738	674.5999756
1435.056696	676.2000122
1435.5826	674.5999756
1436.108448	675.2000122
1436.634241	674.4000244
1437.159979	672.4000244
1437.685662	679.7999878
1438.736863	677.4000244
1439.262381	674.4000244
1439.787843	674.2000122
1440.313251	674.2000122
1440.838603	673.4000244
1441.3639	670.5999756
1441.889143	675.5999756
1442.41433	671.7999878
1442.939462	674.2000122
1443.464539	673.5999756
1443.989561	672.4000244
1444.514528	675.4000244
1445.03944	672.4000244
1445.564297	672.7999878
1446.089099	672.7999878
1446.613846	673.7999878
1447.138537	676.0
1447.663174	674.7999878
1448.187756	673.7999878
1448.712282	672.4000244
1449.236754	675.7999878
1449.761171	672.7999878
1450.285532	674.0
1450.809839	671.7999878
1451.33409	671.7999878
1451.858287	676.4000244
1452.382428	675.5999756
1452.906515	673.4000244
1453.430546	674.0
1453.954523	674.5999756
1454.478444	673.0
1455.002311	676.4000244
1455.526123	670.7999878
1456.049879	673.5999756
1456.573581	675.7999878
1457.097227	673.7999878
1457.620819	673.2000122
1458.144356	673.4000244
1458.667837	674.2000122
1459.191264	675.0
1459.714636	676.0
1460.237952	674.2000122
1460.761214	673.7999878
1461.284421	674.7999878
1461.807573	675.2000122
1462.33067	675.2000122
1462.853712	676.7999878
1463.376699	681.4000244
1463.899632	673.5999756
1464.422509	671.2000122
1464.945331	672.7999878
1465.468099	673.7999878
1465.990811	673.0
1466.513469	672.5999756
1467.036071	673.2000122
1467.558619	673.7999878
1468.081112	673.5999756
1468.60355	675.5999756
1469.125933	674.2000122
1469.648261	672.5999756
1470.170534	671.7999878
1470.692752	674.0
1471.214916	675.2000122
1471.737024	674.7999878
1472.259078	672.0
1472.781077	669.2000122
1473.303021	673.4000244
1473.82491	676.7999878
1474.346744	674.7999878
1474.868523	674.0
1475.390248	672.4000244
1475.911917	674.2000122
1476.433532	674.2000122
1476.955092	671.4000244
1477.476597	675.4000244
1477.998047	672.4000244
1478.519442	668.7999878
1479.040783	672.2000122
1479.562068	671.4000244
1480.083299	671.7999878
1480.604475	670.5999756
1481.125596	671.2000122
1481.646663	673.5999756
1482.167674	672.2000122
1482.688631	670.4000244
1483.209533	673.4000244
1483.73038	669.4000244
1484.251172	670.7999878
1484.771909	674.2000122
1485.292592	672.4000244
1485.81322	670.7999878
1486.333793	673.4000244
1486.854311	669.2000122
1487.374775	671.4000244
1487.895183	674.2000122
1488.415537	673.2000122
1488.935836	672.7999878
1489.456081	671.7999878
1489.97627	670.7999878
1490.496405	674.0
1491.016485	670.4000244
1491.536511	672.2000122
1492.056481	671.5999756
1492.576397	672.0
1493.096258	672.7999878
1493.616064	669.5999756
1494.135816	671.7999878
1494.655513	673.4000244
1495.175155	673.7999878
1495.694742	672.5999756
1496.214274	670.7999878
1496.733752	671.0
1497.253175	671.7999878
1497.772544	670.7999878
1498.291858	668.5999756
1498.811116	674.2000122
1499.330321	669.5999756
1499.84947	678.2000122
1500.368565	672.7999878
1500.887605	671.7999878
1501.406591	671.7999878
1501.925521	669.4000244
1502.444397	672.2000122
1502.963219	672.0
1503.481985	673.0
1504.000697	669.7999878
1504.519355	669.0
1505.037957	671.5999756
1505.556505	669.2000122
1506.074999	672.7999878
1506.593437	671.5999756
1507.111821	673.4000244
1507.63015	670.0
1508.148425	670.2000122
1508.666645	671.5999756
1509.18481	668.7999878
1509.702921	670.7999878
1510.220977	672.4000244
1510.738979	681.7999878
1511.256925	672.0
1511.774817	672.0
1512.292655	670.7999878
1512.810438	671.4000244
1513.328166	672.7999878
1513.84584	671.7999878
1514.363459	668.7999878
1514.881023	671.4000244
1515.398533	670.4000244
1515.915988	670.2000122
1516.433389	673.0
1516.950734	670.4000244
1517.468026	675.0
1517.985263	671.7999878
1518.502445	670.4000244
1519.019572	671.0
1519.536645	670.4000244
1520.053664	672.2000122
1520.570628	668.2000122
1521.087537	671.2000122
1521.604392	670.2000122
1522.121192	670.2000122
1522.637937	669.0
1523.154628	671.4000244
1523.671265	671.7999878
1524.187847	669.0
1524.704374	670.7999878
1525.220847	672.4000244
1525.737265	673.2000122
1526.253629	674.5999756
1526.769938	676.0
1527.286192	674.7999878
1527.802392	673.7999878
1528.318538	673.4000244
1528.834629	671.0
1529.350666	671.7999878
1529.866648	673.4000244
1530.382575	674.2000122
1530.898448	671.5999756
1531.414266	673.0
1531.93003	671.4000244
1532.44574	675.2000122
1532.961395	671.0
1533.476995	672.0
1533.992541	673.0
1534.508033	673.5999756
1535.02347	673.5999756
1535.538852	668.5999756
1536.05418	669.5999756
1536.569454	669.4000244
1537.084673	668.7999878
1537.599837	670.0
1538.114947	670.5999756
1538.630003	671.4000244
1539.145004	671.4000244
1539.659951	673.0
1540.174843	672.5999756
1540.689681	670.5999756
1541.204465	669.0
1541.719194	672.2000122
1542.233868	668.7999878
1542.748488	670.4000244
1543.263054	672.2000122
1543.777565	668.0
1544.292022	671.5999756
1544.806424	669.7999878
1545.320772	671.7999878
1545.835066	671.2000122
1546.349305	667.7999878
1546.863489	672.2000122
1547.37762	669.0
1547.891696	668.0
1548.405717	672.2000122
1548.919684	670.7999878
1549.433597	671.2000122
1549.947455	669.7999878
1550.461259	670.7999878
1550.975009	673.5999756
1551.488704	670.0
1552.002345	671.2000122
1552.515931	671.4000244
1553.029463	671.2000122
1553.542941	670.7999878
1554.056364	671.0
1554.569733	672.7999878
1555.083048	669.0
1555.596308	672.4000244
1557.135762	671.2000122
1557.648805	670.4000244
1558.161794	670.7999878
1558.674728	673.2000122
1559.187608	673.2000122
1559.700433	669.5999756
1560.213205	673.5999756
1560.725921	669.7999878
1561.238584	670.0
1561.751192	673.4000244
1562.263746	670.2000122
1562.776246	671.7999878
1563.288691	669.2000122
1563.801082	671.5999756
1564.313419	669.7999878
1564.825701	670.7999878
1565.337929	673.5999756
1565.850103	671.4000244
1566.362223	673.4000244
1567.386299	682.2000122
1567.898256	673.0
1568.410158	673.4000244
1568.922007	671.5999756
1569.4338	672.5999756
1569.94554	669.7999878
1570.457226	668.2000122
1570.968857	675.2000122
1571.480434	669.4000244
1571.991956	673.7999878
1572.503425	669.0
1573.014839	669.7999878
1573.526199	672.2000122
1574.037505	670.5999756
1574.548756	670.5999756
1575.059953	670.7999878
1575.571096	670.7999878
1576.082185	673.7999878
1576.59322	671.4000244
1577.1042	670.5999756
1577.615126	671.2000122
1578.125998	670.5999756
1578.636816	670.7999878
1579.14758	670.5999756
1579.658289	673.5999756
1580.168944	670.0
1580.679545	671.2000122
1581.190092	672.4000244
1581.700585	671.0
1582.211023	671.5999756
1582.721407	672.0
1583.231737	671.2000122
1583.742013	669.5999756
1584.252235	668.5999756
1584.762403	671.0
1585.272516	672.0
1585.782575	670.4000244
1586.292581	668.0
1586.802532	667.0
1587.312428	672.5999756
1587.822271	670.0
1588.33206	670.2000122
1588.841794	670.7999878
1589.351474	672.7999878
1589.8611	670.2000122
1590.370672	668.5999756
1590.88019	672.2000122
1591.389654	671.2000122
1591.899064	672.4000244
1592.408419	671.0
