1042.452273	682.0
1043.018714	680.5999756
1043.585098	680.7999878
1044.151424	679.5999756
1044.717692	677.7999878
1045.283903	678.4000244
1045.850056	676.4000244
1046.416151	674.4000244
1046.982188	673.5999756
1047.548167	675.5999756
1048.114089	674.7999878
1048.679953	673.7999878
1049.24576	673.5999756
1049.811509	672.5999756
1050.3772	676.5999756
1050.942833	671.0
1051.508408	670.2000122
1052.073926	667.2000122
1052.639387	670.7999878
1053.204789	669.5999756
1053.770134	668.5999756
1054.335421	666.4000244
1054.900651	670.5999756
1055.465823	668.5999756
1056.030937	667.0
1056.595993	667.7999878
1057.160992	667.0
1057.725934	666.4000244
1058.290817	664.2000122
1058.855643	667.2000122
1059.420411	665.7999878
1059.985122	665.2000122
1060.549775	665.4000244
1061.114371	663.7999878
1061.678908	665.2000122
1062.243389	666.2000122
1062.807811	664.5999756
1063.372176	666.4000244
1063.936483	664.7999878
1064.500733	664.5999756
1065.064925	665.0
1065.62906	667.2000122
1066.193137	665.4000244
1066.757156	662.7999878
1067.321118	665.4000244
1067.885022	665.0
1068.448869	664.0
1069.012658	665.2000122
1069.57639	665.4000244
1070.140063	672.2000122
1070.70368	661.7999878
1071.267239	662.0
1071.83074	665.2000122
1072.394184	665.5999756
1072.95757	665.7999878
1073.520899	663.2000122
1074.08417	664.0
1074.647383	663.5999756
1075.21054	662.2000122
1075.773638	666.2000122
1076.336679	663.2000122
1076.899663	660.7999878
1077.462589	663.0
1078.025457	663.2000122
1078.588268	665.4000244
1079.151022	664.7999878
1079.713718	664.4000244
1080.276356	663.7999878
1080.838937	664.4000244
1081.401461	663.4000244
1081.963927	662.2000122
1082.526336	665.0
1083.088687	661.7999878
1083.650981	664.7999878
1084.213217	665.2000122
1084.775396	663.4000244
1085.337517	662.0
1085.899581	662.7999878
1086.461587	664.7999878
1087.023536	664.7999878
1087.585428	661.7999878
1088.147262	665.5999756
1088.709039	664.0
1089.270758	664.5999756
1089.83242	666.0
1090.955571	669.0
1091.517061	662.0
1092.078493	663.0
1092.639868	664.2000122
1093.201185	663.4000244
1093.762445	662.5999756
1094.323648	664.4000244
1094.884793	662.7999878
1095.445881	662.0
1096.006911	664.2000122
1096.567884	664.0
1097.1288	671.5999756
1097.689659	665.5999756
1098.25046	658.7999878
1098.811203	661.2000122
1099.37189	664.2000122
1099.932518	663.5999756
1100.49309	664.2000122
1101.053604	664.7999878
1101.614061	665.0
1102.174461	663.2000122
1102.734803	663.2000122
1103.295088	663.5999756
1103.855316	660.7999878
1104.415486	662.4000244
1104.975599	663.2000122
1105.535655	664.0
1106.095653	663.0
1106.655594	661.2000122
1107.215478	664.0
1107.775305	662.7999878
1108.335074	662.2000122
1108.894786	663.7999878
1109.45444	664.5999756
1110.014038	664.7999878
1110.573578	661.7999878
1111.133061	664.2000122
1111.692486	664.0
1112.251854	664.5999756
1112.811165	663.7999878
1113.370419	663.2000122
1113.929616	661.5999756
1114.488755	661.5999756
1115.047837	665.4000244
1115.606862	664.7999878
1116.16583	662.5999756
1116.72474	661.4000244
1117.283593	662.2000122
1117.842389	661.7999878
1118.401128	663.7999878
1118.959809	663.0
1119.518433	663.5999756
1120.077	662.2000122
1120.63551	660.4000244
1121.193963	661.5999756
1121.752358	663.7999878
1122.310697	662.7999878
1122.868978	663.2000122
1123.427202	663.5999756
1123.985368	662.4000244
1124.543478	663.2000122
1125.10153	662.2000122
1125.659526	662.7999878
1126.217464	661.5999756
1126.775345	661.7999878
1127.333168	663.4000244
1127.890935	663.7999878
1128.448644	663.0
1129.006297	659.7999878
1129.563892	663.0
1130.12143	662.4000244
1130.678911	663.2000122
1131.236335	666.0
1131.793701	661.7999878
1132.351011	661.2000122
1132.908263	664.4000244
1133.465458	664.2000122
1134.022597	660.5999756
1134.579678	661.7999878
1135.136702	660.7999878
1135.693669	663.2000122
1136.250578	662.0
1136.807431	662.7999878
1137.364227	661.2000122
1137.920965	660.7999878
1138.477647	659.4000244
1139.034271	663.7999878
1139.590839	664.0
1140.147349	658.7999878
1140.703802	662.5999756
1141.260198	663.2000122
1141.816537	663.4000244
1142.37282	660.4000244
1142.929045	660.2000122
1143.485213	662.5999756
1144.041323	660.5999756
1144.597377	662.7999878
1145.153374	659.5999756
1145.709314	661.4000244
1146.265197	660.4000244
1146.821023	660.2000122
1147.376792	665.0
1147.932503	665.5999756
1148.488158	659.4000244
1149.043756	663.0
1149.599297	662.7999878
1150.154781	665.4000244
1150.710207	661.7999878
1151.265577	661.0
1151.82089	664.0
1152.376146	661.2000122
1152.931345	663.5999756
1153.486487	663.5999756
1154.041572	664.0
1154.5966	663.4000244
1155.151571	662.7999878
1155.706485	662.7999878
1156.261342	660.5999756
1156.816142	663.2000122
1157.370885	660.0
1157.925572	661.2000122
1158.480201	663.7999878
1159.034774	661.4000244
1159.589289	664.0
1160.143748	662.4000244
1160.698149	661.2000122
1161.252494	662.4000244
1161.806782	662.0
1162.361013	662.0
1162.915187	662.7999878
1163.469304	660.4000244
1164.023364	663.2000122
1164.577368	662.7999878
1165.131314	663.2000122
1165.685204	661.7999878
1166.239036	664.5999756
1166.792812	662.7999878
1167.346531	662.4000244
1167.900193	663.2000122
1168.453798	661.7999878
1169.007347	661.2000122
1169.560838	665.7999878
1170.114273	665.5999756
1170.66765	662.2000122
1171.220971	663.4000244
1171.774235	661.7999878
1172.327443	660.5999756
1172.880593	661.2000122
1173.433687	661.2000122
1173.986723	660.7999878
1174.539703	664.4000244
1175.092626	663.7999878
1175.645493	663.7999878
1176.198302	661.4000244
1176.751055	663.7999878
1177.303751	662.5999756
1177.85639	661.4000244
1178.408972	662.7999878
1178.961498	663.0
1179.513966	661.5999756
1180.066378	663.0
1180.618733	662.7999878
1181.171032	662.0
1181.723273	664.7999878
1182.275458	663.2000122
1182.827586	662.2000122
1183.379657	662.7999878
1183.931672	662.7999878
1184.48363	663.0
1185.035531	665.4000244
1185.587375	663.7999878
1186.139162	661.0
1186.690893	662.0
1187.242567	662.4000244
1187.794184	662.4000244
1188.345745	662.5999756
1188.897249	661.0
1189.448696	662.2000122
1190.000086	662.7999878
1190.55142	662.5999756
1191.102697	661.2000122
1191.653918	662.5999756
1192.205081	663.0
1192.756188	661.5999756
1193.307238	684.4000244
1193.858232	661.5999756
1194.409169	661.5999756
1194.960049	663.5999756
1195.510872	665.2000122
1196.061639	663.4000244
1196.612349	663.0
1197.163003	665.0
1197.713599	664.7999878
1198.264139	661.0
1198.814623	662.0
1199.36505	665.4000244
1199.91542	663.2000122
1200.465734	660.4000244
1201.01599	664.4000244
1201.566191	663.2000122
1202.116334	664.2000122
1202.666421	663.5999756
1203.216452	661.2000122
1203.766425	664.7999878
1204.316343	663.4000244
1204.866203	660.7999878
1205.416007	664.2000122
1205.965754	662.0
1206.515445	663.4000244
1207.065079	664.2000122
1207.614657	664.5999756
1208.164177	663.0
1208.713642	661.4000244
1209.26305	665.4000244
1209.812401	663.7999878
1210.361695	664.7999878
1210.910933	663.2000122
1211.460115	664.5999756
1212.00924	666.4000244
1212.558308	664.0
1213.10732	665.5999756
1213.656275	661.5999756
1214.205174	662.5999756
1214.754016	668.4000244
1215.302801	667.4000244
1215.85153	663.4000244
1216.400203	666.0
1216.948819	664.2000122
1217.497378	666.4000244
1218.045881	664.5999756
1218.594327	664.4000244
1219.142717	664.2000122
1219.691051	664.0
1220.239327	666.2000122
1220.787548	664.7999878
1221.335712	663.0
1221.883819	667.0
1222.43187	668.0
1222.979864	665.0
1223.527802	663.7999878
1224.075683	665.4000244
1224.623508	667.2000122
1225.171277	665.4000244
1225.718989	668.0
1226.266644	667.0
1226.814243	665.0
1227.361786	665.0
1227.909272	665.4000244
1228.456702	668.5999756
1229.004075	666.4000244
1229.551392	665.0
1230.098652	666.0
1230.645856	666.0
1231.193003	668.0
1231.740094	670.4000244
1232.287129	665.0
1232.834107	666.4000244
1233.381029	667.5999756
1233.927894	668.2000122
1234.474703	668.2000122
1235.021455	667.7999878
1235.568151	664.7999878
1236.114791	669.4000244
1236.661374	669.4000244
1237.207901	667.5999756
1237.754372	669.7999878
1238.300786	668.4000244
1238.847144	668.7999878
1239.393445	670.0
1239.93969	666.7999878
1240.485879	668.0
1241.032011	665.4000244
1241.578087	666.4000244
1242.124106	667.2000122
1242.67007	669.7999878
1243.215976	669.7999878
1243.761827	669.2000122
1244.307621	669.5999756
1244.853359	669.5999756
1245.39904	670.2000122
1245.944665	672.5999756
1246.490234	671.4000244
1247.035746	670.5999756
1247.581203	672.5999756
1248.126602	675.0
1248.671946	672.0
1249.217233	675.0
1249.762464	672.0
1250.307638	674.0
1250.852757	672.4000244
1251.397819	675.4000244
1251.942824	673.2000122
1252.487774	672.5999756
1253.032667	675.5999756
1253.577503	672.0
1254.122284	675.4000244
1254.667008	676.2000122
1255.211676	675.5999756
1255.756288	676.2000122
1256.300843	675.4000244
1256.845342	679.2000122
1257.389785	684.5999756
1257.934172	688.7999878
1258.478502	690.5999756
1259.022776	689.7999878
1259.566994	689.5999756
1260.111156	706.0
1260.655261	701.0
1261.199311	705.5999756
1261.743304	717.0
1262.28724	726.7999878
1262.831121	733.2000122
1263.374945	732.7999878
1263.918713	726.0
1264.462425	712.7999878
1265.006081	702.7999878
1265.54968	701.5999756
1266.093223	698.2000122
1266.636711	691.4000244
1267.180141	688.5999756
1267.723516	691.0
1268.266835	687.2000122
1268.810097	685.4000244
1269.353303	687.7999878
1269.896453	684.2000122
1270.439547	687.5999756
1270.982584	686.0
1271.525566	685.7999878
1272.068491	687.5999756
1272.61136	686.2000122
1273.154173	684.5999756
1273.69693	691.5999756
1274.239631	691.2000122
1274.782275	690.2000122
1275.324864	694.5999756
1275.867396	692.7999878
1276.409872	695.5999756
1276.952292	695.7999878
1277.494656	699.5999756
1278.036964	702.4000244
1278.579215	706.2000122
1279.121411	719.0
1279.66355	731.7999878
1280.205634	754.4000244
1280.747661	798.2000122
1281.289632	885.4000244
1281.831547	1088.0
1282.373406	1445.0
1282.915209	1817.800049
1283.456955	1777.599976
1283.998646	1381.199951
1284.540281	1055.800049
1285.081859	882.0
1285.623381	793.5999756
1286.164848	757.0
1286.706258	738.2000122
1287.247612	717.2000122
1287.788911	709.5999756
1288.330153	705.2000122
1288.871339	701.7999878
1289.412469	697.2000122
1289.953543	697.7999878
1290.494561	691.7999878
1291.035523	691.4000244
1291.576428	692.0
1292.117278	687.0
1292.658072	688.0
1293.19881	687.5999756
1293.739492	682.5999756
1294.280118	687.7999878
1294.820687	685.2000122
1295.361201	683.5999756
1295.901659	680.5999756
1296.442061	681.4000244
1296.982406	683.4000244
1297.522696	683.5999756
1298.06293	680.7999878
1298.603108	680.0
1299.143229	682.0
1299.683295	675.5999756
1300.223305	678.7999878
1300.763259	679.2000122
1301.303157	679.7999878
1301.842999	680.5999756
1302.382785	676.4000244
1302.922515	678.2000122
1303.462189	681.5999756
1304.001807	680.4000244
1304.541369	674.7999878
1305.080875	677.0
1305.620326	676.2000122
1306.15972	677.4000244
1306.699058	679.0
1307.238341	672.0
1307.777567	679.4000244
1308.316738	673.4000244
1308.855853	672.7999878
1309.394912	673.7999878
1309.933915	677.4000244
1310.472862	673.4000244
1311.011753	673.7999878
1311.550588	677.0
1312.089367	676.7999878
1312.62809	672.7999878
1313.166758	674.4000244
1313.70537	672.2000122
1314.243925	671.2000122
1314.782425	677.4000244
1315.320869	672.2000122
1315.859257	674.2000122
1316.397589	672.2000122
1316.935866	673.5999756
1317.474086	671.0
1318.012251	672.4000244
1318.55036	671.7999878
1319.088413	673.7999878
1319.62641	672.5999756
1320.164351	675.7999878
1320.702236	674.5999756
1321.240066	673.4000244
1321.777839	671.5999756
1322.315557	673.2000122
1322.853219	672.4000244
1323.390826	673.2000122
1323.928376	677.5999756
1324.465871	672.4000244
1325.003309	670.5999756
1325.540692	674.2000122
1326.07802	677.7999878
1326.615291	673.5999756
1327.152506	675.4000244
1327.689666	678.0
1328.22677	674.4000244
1328.763818	671.0
1329.300811	675.4000244
1329.837747	672.0
1330.374628	675.2000122
1330.911453	674.7999878
1331.448222	671.4000244
1331.984936	674.0
1332.521594	672.5999756
1333.058196	673.7999878
1333.594742	674.4000244
1334.131232	672.4000244
1334.667667	674.2000122
1335.204046	675.0
1335.740369	671.7999878
1336.276637	675.4000244
1336.812848	675.0
1337.349004	674.7999878
1337.885105	675.2000122
1338.421149	674.5999756
1338.957138	674.0
1339.493071	672.4000244
1340.028949	674.5999756
1340.56477	674.7999878
1341.100536	671.5999756
1341.636246	671.0
1342.171901	673.4000244
1342.7075	673.4000244
1343.243043	670.2000122
1343.77853	676.0
1344.313962	677.0
1344.849338	672.4000244
1345.384659	676.4000244
1345.919923	672.2000122
1346.455133	674.2000122
1346.990286	671.7999878
1347.525384	673.2000122
1348.060426	672.7999878
1348.595412	673.0
1349.130343	671.2000122
1349.665218	672.0
1350.200037	671.5999756
1350.734801	677.0
1351.269509	673.0
1351.804162	674.4000244
1352.338758	676.0
1352.8733	674.7999878
1353.407785	676.2000122
1353.942215	676.0
1354.476589	675.0
1355.010908	675.5999756
1355.545171	674.4000244
1356.079379	679.4000244
1356.61353	676.0
1357.147627	676.2000122
1357.681667	675.5999756
1358.215652	677.5999756
1358.749582	678.7999878
1359.283456	674.7999878
1359.817274	679.5999756
1360.351037	676.0
1360.884744	677.2000122
1361.418395	679.4000244
1361.951991	677.7999878
1362.485531	678.0
1363.019016	680.7999878
1363.552445	679.4000244
1364.085819	683.0
1364.619137	685.0
1365.1524	684.0
1365.685607	681.5999756
1366.218758	680.0
1366.751854	683.5999756
1367.284894	685.5999756
1367.817879	682.7999878
1368.350808	687.7999878
1368.883682	690.0
1369.4165	713.7999878
1369.949263	726.2000122
1370.48197	705.4000244
1371.014622	692.7999878
1371.547218	687.5999756
1372.079758	686.4000244
1372.612244	686.0
1373.144673	686.4000244
1373.677047	688.0
1374.209366	687.5999756
1374.741629	687.4000244
1375.273836	695.0
1375.805989	691.4000244
1376.338085	694.0
1376.870126	692.0
1377.402112	691.2000122
1377.934042	693.4000244
1378.465917	701.0
1378.997736	697.5999756
1379.5295	700.4000244
1380.061208	704.4000244
1380.592861	705.7999878
1381.124459	710.7999878
1381.656	715.4000244
1382.187487	725.7999878
1382.718918	726.2000122
1383.250294	739.7999878
1383.781614	754.5999756
1384.312879	782.4000244
1384.844088	818.2000122
1385.375242	897.0
1385.90634	1055.0
1386.437383	1422.199951
1386.968371	2263.800049
1387.499303	3030.399902
1388.03018	2529.399902
1388.561001	1566.599976
1389.091767	1087.800049
1389.622478	905.7999878
1390.153133	822.0
1390.683733	776.2000122
1391.214277	751.0
1391.744766	738.5999756
1392.2752	728.2000122
1392.805578	717.4000244
1393.335901	706.7999878
1393.866168	713.2000122
1394.396381	706.4000244
1394.926537	702.7999878
1395.456639	702.2000122
1395.986685	697.7999878
1396.516675	694.2000122
1397.046611	693.5999756
1397.576491	694.7999878
1398.106315	698.4000244
1398.636084	695.4000244
1399.165798	690.4000244
1399.695457	690.2000122
1400.22506	690.4000244
1400.754608	691.7999878
1401.284101	690.5999756
1401.813538	688.4000244
1402.34292	691.2000122
1402.872247	692.5999756
1403.401518	696.0
1403.930734	694.0
1404.459895	700.4000244
1404.989	703.5999756
1406.047045	718.2000122
1406.575984	718.5999756
1407.104869	731.5999756
1407.633697	743.2000122
1408.162471	756.5999756
1408.691189	770.4000244
1409.219852	787.7999878
1409.74846	762.7999878
1410.277013	745.0
1410.80551	727.5999756
1411.333952	710.2000122
1411.862339	703.5999756
1412.39067	695.2000122
1412.918946	687.4000244
1413.447167	686.2000122
1413.975333	682.2000122
1414.503444	681.2000122
1415.031499	678.2000122
1415.559499	694.2000122
1416.087444	675.7999878
1416.615333	678.5999756
1417.143167	677.0
1417.670947	674.4000244
1418.19867	672.2000122
1418.726339	669.4000244
1419.253952	674.2000122
1419.781511	676.2000122
1420.309014	677.0
1420.836461	674.0
1421.363854	673.5999756
1421.891191	673.5999756
1422.418474	671.7999878
1422.945701	675.7999878
1423.472872	675.4000244
1423.999989	673.4000244
1424.52705	672.2000122
1425.054057	673.7999878
1425.581008	673.2000122
1426.107904	672.5999756
1426.634745	670.5999756
1427.16153	669.7999878
1427.688261	674.0
1428.214936	669.4000244
1428.741556	668.2000122
1429.268121	667.7999878
1429.794631	666.7999878
1430.321085	667.0
1430.847485	667.5999756
1431.373829	668.5999756
1431.900118	670.0
1432.426353	666.5999756
1432.952532	667.2000122
1433.478655	670.7999878
1434.004724	665.7999878
1434.530738	668.4000244
1435.056696	664.2000122
1435.5826	666.7999878
1436.108448	668.2000122
1436.634241	667.5999756
1437.159979	665.5999756
1437.685662	667.2000122
1438.21129	664.5999756
1438.736863	665.4000244
1439.262381	666.7999878
1439.787843	664.7999878
1440.313251	664.4000244
1440.838603	667.0
1441.3639	665.5999756
1441.889143	664.2000122
1442.41433	664.7999878
1442.939462	666.2000122
1443.464539	665.7999878
1443.989561	662.0
1444.514528	664.5999756
1445.03944	665.7999878
1445.564297	664.2000122
1446.089099	663.5999756
1446.613846	662.2000122
1447.138537	663.4000244
1447.663174	663.5999756
1448.187756	663.7999878
1448.712282	660.5999756
1449.236754	663.4000244
1449.761171	663.5999756
1450.285532	663.7999878
1450.809839	662.0
1451.33409	664.2000122
1451.858287	663.0
1452.382428	661.5999756
1452.906515	659.7999878
1453.430546	664.0
1453.954523	661.4000244
1454.478444	659.4000244
1455.002311	663.7999878
1455.526123	662.7999878
1456.049879	662.0
1456.573581	662.7999878
1457.097227	661.0
1457.620819	664.2000122
1458.144356	663.0
1458.667837	664.5999756
1459.191264	662.7999878
1459.714636	660.0
1460.237952	661.5999756
1460.761214	663.4000244
1461.284421	663.7999878
1461.807573	659.0
1462.33067	660.0
1462.853712	661.4000244
1463.376699	661.7999878
1463.899632	662.2000122
1464.422509	662.0
1464.945331	659.7999878
1465.468099	664.7999878
1465.990811	662.0
1466.513469	661.7999878
1467.036071	663.4000244
1467.558619	662.2000122
1468.081112	661.2000122
1468.60355	659.4000244
1469.125933	661.2000122
1469.648261	664.2000122
1470.170534	662.5999756
1470.692752	660.5999756
1471.214916	662.7999878
1471.737024	661.4000244
1472.259078	665.2000122
1472.781077	660.0
1473.303021	661.7999878
1473.82491	662.2000122
1474.346744	660.2000122
1474.868523	663.0
1475.390248	659.7999878
1475.911917	658.4000244
1476.433532	661.0
1476.955092	659.7999878
1477.476597	662.0
1477.998047	660.0
1478.519442	659.4000244
1479.040783	660.4000244
1479.562068	662.2000122
1480.083299	659.2000122
1480.604475	660.4000244
1481.125596	658.2000122
1481.646663	662.4000244
1482.167674	660.4000244
1482.688631	661.4000244
1483.209533	659.4000244
1483.73038	659.4000244
1484.251172	661.2000122
1484.771909	660.4000244
1485.292592	660.5999756
1485.81322	661.5999756
1486.333793	662.0
1486.854311	661.0
1487.374775	659.2000122
1487.895183	661.0
1488.415537	659.5999756
1488.935836	659.5999756
1489.456081	659.2000122
1489.97627	659.4000244
1490.496405	657.2000122
1491.016485	659.5999756
1491.536511	659.2000122
1492.056481	659.0
1492.576397	658.5999756
1493.096258	658.7999878
1493.616064	660.2000122
1494.135816	657.4000244
1494.655513	660.2000122
1495.175155	660.4000244
1495.694742	657.0
1496.214274	660.7999878
1496.733752	659.2000122
1497.253175	659.4000244
1497.772544	658.7999878
1498.291858	661.7999878
1498.811116	662.5999756
1499.330321	659.0
1499.84947	667.4000244
1500.368565	662.5999756
1500.887605	660.7999878
1501.406591	659.4000244
1501.925521	659.0
1502.444397	659.5999756
1502.963219	660.2000122
1503.481985	661.2000122
1504.000697	659.7999878
1504.519355	662.0
1505.037957	657.5999756
1505.556505	659.0
1506.074999	660.5999756
1506.593437	660.7999878
1507.111821	659.7999878
1507.63015	658.7999878
1508.148425	658.7999878
1508.666645	662.7999878
1509.18481	659.4000244
1509.702921	660.2000122
1510.220977	656.4000244
1510.738979	669.2000122
1511.256925	660.0
1511.774817	658.7999878
1512.292655	659.2000122
1512.810438	660.0
1513.328166	659.4000244
1513.84584	657.5999756
1514.363459	659.0
1514.881023	660.4000244
1515.398533	660.7999878
1515.915988	657.4000244
1516.433389	661.2000122
1516.950734	658.0
1517.468026	660.7999878
1517.985263	658.5999756
1518.502445	657.5999756
1519.019572	659.2000122
1519.536645	658.4000244
1520.053664	657.4000244
1520.570628	660.2000122
1521.087537	661.5999756
1521.604392	659.4000244
1522.121192	660.2000122
1522.637937	657.2000122
1523.154628	660.7999878
1523.671265	660.2000122
1524.187847	659.7999878
1524.704374	657.0
1525.220847	658.0
1525.737265	660.4000244
1526.253629	658.7999878
1526.769938	661.2000122
1527.286192	661.7999878
1527.802392	658.5999756
1528.318538	659.0
1528.834629	661.0
1529.350666	659.7999878
1529.866648	659.4000244
1530.382575	657.7999878
1530.898448	659.2000122
1531.414266	659.4000244
1531.93003	659.7999878
1532.44574	659.0
1532.961395	659.5999756
1533.476995	660.0
1533.992541	662.7999878
1534.508033	657.7999878
1535.02347	659.4000244
1535.538852	660.0
1536.05418	659.5999756
1536.569454	660.7999878
1537.084673	662.0
1537.599837	659.0
1538.114947	662.4000244
1538.630003	659.0
1539.145004	660.7999878
1539.659951	659.4000244
1540.174843	660.5999756
1540.689681	661.5999756
1541.204465	660.4000244
1541.719194	659.4000244
1542.233868	657.0
1542.748488	659.7999878
1543.263054	660.4000244
1543.777565	659.2000122
1544.292022	659.0
1544.806424	659.5999756
1545.320772	660.7999878
1545.835066	659.0
1546.349305	660.2000122
1546.863489	658.2000122
1547.37762	658.7999878
1547.891696	659.5999756
1548.405717	659.5999756
1548.919684	660.4000244
1549.433597	661.4000244
1549.947455	661.5999756
1550.461259	658.7999878
1550.975009	658.7999878
1551.488704	658.4000244
1552.002345	658.2000122
1552.515931	660.5999756
1553.029463	662.7999878
1553.542941	657.2000122
1554.056364	659.4000244
1554.569733	660.5999756
1555.083048	661.4000244
1555.596308	660.0
1556.109514	657.5999756
1556.622665	659.0
1557.135762	658.7999878
1557.648805	658.5999756
1558.161794	659.0
1558.674728	659.0
1559.187608	659.4000244
1559.700433	660.4000244
1560.213205	659.2000122
1560.725921	660.4000244
1561.238584	660.5999756
1561.751192	659.5999756
1562.263746	660.2000122
1562.776246	659.5999756
1563.288691	660.2000122
1563.801082	659.5999756
1564.313419	659.0
1564.825701	657.0
1565.337929	660.5999756
1565.850103	661.0
1566.362223	659.2000122
1566.874288	659.0
1567.386299	657.5999756
1567.898256	657.7999878
1568.410158	659.2000122
1568.922007	660.5999756
1569.4338	657.5999756
1569.94554	658.2000122
1570.457226	660.7999878
1570.968857	659.0
1571.480434	659.0
1571.991956	658.2000122
1572.503425	657.5999756
1573.014839	659.0
1573.526199	657.7999878
1574.037505	659.7999878
1574.548756	659.2000122
1575.059953	659.4000244
1575.571096	659.0
1576.082185	660.5999756
1576.59322	656.0
1577.1042	658.0
1577.615126	658.2000122
1578.125998	658.7999878
1578.636816	659.5999756
1579.14758	659.4000244
1579.658289	658.4000244
1580.168944	660.0
1580.679545	657.2000122
1581.190092	658.4000244
1581.700585	659.7999878
1582.211023	659.4000244
1582.721407	658.5999756
1583.231737	661.4000244
1583.742013	659.7999878
1584.252235	658.5999756
1584.762403	660.4000244
1585.272516	658.0
1585.782575	658.7999878
1586.292581	657.0
1586.802532	658.4000244
1587.312428	659.2000122
1587.822271	659.0
1588.33206	658.7999878
1588.841794	661.2000122
1589.351474	656.0
1589.8611	658.5999756
1590.370672	658.4000244
1590.88019	660.7999878
1591.389654	657.5999756
1591.899064	657.2000122
1592.408419	658.4000244
