1042.452273	704.4000244
1043.018714	700.7999878
1043.585098	697.0
1044.151424	699.5999756
1044.717692	694.0
1045.283903	695.4000244
1045.850056	695.7999878
1046.416151	695.4000244
1046.982188	693.4000244
1047.548167	692.0
1048.114089	690.2000122
1048.679953	687.0
1049.24576	687.2000122
1049.811509	688.5999756
1050.3772	689.0
1050.942833	687.0
1051.508408	684.5999756
1052.073926	684.2000122
1052.639387	683.0
1053.204789	680.2000122
1053.770134	682.5999756
1054.335421	684.5999756
1054.900651	681.5999756
1055.465823	682.2000122
1056.030937	683.0
1056.595993	683.0
1057.160992	679.5999756
1057.725934	681.5999756
1058.290817	681.5999756
1058.855643	680.4000244
1059.420411	681.4000244
1059.985122	682.0
1060.549775	683.5999756
1061.114371	681.4000244
1061.678908	682.5999756
1062.243389	682.0
1062.807811	683.5999756
1063.372176	682.5999756
1063.936483	679.5999756
1064.500733	678.4000244
1065.064925	684.2000122
1065.62906	680.2000122
1066.193137	685.2000122
1066.757156	680.4000244
1067.321118	681.4000244
1067.885022	681.7999878
1068.448869	681.0
1069.012658	683.4000244
1069.57639	680.5999756
1070.140063	689.2000122
1070.70368	679.5999756
1071.267239	681.0
1071.83074	684.0
1072.394184	681.0
1072.95757	681.5999756
1073.520899	683.0
1074.08417	679.0
1074.647383	684.2000122
1075.21054	686.0
1075.773638	684.5999756
1076.336679	684.7999878
1076.899663	684.0
1077.462589	680.5999756
1078.025457	687.2000122
1078.588268	684.4000244
1079.151022	683.0
1079.713718	687.2000122
1080.276356	684.0
1080.838937	688.2000122
1081.401461	692.5999756
1081.963927	691.5999756
1082.526336	691.7999878
1083.088687	696.0
1083.650981	695.2000122
1084.213217	693.2000122
1084.775396	695.5999756
1085.337517	699.4000244
1085.899581	702.0
1086.461587	703.4000244
1087.023536	705.4000244
1087.585428	707.0
1088.147262	705.2000122
1088.709039	707.5999756
1089.270758	714.2000122
1089.83242	711.4000244
1090.394024	716.7999878
1090.955571	719.5999756
1091.517061	721.0
1092.078493	728.7999878
1092.639868	718.4000244
1093.201185	721.0
1093.762445	725.5999756
1094.323648	724.2000122
1094.884793	724.5999756
1095.445881	723.7999878
1096.006911	720.2000122
1096.567884	719.0
1097.1288	724.0
1097.689659	720.2000122
1098.25046	711.7999878
1098.811203	708.7999878
1099.37189	708.2000122
1099.932518	705.7999878
1100.49309	699.2000122
1101.053604	704.0
1101.614061	695.7999878
1102.174461	693.4000244
1102.734803	694.7999878
1103.295088	694.2000122
1103.855316	690.7999878
1104.415486	692.0
1104.975599	691.0
1105.535655	689.5999756
1106.095653	688.4000244
1106.655594	689.7999878
1107.215478	688.4000244
1107.775305	684.4000244
1108.335074	686.0
1108.894786	687.2000122
1109.45444	688.4000244
1110.014038	686.0
1110.573578	686.7999878
1111.133061	684.7999878
1111.692486	685.5999756
1112.251854	686.5999756
1112.811165	685.2000122
1113.370419	683.7999878
1113.929616	683.0
1114.488755	681.4000244
1115.047837	681.7999878
1115.606862	679.7999878
1116.16583	680.2000122
1116.72474	682.2000122
1117.283593	683.7999878
1117.842389	680.0
1118.401128	681.2000122
1118.959809	678.2000122
1119.518433	680.4000244
1120.077	679.2000122
1120.63551	676.5999756
1121.193963	680.2000122
1121.752358	679.4000244
1122.310697	672.5999756
1122.868978	675.7999878
1123.427202	678.4000244
1123.985368	677.5999756
1124.543478	677.2000122
1125.10153	674.7999878
1125.659526	677.2000122
1126.217464	677.4000244
1126.775345	676.0
1127.333168	676.4000244
1127.890935	678.4000244
1128.448644	679.0
1129.006297	676.7999878
1129.563892	675.2000122
1130.12143	675.0
1130.678911	677.0
1131.236335	675.7999878
1131.793701	676.5999756
1132.351011	674.5999756
1132.908263	673.5999756
1133.465458	677.5999756
1134.022597	676.5999756
1134.579678	678.0
1135.136702	676.4000244
1135.693669	681.2000122
1136.250578	676.2000122
1136.807431	672.2000122
1137.364227	676.5999756
1137.920965	673.4000244
1138.477647	679.7999878
1139.034271	675.7999878
1139.590839	675.5999756
1140.147349	677.4000244
1140.703802	679.5999756
1141.260198	675.7999878
1141.816537	673.2000122
1142.37282	676.0
1142.929045	677.5999756
1143.485213	674.2000122
1144.041323	676.2000122
1144.597377	677.4000244
1145.153374	675.4000244
1145.709314	674.4000244
1146.265197	674.4000244
1146.821023	677.4000244
1147.376792	676.4000244
1147.932503	676.7999878
1148.488158	678.2000122
1149.043756	674.0
1149.599297	676.0
1150.154781	678.2000122
1150.710207	675.7999878
1151.265577	675.2000122
1151.82089	676.7999878
1152.376146	678.0
1152.931345	676.7999878
1153.486487	674.4000244
1154.041572	674.5999756
1154.5966	676.4000244
1155.151571	678.7999878
1155.706485	676.0
1156.261342	676.7999878
1156.816142	675.5999756
1157.370885	674.7999878
1157.925572	675.5999756
1158.480201	678.2000122
1159.034774	677.5999756
1159.589289	676.5999756
1160.143748	676.2000122
1160.698149	676.2000122
1161.252494	677.7999878
1161.806782	674.7999878
1162.361013	677.4000244
1162.915187	677.2000122
1163.469304	679.4000244
1164.023364	676.5999756
1164.577368	677.2000122
1165.131314	676.0
1165.685204	677.7999878
1166.239036	679.5999756
1166.792812	676.0
1167.346531	675.4000244
1167.900193	676.0
1168.453798	676.4000244
1169.007347	672.7999878
1169.560838	675.4000244
1170.114273	677.0
1170.66765	677.0
1171.220971	674.2000122
1171.774235	675.2000122
1172.327443	675.5999756
1172.880593	677.5999756
1173.433687	676.0
1173.986723	677.2000122
1174.539703	678.2000122
1175.092626	677.4000244
1175.645493	672.4000244
1176.198302	676.7999878
1176.751055	676.7999878
1177.303751	675.4000244
1177.85639	677.2000122
1178.408972	675.2000122
1178.961498	678.7999878
1179.513966	678.2000122
1180.066378	675.7999878
1180.618733	672.4000244
1181.171032	679.4000244
1181.723273	676.2000122
1182.275458	677.0
1182.827586	677.2000122
1183.379657	677.4000244
1183.931672	677.5999756
1184.48363	679.2000122
1185.035531	677.2000122
1185.587375	677.5999756
1186.139162	674.2000122
1186.690893	677.7999878
1187.242567	677.4000244
1187.794184	677.7999878
1188.345745	679.7999878
1188.897249	676.4000244
1189.448696	677.7999878
1190.000086	679.7999878
1190.55142	677.4000244
1191.102697	677.2000122
1191.653918	678.5999756
1192.205081	677.2000122
1192.756188	677.2000122
1193.307238	696.0
1193.858232	674.4000244
1194.409169	673.2000122
1194.960049	673.7999878
1195.510872	675.4000244
1196.061639	676.7999878
1196.612349	676.2000122
1197.163003	678.0
1197.713599	675.5999756
1198.264139	675.4000244
1198.814623	675.4000244
1199.36505	675.7999878
1199.91542	674.7999878
1200.465734	679.0
1201.01599	676.7999878
1201.566191	676.2000122
1202.116334	676.0
1202.666421	676.4000244
1203.216452	677.7999878
1203.766425	676.5999756
1204.316343	673.2000122
1204.866203	677.4000244
1205.416007	675.7999878
1205.965754	678.7999878
1206.515445	676.0
1207.065079	680.5999756
1207.614657	675.7999878
1208.164177	680.2000122
1208.713642	676.7999878
1209.26305	677.2000122
1209.812401	676.7999878
1210.361695	677.0
1210.910933	677.4000244
1211.460115	676.0
1212.00924	679.4000244
1212.558308	679.2000122
1213.10732	679.7999878
1213.656275	674.2000122
1214.205174	676.2000122
1214.754016	674.4000244
1215.302801	677.5999756
1215.85153	678.4000244
1216.400203	675.2000122
1216.948819	678.5999756
1217.497378	676.5999756
1218.045881	676.0
1218.594327	676.5999756
1219.142717	675.2000122
1219.691051	681.4000244
1220.239327	675.2000122
1220.787548	677.4000244
1221.335712	680.4000244
1221.883819	678.5999756
1222.43187	678.7999878
1222.979864	681.0
1223.527802	677.5999756
1224.075683	679.2000122
1224.623508	681.4000244
1225.171277	676.4000244
1225.718989	680.2000122
1226.266644	675.7999878
1226.814243	674.5999756
1227.361786	678.5999756
1227.909272	681.2000122
1228.456702	678.7999878
1229.004075	679.2000122
1229.551392	678.2000122
1230.098652	680.2000122
1230.645856	681.7999878
1231.193003	678.7999878
1231.740094	681.2000122
1232.287129	678.0
1232.834107	679.2000122
1233.381029	676.2000122
1233.927894	677.7999878
1234.474703	676.7999878
1235.021455	679.4000244
1235.568151	679.5999756
1236.114791	679.5999756
1236.661374	679.0
1237.207901	677.5999756
1237.754372	677.5999756
1238.300786	679.4000244
1238.847144	679.5999756
1239.393445	682.7999878
1239.93969	676.7999878
1240.485879	679.4000244
1241.032011	679.5999756
1241.578087	680.4000244
1242.124106	674.7999878
1242.67007	681.7999878
1243.215976	676.5999756
1243.761827	681.0
1244.307621	681.2000122
1244.853359	681.4000244
1245.39904	676.5999756
1245.944665	682.2000122
1246.490234	680.5999756
1247.035746	679.7999878
1247.581203	682.7999878
1248.126602	681.4000244
1248.671946	682.2000122
1249.217233	681.4000244
1249.762464	679.2000122
1250.307638	679.0
1250.852757	680.4000244
1251.397819	679.4000244
1251.942824	678.4000244
1252.487774	684.7999878
1253.032667	686.0
1253.577503	680.5999756
1254.122284	681.5999756
1254.667008	683.4000244
1255.211676	680.2000122
1255.756288	681.2000122
1256.300843	678.4000244
1256.845342	686.0
1257.389785	681.7999878
1257.934172	687.0
1258.478502	689.4000244
1259.022776	687.7999878
1259.566994	685.7999878
1260.111156	698.4000244
1260.655261	691.0
1261.199311	693.2000122
1261.743304	700.2000122
1262.28724	701.7999878
1262.831121	703.7999878
1263.374945	709.4000244
1263.918713	705.4000244
1264.462425	698.5999756
1265.006081	700.0
1265.54968	693.0
1266.093223	689.5999756
1266.636711	686.2000122
1267.180141	688.2000122
1267.723516	689.0
1268.266835	690.0
1268.810097	686.5999756
1269.353303	688.4000244
1269.896453	684.0
1270.439547	690.5999756
1270.982584	684.5999756
1271.525566	687.2000122
1272.068491	684.0
1272.61136	687.4000244
1273.154173	690.2000122
1273.69693	683.2000122
1274.239631	690.0
1274.782275	688.2000122
1275.324864	687.2000122
1275.867396	690.4000244
1276.409872	689.5999756
1276.952292	688.5999756
1277.494656	690.5999756
1278.036964	692.2000122
1278.579215	694.5999756
1279.121411	696.7999878
1279.66355	702.4000244
1280.205634	707.5999756
1280.747661	724.7999878
1281.289632	759.5999756
1281.831547	823.0
1282.373406	957.5999756
1282.915209	1128.0
1283.456955	1195.199951
1283.998646	1097.199951
1284.540281	917.2000122
1285.081859	807.2000122
1285.623381	752.2000122
1286.164848	724.7999878
1286.706258	711.5999756
1287.247612	704.4000244
1287.788911	700.2000122
1288.330153	696.2000122
1288.871339	692.7999878
1289.412469	693.4000244
1289.953543	692.7999878
1290.494561	687.5999756
1291.035523	691.4000244
1291.576428	689.5999756
1292.117278	687.7999878
1292.658072	689.0
1293.19881	685.7999878
1293.739492	685.0
1294.280118	686.7999878
1294.820687	685.5999756
1295.361201	687.0
1295.901659	685.0
1296.442061	684.2000122
1296.982406	684.5999756
1297.522696	686.5999756
1298.06293	684.7999878
1298.603108	681.4000244
1299.143229	686.2000122
1299.683295	681.5999756
1300.223305	683.5999756
1300.763259	685.4000244
1301.303157	681.0
1301.842999	683.7999878
1302.382785	684.7999878
1302.922515	688.4000244
1303.462189	683.2000122
1304.001807	681.4000244
1304.541369	684.0
1305.080875	684.4000244
1305.620326	680.4000244
1306.15972	681.4000244
1306.699058	680.7999878
1307.238341	679.7999878
1307.777567	681.4000244
1308.316738	680.2000122
1308.855853	681.4000244
1309.394912	680.4000244
1309.933915	680.5999756
1310.472862	682.4000244
1311.011753	682.0
1311.550588	681.5999756
1312.089367	682.4000244
1312.62809	681.5999756
1313.166758	682.2000122
1313.70537	677.5999756
1314.243925	680.5999756
1314.782425	677.0
1315.320869	681.0
1315.859257	682.4000244
1316.397589	678.7999878
1316.935866	681.0
1317.474086	680.5999756
1318.012251	679.7999878
1318.55036	682.4000244
1319.088413	678.4000244
1319.62641	683.4000244
1320.164351	680.0
1320.702236	675.4000244
1321.240066	682.2000122
1321.777839	679.4000244
1322.315557	680.4000244
1322.853219	679.7999878
1323.390826	680.2000122
1323.928376	684.0
1324.465871	678.2000122
1325.003309	680.5999756
1325.540692	682.5999756
1326.07802	679.0
1326.615291	679.5999756
1327.152506	680.5999756
1327.689666	680.0
1328.22677	678.5999756
1328.763818	680.5999756
1329.300811	678.4000244
1329.837747	678.4000244
1330.374628	676.5999756
1330.911453	676.4000244
1331.448222	679.7999878
1331.984936	679.0
1332.521594	680.7999878
1333.058196	679.0
1333.594742	681.7999878
1334.131232	683.4000244
1334.667667	680.4000244
1335.204046	678.0
1335.740369	677.2000122
1336.276637	678.2000122
1336.812848	679.2000122
1337.349004	680.5999756
1337.885105	680.0
1338.421149	680.0
1338.957138	678.0
1339.493071	678.0
1340.028949	678.4000244
1340.56477	680.0
1341.100536	679.0
1341.636246	678.2000122
1342.171901	681.2000122
1342.7075	676.7999878
1343.243043	677.4000244
1343.77853	678.0
1344.313962	680.4000244
1344.849338	679.7999878
1345.384659	676.4000244
1345.919923	681.4000244
1346.455133	681.4000244
1346.990286	680.2000122
1347.525384	678.4000244
1348.060426	682.2000122
1348.595412	682.0
1349.130343	676.4000244
1349.665218	680.4000244
1350.200037	679.5999756
1350.734801	679.4000244
1351.269509	679.0
1351.804162	679.4000244
1352.338758	680.4000244
1352.8733	680.0
1353.407785	682.4000244
1353.942215	683.0
1354.476589	679.5999756
1355.010908	684.4000244
1355.545171	680.2000122
1356.079379	679.5999756
1356.61353	684.0
1357.147627	681.0
1357.681667	678.0
1358.215652	680.5999756
1358.749582	684.0
1359.283456	681.5999756
1359.817274	682.0
1360.351037	682.2000122
1360.884744	678.0
1361.418395	680.2000122
1361.951991	681.7999878
1362.485531	683.5999756
1363.019016	681.0
1363.552445	680.4000244
1364.085819	685.4000244
1364.619137	682.0
1365.1524	683.7999878
1365.685607	682.7999878
1366.218758	683.7999878
1366.751854	685.2000122
1367.284894	684.4000244
1367.817879	687.4000244
1368.350808	686.0
1368.883682	689.7999878
1369.4165	694.0
1369.949263	699.5999756
1370.48197	693.4000244
1371.014622	685.0
1371.547218	690.2000122
1372.612244	686.0
1373.144673	682.7999878
1373.677047	688.7999878
1374.209366	685.2000122
1374.741629	686.4000244
1375.273836	679.5999756
1375.805989	689.4000244
1376.338085	686.2000122
1376.870126	686.2000122
1377.402112	688.7999878
1377.934042	690.0
1378.465917	688.0
1378.997736	687.5999756
1379.5295	693.7999878
1380.061208	690.7999878
1380.592861	693.5999756
1381.124459	698.2000122
1381.656	692.4000244
1382.187487	697.7999878
1382.718918	703.2000122
1383.250294	706.7999878
1383.781614	711.2000122
1384.312879	726.5999756
1384.844088	736.4000244
1385.375242	768.2000122
1385.90634	833.7999878
1386.437383	973.0
1386.968371	1286.800049
1387.499303	1726.400024
1388.03018	1693.800049
1388.561001	1215.400024
1389.091767	919.4000244
1389.622478	800.5999756
1390.153133	749.2000122
1390.683733	726.0
1391.214277	719.4000244
1391.744766	712.2000122
1392.2752	700.4000244
1392.805578	698.7999878
1393.335901	697.7999878
1393.866168	697.7999878
1394.396381	693.7999878
1394.926537	691.5999756
1395.456639	687.4000244
1395.986685	689.2000122
1396.516675	691.4000244
1397.046611	687.2000122
1397.576491	682.7999878
1398.106315	690.0
1398.636084	688.7999878
1399.165798	684.7999878
1399.695457	688.4000244
1400.22506	685.7999878
1400.754608	686.7999878
1401.284101	686.7999878
1401.813538	686.7999878
1402.34292	684.2000122
1402.872247	689.4000244
1403.401518	687.7999878
1403.930734	687.0
1404.459895	689.2000122
1404.989	689.5999756
1405.51805	692.5999756
1406.047045	693.4000244
1406.575984	699.5999756
1407.104869	704.5999756
1407.633697	705.4000244
1408.162471	716.4000244
1408.691189	723.4000244
1409.219852	728.7999878
1409.74846	726.0
1410.277013	717.7999878
1410.80551	705.4000244
1411.333952	701.4000244
1411.862339	697.4000244
1412.39067	687.0
1412.918946	686.4000244
1413.447167	685.4000244
1413.975333	685.7999878
1414.503444	687.0
1415.031499	682.0
1415.559499	693.7999878
1416.087444	682.5999756
1416.615333	679.7999878
1417.143167	683.4000244
1417.670947	679.0
1418.19867	677.0
1418.726339	681.5999756
1419.253952	680.0
1419.781511	679.7999878
1420.309014	676.4000244
1420.836461	679.4000244
1421.363854	680.0
1421.891191	678.7999878
1422.418474	682.2000122
1422.945701	678.7999878
1423.472872	677.5999756
1423.999989	682.4000244
1424.52705	679.4000244
1425.054057	679.0
1425.581008	679.2000122
1426.107904	678.5999756
1426.634745	680.4000244
1427.16153	681.5999756
1427.688261	677.7999878
1428.214936	678.5999756
1428.741556	675.5999756
1429.268121	678.7999878
1429.794631	674.5999756
1430.321085	675.2000122
1430.847485	677.4000244
1431.373829	677.7999878
1431.900118	674.2000122
1432.426353	679.7999878
1432.952532	677.5999756
1433.478655	676.0
1434.004724	676.4000244
1434.530738	675.5999756
1435.056696	676.0
1435.5826	678.7999878
1436.108448	679.2000122
1436.634241	677.2000122
1437.159979	675.7999878
1437.685662	678.0
1438.21129	678.0
1438.736863	677.5999756
1439.262381	673.5999756
1439.787843	681.5999756
1440.313251	676.7999878
1440.838603	675.7999878
1441.3639	675.2000122
1441.889143	682.7999878
1442.41433	674.7999878
1442.939462	678.0
1443.464539	675.2000122
1443.989561	678.2000122
1444.514528	675.7999878
1445.03944	675.7999878
1445.564297	677.0
1446.089099	676.2000122
1446.613846	678.4000244
1447.138537	678.7999878
1447.663174	676.7999878
1448.187756	678.5999756
1448.712282	676.5999756
1449.236754	677.0
1449.761171	677.5999756
1450.285532	678.5999756
1450.809839	675.7999878
1451.33409	673.4000244
1451.858287	679.5999756
1452.382428	673.4000244
1452.906515	674.7999878
1453.430546	676.4000244
1453.954523	675.5999756
1454.478444	677.5999756
1455.002311	676.7999878
1455.526123	676.4000244
1456.049879	680.0
1456.573581	676.0
1457.097227	674.5999756
1457.620819	676.0
1458.144356	678.2000122
1458.667837	676.2000122
1459.191264	678.2000122
1459.714636	672.7999878
1460.237952	674.7999878
1460.761214	676.0
1461.284421	678.2000122
1461.807573	675.2000122
1462.33067	675.2000122
1462.853712	680.4000244
1463.376699	681.7999878
1463.899632	678.0
1464.422509	678.2000122
1464.945331	677.0
1465.468099	673.4000244
1465.990811	672.7999878
1466.513469	675.4000244
1467.036071	677.0
1467.558619	677.2000122
1468.081112	674.4000244
1468.60355	678.4000244
1469.125933	673.5999756
1469.648261	676.5999756
1470.170534	679.0
1470.692752	675.4000244
1471.214916	676.0
1471.737024	674.5999756
1472.259078	676.7999878
1472.781077	675.0
1473.303021	674.2000122
1473.82491	674.7999878
1474.346744	673.2000122
1474.868523	678.0
1475.390248	674.7999878
1475.911917	675.2000122
1476.433532	670.7999878
1476.955092	673.4000244
1477.476597	675.2000122
1477.998047	676.0
1478.519442	673.7999878
1479.040783	672.4000244
1479.562068	671.4000244
1480.083299	672.2000122
1480.604475	673.0
1481.125596	672.2000122
1481.646663	673.7999878
1482.167674	673.0
1482.688631	671.0
1483.209533	674.0
1483.73038	671.0
1484.251172	673.4000244
1484.771909	671.5999756
1485.292592	674.0
1485.81322	675.5999756
1486.333793	677.5999756
1486.854311	673.4000244
1487.374775	674.2000122
1487.895183	673.2000122
1488.415537	674.0
1488.935836	673.4000244
1489.456081	674.7999878
1489.97627	672.2000122
1490.496405	673.2000122
1491.016485	673.5999756
1491.536511	674.5999756
1492.056481	668.5999756
1492.576397	672.5999756
1493.096258	672.0
1493.616064	670.2000122
1494.135816	673.2000122
1494.655513	675.0
1495.175155	673.5999756
1495.694742	672.4000244
1496.214274	672.7999878
1496.733752	670.5999756
1497.253175	671.2000122
1497.772544	674.7999878
1498.291858	675.2000122
1498.811116	672.7999878
1499.330321	674.2000122
1499.84947	681.7999878
1500.368565	672.5999756
1500.887605	671.4000244
1501.406591	670.2000122
1501.925521	672.0
1502.444397	673.2000122
1502.963219	672.7999878
1503.481985	672.5999756
1504.000697	673.5999756
1504.519355	673.2000122
1505.037957	674.7999878
1505.556505	671.5999756
1506.074999	672.0
1506.593437	671.2000122
1507.111821	672.4000244
1507.63015	672.7999878
1508.148425	670.7999878
1508.666645	672.4000244
1509.18481	671.5999756
1509.702921	672.0
1510.220977	673.2000122
1510.738979	681.2000122
1511.256925	672.2000122
1511.774817	674.5999756
1512.292655	675.0
1512.810438	673.2000122
1513.328166	674.7999878
1513.84584	672.0
1514.363459	673.2000122
1514.881023	674.4000244
1515.398533	672.5999756
1515.915988	672.0
1516.433389	671.2000122
1516.950734	668.7999878
1517.468026	674.7999878
1517.985263	669.5999756
1518.502445	673.0
1519.019572	674.2000122
1519.536645	673.2000122
1520.053664	673.4000244
1520.570628	675.4000244
1521.087537	671.7999878
1521.604392	674.4000244
1522.121192	674.4000244
1522.637937	670.5999756
1523.154628	672.7999878
1523.671265	673.4000244
1524.187847	674.0
1524.704374	675.4000244
1525.220847	670.5999756
1525.737265	672.0
1526.253629	678.4000244
1526.769938	673.5999756
1527.286192	671.4000244
1527.802392	674.0
1528.318538	670.5999756
1528.834629	671.5999756
1529.350666	673.0
1529.866648	674.4000244
1530.382575	671.7999878
1530.898448	670.4000244
1531.414266	676.2000122
1531.93003	673.7999878
1532.44574	670.5999756
1532.961395	674.2000122
1533.476995	675.0
1533.992541	672.7999878
1534.508033	671.0
1535.02347	671.7999878
1535.538852	672.5999756
1536.05418	672.0
1536.569454	672.0
1537.084673	674.5999756
1537.599837	673.2000122
1538.114947	673.2000122
1538.630003	670.7999878
1539.145004	670.2000122
1539.659951	674.4000244
1540.174843	671.5999756
1540.689681	669.4000244
1541.204465	673.2000122
1541.719194	675.2000122
1542.233868	675.4000244
1542.748488	669.7999878
1543.263054	672.0
1543.777565	672.2000122
1544.292022	673.4000244
1544.806424	669.2000122
1545.320772	670.4000244
1545.835066	669.4000244
1546.349305	675.0
1546.863489	673.2000122
1547.37762	671.2000122
1547.891696	671.5999756
1548.405717	671.0
1548.919684	671.2000122
1549.433597	672.5999756
1549.947455	673.0
1550.461259	675.0
1550.975009	671.7999878
1551.488704	669.2000122
1552.002345	676.0
1552.515931	674.7999878
1553.029463	673.4000244
1553.542941	671.2000122
1554.056364	673.7999878
1554.569733	672.4000244
1555.083048	671.5999756
1555.596308	670.5999756
1556.109514	670.5999756
1556.622665	671.2000122
1557.135762	672.2000122
1557.648805	671.5999756
1558.161794	672.2000122
1558.674728	675.2000122
1559.187608	674.4000244
1559.700433	677.4000244
1560.213205	674.4000244
1560.725921	673.0
1561.238584	673.0
1561.751192	669.0
1562.263746	673.2000122
1562.776246	673.2000122
1563.288691	674.0
1563.801082	675.0
1564.313419	671.7999878
1564.825701	673.2000122
1565.337929	674.4000244
1565.850103	675.5999756
1566.362223	675.5999756
1566.874288	676.7999878
1567.386299	674.7999878
1567.898256	673.4000244
1568.410158	674.2000122
1568.922007	670.0
1569.4338	673.5999756
1569.94554	673.0
1570.457226	671.0
1570.968857	673.5999756
1571.480434	673.7999878
1571.991956	674.5999756
1572.503425	673.4000244
1573.014839	673.5999756
1573.526199	672.5999756
1574.037505	672.2000122
1574.548756	672.2000122
1575.059953	672.5999756
1575.571096	671.4000244
1576.082185	673.7999878
1576.59322	674.4000244
1577.1042	672.2000122
1577.615126	672.2000122
1578.125998	671.5999756
1578.636816	671.5999756
1579.14758	672.5999756
1579.658289	670.2000122
1580.168944	673.0
1580.679545	673.2000122
1581.190092	673.7999878
1581.700585	674.2000122
1582.211023	671.7999878
1582.721407	676.4000244
1583.231737	672.2000122
1583.742013	675.7999878
1584.252235	671.7999878
1584.762403	671.4000244
1585.272516	677.2000122
1585.782575	673.7999878
1586.292581	671.5999756
1586.802532	673.7999878
1587.312428	673.5999756
1587.822271	670.2000122
1588.33206	672.5999756
1588.841794	673.2000122
1589.351474	673.0
1589.8611	668.5999756
1590.370672	673.7999878
1590.88019	672.4000244
1591.389654	672.7999878
1591.899064	674.0
1592.408419	671.0
